# # comment:                                                     FEFF 9.9.1  
# # Source:
# # Structure
# # Reduced
# # space
# # abc:
# # angles:
# # sites:
# # POT  SCF 100  7.0000   0, screened core-hole, AFOLP (folp(0)= 1.150)
# # Abs   Z=29 Rmt= 1.225 Rnm= 1.297 K  shell
# # Pot 1 Z=56 Rmt= 1.931 Rnm= 1.986
# # Pot 2 Z=66 Rmt= 1.627 Rnm= 1.699
# # Pot 3 Z=29 Rmt= 1.225 Rnm= 1.297
# # Pot 4 Z= 8 Rmt= 1.050 Rnm= 1.105
# # Gam_ch=1.729E+00 H-L exch Vi= 0.000E+00 Vr= 0.000E+00
# # Mu=-8.163E+00eV kf=2.023E+00 Vint=-1.729E+01eV Rs_int= 1.792
# FMS rfms= 9.0000
# # PATH  Rmax=-1.000,  Keep_limit= 0.00, Heap_limit 0.00  Pwcrit= 2.50%
#  S02=0.950  Temp=   0.00  Debye_temp=   0.00  Global_sig2= 0.00000
#  Energy zero shift, vr, vi    0.00000E+00   0.00000E+00
#  Curved wave amplitude ratio filter   4.000%
#     file         sig2 tot  cw amp ratio   deg  nlegs   reff  inp sig2
#     0/   0 paths used
#  xsedge+ 50, used to normalize mu           2.4377E-04
#  -----------------------------------------------------------------------
#  omega    e    k    mu    mu0     chi     @#
    8984.930    -11.973  -1.000  4.04431E-02  5.88262E-02 -1.83831E-02
    8985.229    -11.674  -0.960  4.25870E-02  6.32279E-02 -2.06410E-02
    8985.516    -11.387  -0.920  4.48995E-02  6.81288E-02 -2.32293E-02
    8985.790    -11.113  -0.880  4.74006E-02  7.36030E-02 -2.62024E-02
    8986.052    -10.851  -0.840  5.01131E-02  7.97369E-02 -2.96238E-02
    8986.302    -10.601  -0.800  5.30633E-02  8.66307E-02 -3.35674E-02
    8986.540    -10.363  -0.760  5.62811E-02  9.43995E-02 -3.81185E-02
    8986.765    -10.138  -0.720  5.97998E-02  1.03173E-01 -4.33737E-02
    8986.979     -9.924  -0.680  6.36557E-02  1.13096E-01 -4.94402E-02
    8987.180     -9.723  -0.640  6.78864E-02  1.24318E-01 -5.64317E-02
    8987.369     -9.534  -0.600  7.25276E-02  1.36989E-01 -6.44616E-02
    8987.546     -9.358  -0.560  7.76074E-02  1.51236E-01 -7.36291E-02
    8987.710     -9.193  -0.520  8.31377E-02  1.67136E-01 -8.39985E-02
    8987.863     -9.041  -0.480  8.91018E-02  1.84673E-01 -9.55709E-02
    8988.003     -8.900  -0.440  9.54414E-02  2.03692E-01 -1.08250E-01
    8988.131     -8.772  -0.400  1.02046E-01  2.23861E-01 -1.21815E-01
    8988.247     -8.656  -0.360  1.08749E-01  2.44655E-01 -1.35906E-01
    8988.350     -8.553  -0.320  1.15345E-01  2.65395E-01 -1.50050E-01
    8988.442     -8.461  -0.280  1.21613E-01  2.85325E-01 -1.63713E-01
    8988.521     -8.382  -0.240  1.27347E-01  3.03719E-01 -1.76372E-01
    8988.588     -8.315  -0.200  1.32383E-01  3.19970E-01 -1.87587E-01
    8988.643     -8.260  -0.160  1.36606E-01  3.33636E-01 -1.97031E-01
    8988.686     -8.218  -0.120  1.39940E-01  3.44436E-01 -2.04496E-01
    8988.716     -8.187  -0.080  1.42340E-01  3.52213E-01 -2.09873E-01
    8988.740     -8.163   0.000  1.44265E-01  3.58459E-01 -2.14195E-01
    8988.795     -8.108   0.120  1.48738E-01  3.72550E-01 -2.23812E-01
    8988.838     -8.065   0.160  1.52170E-01  3.83474E-01 -2.31304E-01
    8988.893     -8.010   0.200  1.56606E-01  3.97431E-01 -2.40825E-01
    8988.960     -7.943   0.240  1.62015E-01  4.14202E-01 -2.52187E-01
    8989.039     -7.864   0.280  1.68379E-01  4.33443E-01 -2.65064E-01
    8989.131     -7.773   0.320  1.75649E-01  4.54609E-01 -2.78960E-01
    8989.234     -7.669   0.360  1.83911E-01  4.77116E-01 -2.93205E-01
    8989.350     -7.553   0.400  1.93204E-01  5.00280E-01 -3.07076E-01
    8989.478     -7.425   0.440  2.03612E-01  5.23452E-01 -3.19839E-01
    8989.618     -7.285   0.480  2.15191E-01  5.46163E-01 -3.30971E-01
    8989.771     -7.132   0.520  2.27855E-01  5.68114E-01 -3.40259E-01
    8989.935     -6.968   0.560  2.41100E-01  5.89123E-01 -3.48023E-01
    8990.112     -6.791   0.600  2.54199E-01  6.09195E-01 -3.54996E-01
    8990.301     -6.602   0.640  2.66480E-01  6.28353E-01 -3.61873E-01
    8990.502     -6.401   0.680  2.77976E-01  6.46662E-01 -3.68686E-01
    8990.716     -6.188   0.720  2.89460E-01  6.64264E-01 -3.74804E-01
    8990.941     -5.962   0.760  3.02073E-01  6.81241E-01 -3.79168E-01
    8991.179     -5.724   0.800  3.17465E-01  6.97701E-01 -3.80236E-01
    8991.429     -5.474   0.840  3.37703E-01  7.13660E-01 -3.75957E-01
    8991.691     -5.212   0.880  3.64264E-01  7.29237E-01 -3.64973E-01
    8991.965     -4.938   0.920  3.95599E-01  7.44437E-01 -3.48838E-01
    8992.252     -4.651   0.960  4.25904E-01  7.59311E-01 -3.33407E-01
    8992.550     -4.353   1.000  4.47619E-01  7.73837E-01 -3.26218E-01
    8992.861     -4.042   1.040  4.57791E-01  7.88065E-01 -3.30275E-01
    8993.184     -3.719   1.080  4.60588E-01  8.01955E-01 -3.41367E-01
    8993.520     -3.383   1.120  4.63557E-01  8.15522E-01 -3.51966E-01
    8993.867     -3.036   1.160  4.72805E-01  8.28736E-01 -3.55931E-01
    8994.227     -2.676   1.200  4.90272E-01  8.41600E-01 -3.51328E-01
    8994.599     -2.304   1.240  5.13989E-01  8.54076E-01 -3.40087E-01
    8994.983     -1.920   1.280  5.42053E-01  8.66166E-01 -3.24113E-01
    8995.379     -1.524   1.320  5.74247E-01  8.77805E-01 -3.03558E-01
    8995.787     -1.116   1.360  6.13037E-01  8.89032E-01 -2.75995E-01
    8996.208     -0.695   1.400  6.64164E-01  8.99804E-01 -2.35640E-01
    8996.641     -0.262   1.440  7.34229E-01  9.10099E-01 -1.75870E-01
    8997.086      0.183   1.480  8.28088E-01  9.19913E-01 -9.18253E-02
    8997.543      0.640   1.520  9.47813E-01  9.29224E-01  1.85891E-02
    8998.012      1.109   1.560  1.09676E+00  9.38033E-01  1.58729E-01
    8998.494      1.591   1.600  1.27030E+00  9.46336E-01  3.23966E-01
    8998.988      2.085   1.640  1.41880E+00  9.54117E-01  4.64679E-01
    8999.494      2.591   1.680  1.48897E+00  9.61398E-01  5.27576E-01
    9000.012      3.109   1.720  1.54682E+00  9.68161E-01  5.78660E-01
    9000.542      3.639   1.760  1.65465E+00  9.74410E-01  6.80244E-01
    9001.085      4.182   1.800  1.71888E+00  9.80172E-01  7.38708E-01
    9001.640      4.736   1.840  1.65530E+00  9.85431E-01  6.69869E-01
    9002.206      5.303   1.880  1.53113E+00  9.90237E-01  5.40892E-01
    9002.786      5.882   1.920  1.41026E+00  9.94556E-01  4.15704E-01
    9003.377      6.474   1.960  1.30892E+00  9.98438E-01  3.10479E-01
    9003.980      7.077   2.000  1.22261E+00  1.00189E+00  2.20714E-01
    9004.596      7.693   2.040  1.15212E+00  1.00495E+00  1.47172E-01
    9005.224      8.321   2.080  1.11421E+00  1.00760E+00  1.06615E-01
    9005.864      8.961   2.120  1.11688E+00  1.00987E+00  1.07004E-01
    9006.516      9.613   2.160  1.14013E+00  1.01180E+00  1.28335E-01
    9007.181     10.278   2.200  1.14588E+00  1.01341E+00  1.32464E-01
    9007.857     10.954   2.240  1.10683E+00  1.01468E+00  9.21490E-02
    9008.546     11.643   2.280  1.03945E+00  1.01568E+00  2.37695E-02
    9009.247     12.344   2.320  9.83502E-01  1.01641E+00 -3.29122E-02
    9009.961     13.057   2.360  9.62163E-01  1.01690E+00 -5.47396E-02
    9010.686     13.783   2.400  9.72226E-01  1.01717E+00 -4.49445E-02
    9011.424     14.520   2.440  1.00190E+00  1.01723E+00 -1.53324E-02
    9012.173     15.270   2.480  1.03645E+00  1.01709E+00  1.93585E-02
    9012.935     16.032   2.520  1.06502E+00  1.01678E+00  4.82377E-02
    9013.710     16.806   2.560  1.08107E+00  1.01634E+00  6.47382E-02
    9014.496     17.593   2.600  1.08106E+00  1.01576E+00  6.53024E-02
    9015.295     18.391   2.640  1.06666E+00  1.01506E+00  5.15974E-02
    9016.105     19.202   2.680  1.04333E+00  1.01427E+00  2.90596E-02
    9016.928     20.025   2.720  1.01744E+00  1.01340E+00  4.03706E-03
    9017.763     20.860   2.760  9.93470E-01  1.01245E+00 -1.89774E-02
    9018.611     21.708   2.800  9.73021E-01  1.01145E+00 -3.84253E-02
    9019.470     22.567   2.840  9.56135E-01  1.01042E+00 -5.42891E-02
    9020.342     23.439   2.880  9.41635E-01  1.00934E+00 -6.77077E-02
    9021.226     24.323   2.920  9.27976E-01  1.00825E+00 -8.02744E-02
    9022.122     25.219   2.960  9.13893E-01  1.00715E+00 -9.32617E-02
    9023.030     26.127   3.000  8.98921E-01  1.00608E+00 -1.07157E-01
    9023.951     27.048   3.040  8.83730E-01  1.00499E+00 -1.21256E-01
    9024.883     27.980   3.080  8.69818E-01  1.00392E+00 -1.34105E-01
    9025.828     28.925   3.120  8.59079E-01  1.00289E+00 -1.43814E-01
    9026.785     29.882   3.160  8.52452E-01  1.00190E+00 -1.49446E-01
    9027.755     30.852   3.200  8.49988E-01  1.00092E+00 -1.50932E-01
    9028.736     31.833   3.240  8.51271E-01  1.00001E+00 -1.48738E-01
    9029.730     32.827   3.280  8.55438E-01  9.99162E-01 -1.43724E-01
    9030.736     33.832   3.320  8.61720E-01  9.98341E-01 -1.36621E-01
    9031.754     34.850   3.360  8.69829E-01  9.97590E-01 -1.27760E-01
    9032.784     35.881   3.400  8.79951E-01  9.96910E-01 -1.16959E-01
    9033.826     36.923   3.440  8.92238E-01  9.96282E-01 -1.04044E-01
    9034.881     37.978   3.480  9.07111E-01  9.95728E-01 -8.86174E-02
    9035.948     39.045   3.520  9.24854E-01  9.95250E-01 -7.03960E-02
    9037.027     40.123   3.560  9.45345E-01  9.94826E-01 -4.94804E-02
    9038.118     41.215   3.600  9.68164E-01  9.94498E-01 -2.63342E-02
    9039.221     42.318   3.640  9.92420E-01  9.94226E-01 -1.80638E-03
    9040.337     43.434   3.680  1.01673E+00  9.94008E-01  2.27237E-02
    9041.465     44.561   3.720  1.03939E+00  9.93888E-01  4.55049E-02
    9042.604     45.701   3.760  1.05866E+00  9.93823E-01  6.48344E-02
    9043.757     46.853   3.800  1.07305E+00  9.93855E-01  7.91935E-02
    9044.921     48.018   3.840  1.08132E+00  9.93918E-01  8.74005E-02
    9046.097     49.194   3.880  1.08326E+00  9.94077E-01  8.91790E-02
    9047.286     50.383   3.920  1.07943E+00  9.94288E-01  8.51451E-02
    9048.487     51.584   3.960  1.07128E+00  9.94548E-01  7.67304E-02
    9049.700     52.797   4.000  1.06075E+00  9.94901E-01  6.58455E-02
    9050.925     54.022   4.040  1.04967E+00  9.95280E-01  5.43921E-02
    9052.163     55.260   4.080  1.03957E+00  9.95727E-01  4.38410E-02
    9053.413     56.509   4.120  1.03121E+00  9.96219E-01  3.49902E-02
    9054.675     57.771   4.160  1.02489E+00  9.96754E-01  2.81341E-02
    9055.949     59.045   4.200  1.02043E+00  9.97352E-01  2.30823E-02
    9057.235     60.332   4.240  1.01739E+00  9.97969E-01  1.94211E-02
    9058.533     61.630   4.280  1.01557E+00  9.98622E-01  1.69493E-02
    9059.844     62.941   4.320  1.01527E+00  9.99311E-01  1.59577E-02
    9061.167     64.264   4.360  1.01699E+00  1.00004E+00  1.69524E-02
    9062.502     65.599   4.400  1.02078E+00  1.00077E+00  2.00092E-02
    9063.849     66.946   4.440  1.02622E+00  1.00154E+00  2.46834E-02
    9065.208     68.305   4.480  1.03256E+00  1.00233E+00  3.02277E-02
    9066.580     69.677   4.520  1.03923E+00  1.00311E+00  3.61164E-02
    9067.964     71.061   4.560  1.04614E+00  1.00391E+00  4.22336E-02
    9069.360     72.457   4.600  1.05319E+00  1.00469E+00  4.84960E-02
    9070.768     73.865   4.640  1.05982E+00  1.00549E+00  5.43267E-02
    9072.188     75.285   4.680  1.06475E+00  1.00628E+00  5.84678E-02
    9073.621     76.718   4.720  1.06646E+00  1.00705E+00  5.94072E-02
    9075.066     78.162   4.760  1.06402E+00  1.00781E+00  5.62069E-02
    9076.522     79.619   4.800  1.05757E+00  1.00857E+00  4.89982E-02
    9077.992     81.088   4.840  1.04804E+00  1.00929E+00  3.87526E-02
    9079.473     82.570   4.880  1.03672E+00  1.00997E+00  2.67547E-02
    9080.966     84.063   4.920  1.02485E+00  1.01064E+00  1.42158E-02
    9082.472     85.569   4.960  1.01324E+00  1.01124E+00  2.00053E-03
    9083.990     87.087   5.000  1.00233E+00  1.01183E+00 -9.49918E-03
    9085.520     88.617   5.040  9.92196E-01  1.01238E+00 -2.01868E-02
    9087.062     90.159   5.080  9.82949E-01  1.01289E+00 -2.99428E-02
    9088.617     91.714   5.120  9.74916E-01  1.01336E+00 -3.84424E-02
    9090.184     93.280   5.160  9.68491E-01  1.01378E+00 -4.52908E-02
    9091.762     94.859   5.200  9.64003E-01  1.01416E+00 -5.01560E-02
    9093.353     96.450   5.240  9.61459E-01  1.01447E+00 -5.30092E-02
    9094.957     98.054   5.280  9.60501E-01  1.01473E+00 -5.42287E-02
    9096.572     99.669   5.320  9.60494E-01  1.01495E+00 -5.44515E-02
    9098.200    101.297   5.360  9.60944E-01  1.01512E+00 -5.41718E-02
    9099.840    102.936   5.400  9.61789E-01  1.01522E+00 -5.34266E-02
    9101.492    104.588   5.440  9.63476E-01  1.01527E+00 -5.17924E-02
    9103.156    106.253   5.480  9.66538E-01  1.01527E+00 -4.87352E-02
    9104.832    107.929   5.520  9.71232E-01  1.01521E+00 -4.39756E-02
    9106.521    109.618   5.560  9.77442E-01  1.01509E+00 -3.76534E-02
    9108.222    111.318   5.600  9.84732E-01  1.01494E+00 -3.02043E-02
    9109.935    113.031   5.640  9.92268E-01  1.01471E+00 -2.24392E-02
    9111.660    114.757   5.680  9.99160E-01  1.01443E+00 -1.52736E-02
    9113.397    116.494   5.720  1.00440E+00  1.01412E+00 -9.72036E-03
    9115.147    118.243   5.760  1.00734E+00  1.01376E+00 -6.41072E-03
    9116.908    120.005   5.800  1.00790E+00  1.01333E+00 -5.42598E-03
    9118.682    121.779   5.840  1.00651E+00  1.01289E+00 -6.37376E-03
    9120.468    123.565   5.880  1.00392E+00  1.01238E+00 -8.46829E-03
    9122.267    125.364   5.920  1.00127E+00  1.01187E+00 -1.06071E-02
    9124.077    127.174   5.960  9.99897E-01  1.01133E+00 -1.14325E-02
    9125.900    128.997   6.000  1.00066E+00  1.01069E+00 -1.00323E-02
