# # comment:                                                     FEFF 9.9.1  
# # Source:
# # Structure
# # Reduced
# # space
# # abc:
# # angles:
# # sites:
# # POT  SCF 100  7.0000   0, screened core-hole, AFOLP (folp(0)= 1.150)
# # Abs   Z=29 Rmt= 1.208 Rnm= 1.274 K  shell
# # Pot 1 Z=12 Rmt= 1.427 Rnm= 1.493
# # Pot 2 Z=29 Rmt= 1.208 Rnm= 1.274
# # Pot 3 Z= 8 Rmt= 1.067 Rnm= 1.119
# # Gam_ch=1.729E+00 H-L exch Vi= 0.000E+00 Vr= 0.000E+00
# # Mu=-9.191E+00eV kf=2.152E+00 Vint=-1.702E+01eV Rs_int= 1.685
# FMS rfms= 9.0000
# # PATH  Rmax=-1.000,  Keep_limit= 0.00, Heap_limit 0.00  Pwcrit= 2.50%
#  S02=0.950  Temp=   0.00  Debye_temp=   0.00  Global_sig2= 0.00000
#  Energy zero shift, vr, vi    0.00000E+00   0.00000E+00
#  Curved wave amplitude ratio filter   4.000%
#     file         sig2 tot  cw amp ratio   deg  nlegs   reff  inp sig2
#     0/   0 paths used
#  xsedge+ 50, used to normalize mu           2.4537E-04
#  -----------------------------------------------------------------------
#  omega    e    k    mu    mu0     chi     @#
    8984.277    -13.001  -1.000  2.88349E-02  5.43888E-02 -2.55539E-02
    8984.576    -12.702  -0.960  2.99262E-02  5.83135E-02 -2.83873E-02
    8984.863    -12.416  -0.920  3.10742E-02  6.26700E-02 -3.15958E-02
    8985.137    -12.141  -0.880  3.22853E-02  6.75214E-02 -3.52361E-02
    8985.399    -11.879  -0.840  3.35675E-02  7.29409E-02 -3.93734E-02
    8985.649    -11.629  -0.800  3.49303E-02  7.90133E-02 -4.40830E-02
    8985.887    -11.392  -0.760  3.63849E-02  8.58357E-02 -4.94508E-02
    8986.112    -11.166  -0.720  3.79446E-02  9.35177E-02 -5.55731E-02
    8986.326    -10.953  -0.680  3.96247E-02  1.02180E-01 -6.25553E-02
    8986.527    -10.752  -0.640  4.14415E-02  1.11950E-01 -7.05081E-02
    8986.716    -10.563  -0.600  4.34114E-02  1.22951E-01 -7.95399E-02
    8986.893    -10.386  -0.560  4.55482E-02  1.35291E-01 -8.97430E-02
    8987.057    -10.221  -0.520  4.78589E-02  1.49032E-01 -1.01173E-01
    8987.210    -10.069  -0.480  5.03380E-02  1.64158E-01 -1.13820E-01
    8987.350     -9.929  -0.440  5.29612E-02  1.80537E-01 -1.27576E-01
    8987.478     -9.801  -0.400  5.56797E-02  1.97887E-01 -1.42207E-01
    8987.594     -9.685  -0.360  5.84195E-02  2.15762E-01 -1.57342E-01
    8987.697     -9.581  -0.320  6.10886E-02  2.33584E-01 -1.72495E-01
    8987.789     -9.490  -0.280  6.35904E-02  2.50712E-01 -1.87122E-01
    8987.868     -9.410  -0.240  6.58401E-02  2.66528E-01 -2.00688E-01
    8987.935     -9.343  -0.200  6.77771E-02  2.80511E-01 -2.12734E-01
    8987.990     -9.289  -0.160  6.93678E-02  2.92280E-01 -2.22912E-01
    8988.033     -9.246  -0.120  7.06008E-02  3.01588E-01 -2.30988E-01
    8988.063     -9.215  -0.080  7.14780E-02  3.08298E-01 -2.36820E-01
    8988.087     -9.191   0.000  7.21865E-02  3.13690E-01 -2.41504E-01
    8988.142     -9.136   0.120  7.38553E-02  3.25861E-01 -2.52006E-01
    8988.185     -9.093   0.160  7.50417E-02  3.35318E-01 -2.60277E-01
    8988.240     -9.039   0.200  7.64884E-02  3.47428E-01 -2.70940E-01
    8988.307     -8.972   0.240  7.80937E-02  3.61998E-01 -2.83904E-01
    8988.386     -8.892   0.280  7.97420E-02  3.78753E-01 -2.99011E-01
    8988.478     -8.801   0.320  8.13715E-02  3.97309E-01 -3.15938E-01
    8988.581     -8.697   0.360  8.28267E-02  4.17142E-01 -3.34315E-01
    8988.697     -8.581   0.400  8.40800E-02  4.37710E-01 -3.53630E-01
    8988.825     -8.453   0.440  8.51087E-02  4.58479E-01 -3.73371E-01
    8988.965     -8.313   0.480  8.60085E-02  4.79088E-01 -3.93080E-01
    8989.118     -8.161   0.520  8.69224E-02  4.99292E-01 -4.12370E-01
    8989.282     -7.996   0.560  8.79574E-02  5.18917E-01 -4.30959E-01
    8989.459     -7.819   0.600  8.92659E-02  5.37968E-01 -4.48702E-01
    8989.648     -7.630   0.640  9.09815E-02  5.56478E-01 -4.65497E-01
    8989.849     -7.429   0.680  9.31527E-02  5.74512E-01 -4.81359E-01
    8990.062     -7.216   0.720  9.58335E-02  5.92126E-01 -4.96293E-01
    8990.288     -6.990   0.760  9.91594E-02  6.09437E-01 -5.10278E-01
    8990.526     -6.753   0.800  1.03173E-01  6.26470E-01 -5.23297E-01
    8990.776     -6.503   0.840  1.08054E-01  6.43298E-01 -5.35244E-01
    8991.038     -6.241   0.880  1.14011E-01  6.59961E-01 -5.45950E-01
    8991.312     -5.966   0.920  1.21310E-01  6.76444E-01 -5.55134E-01
    8991.599     -5.680   0.960  1.30361E-01  6.92802E-01 -5.62441E-01
    8991.897     -5.381   1.000  1.41582E-01  7.08998E-01 -5.67416E-01
    8992.208     -5.070   1.040  1.55417E-01  7.25029E-01 -5.69612E-01
    8992.531     -4.747   1.080  1.72377E-01  7.40882E-01 -5.68505E-01
    8992.867     -4.412   1.120  1.92880E-01  7.56519E-01 -5.63639E-01
    8993.214     -4.064   1.160  2.17714E-01  7.71920E-01 -5.54206E-01
    8993.574     -3.705   1.200  2.48432E-01  7.87058E-01 -5.38626E-01
    8993.946     -3.333   1.240  2.85903E-01  8.01884E-01 -5.15982E-01
    8994.330     -2.949   1.280  3.28716E-01  8.16370E-01 -4.87654E-01
    8994.726     -2.553   1.320  3.74636E-01  8.30505E-01 -4.55868E-01
    8995.134     -2.144   1.360  4.23596E-01  8.44215E-01 -4.20619E-01
    8995.555     -1.723   1.400  4.75494E-01  8.57491E-01 -3.81996E-01
    8995.988     -1.291   1.440  5.26204E-01  8.70302E-01 -3.44098E-01
    8996.433     -0.846   1.480  5.71732E-01  8.82638E-01 -3.10906E-01
    8996.890     -0.388   1.520  6.11938E-01  8.94449E-01 -2.82511E-01
    8997.359      0.081   1.560  6.51885E-01  9.05706E-01 -2.53821E-01
    8997.841      0.563   1.600  6.96004E-01  9.16427E-01 -2.20423E-01
    8998.335      1.056   1.640  7.51359E-01  9.26584E-01 -1.75225E-01
    8998.841      1.562   1.680  8.33637E-01  9.36154E-01 -1.02517E-01
    8999.359      2.080   1.720  9.52789E-01  9.45158E-01  7.63062E-03
    8999.889      2.611   1.760  1.10198E+00  9.53575E-01  1.48408E-01
    9000.432      3.153   1.800  1.26025E+00  9.61405E-01  2.98844E-01
    9000.986      3.708   1.840  1.41397E+00  9.68655E-01  4.45317E-01
    9001.553      4.275   1.880  1.57453E+00  9.75349E-01  5.99179E-01
    9002.132      4.854   1.920  1.74334E+00  9.81494E-01  7.61849E-01
    9002.724      5.445   1.960  1.87532E+00  9.87095E-01  8.88226E-01
    9003.327      6.049   2.000  1.93375E+00  9.92162E-01  9.41586E-01
    9003.943      6.665   2.040  1.93853E+00  9.96726E-01  9.41801E-01
    9004.571      7.292   2.080  1.88704E+00  1.00079E+00  8.86248E-01
    9005.211      7.933   2.120  1.77360E+00  1.00440E+00  7.69203E-01
    9005.863      8.585   2.160  1.61637E+00  1.00755E+00  6.08823E-01
    9006.528      9.249   2.200  1.45263E+00  1.01028E+00  4.42346E-01
    9007.204      9.926   2.240  1.31081E+00  1.01261E+00  2.98203E-01
    9007.893     10.615   2.280  1.19553E+00  1.01456E+00  1.80974E-01
    9008.594     11.316   2.320  1.10356E+00  1.01616E+00  8.73981E-02
    9009.307     12.029   2.360  1.03098E+00  1.01744E+00  1.35411E-02
    9010.033     12.754   2.400  9.74216E-01  1.01839E+00 -4.41793E-02
    9010.770     13.492   2.440  9.30441E-01  1.01906E+00 -8.86223E-02
    9011.520     14.242   2.480  8.96627E-01  1.01948E+00 -1.22849E-01
    9012.282     15.004   2.520  8.68714E-01  1.01967E+00 -1.50954E-01
    9013.056     15.778   2.560  8.56339E-01  1.01963E+00 -1.63287E-01
    9013.843     16.564   2.600  8.68352E-01  1.01938E+00 -1.51031E-01
    9014.641     17.363   2.640  8.93958E-01  1.01899E+00 -1.25034E-01
    9015.452     18.174   2.680  9.25535E-01  1.01844E+00 -9.29043E-02
    9016.275     18.997   2.720  9.57852E-01  1.01773E+00 -5.98819E-02
    9017.110     19.832   2.760  9.87224E-01  1.01691E+00 -2.96823E-02
    9017.958     20.679   2.800  1.01122E+00  1.01601E+00 -4.78628E-03
    9018.817     21.539   2.840  1.02677E+00  1.01500E+00  1.17720E-02
    9019.689     22.411   2.880  1.03123E+00  1.01392E+00  1.73130E-02
    9020.573     23.294   2.920  1.02297E+00  1.01279E+00  1.01779E-02
    9021.469     24.191   2.960  1.00258E+00  1.01163E+00 -9.05516E-03
    9022.377     25.099   3.000  9.74058E-01  1.01042E+00 -3.63640E-02
    9023.298     26.019   3.040  9.42278E-01  1.00920E+00 -6.69194E-02
    9024.230     26.952   3.080  9.11322E-01  1.00797E+00 -9.66475E-02
    9025.175     27.897   3.120  8.83768E-01  1.00674E+00 -1.22975E-01
    9026.132     28.854   3.160  8.60532E-01  1.00554E+00 -1.45008E-01
    9027.102     29.823   3.200  8.41678E-01  1.00432E+00 -1.62646E-01
    9028.083     30.805   3.240  8.27811E-01  1.00316E+00 -1.75350E-01
    9029.077     31.798   3.280  8.18766E-01  1.00201E+00 -1.83249E-01
    9030.083     32.804   3.320  8.14485E-01  1.00093E+00 -1.86445E-01
    9031.101     33.822   3.360  8.14798E-01  9.99885E-01 -1.85087E-01
    9032.131     34.852   3.400  8.19180E-01  9.98864E-01 -1.79684E-01
    9033.173     35.895   3.440  8.27030E-01  9.97931E-01 -1.70902E-01
    9034.228     36.949   3.480  8.37838E-01  9.97027E-01 -1.59188E-01
    9035.295     38.016   3.520  8.51333E-01  9.96214E-01 -1.44881E-01
    9036.374     39.095   3.560  8.66754E-01  9.95453E-01 -1.28699E-01
    9037.465     40.186   3.600  8.83523E-01  9.94743E-01 -1.11220E-01
    9038.568     41.290   3.640  9.01157E-01  9.94129E-01 -9.29726E-02
    9039.684     42.405   3.680  9.19075E-01  9.93569E-01 -7.44940E-02
    9040.811     43.533   3.720  9.36930E-01  9.93062E-01 -5.61325E-02
    9041.951     44.673   3.760  9.54865E-01  9.92650E-01 -3.77851E-02
    9043.104     45.825   3.800  9.73188E-01  9.92294E-01 -1.91062E-02
    9044.268     46.989   3.840  9.92278E-01  9.92013E-01  2.65590E-04
    9045.444     48.166   3.880  1.01233E+00  9.91806E-01  2.05246E-02
    9046.633     49.355   3.920  1.03310E+00  9.91653E-01  4.14517E-02
    9047.834     50.556   3.960  1.05385E+00  9.91573E-01  6.22768E-02
    9049.047     51.769   4.000  1.07378E+00  9.91567E-01  8.22088E-02
    9050.272     52.994   4.040  1.09212E+00  9.91611E-01  1.00507E-01
    9051.510     54.231   4.080  1.10835E+00  9.91728E-01  1.16622E-01
    9052.760     55.481   4.120  1.12198E+00  9.91915E-01  1.30066E-01
    9054.021     56.743   4.160  1.13255E+00  9.92127E-01  1.40424E-01
    9055.295     58.017   4.200  1.13983E+00  9.92404E-01  1.47422E-01
    9056.582     59.303   4.240  1.14372E+00  9.92727E-01  1.50989E-01
    9057.880     60.602   4.280  1.14444E+00  9.93114E-01  1.51326E-01
    9059.191     61.912   4.320  1.14213E+00  9.93522E-01  1.48610E-01
    9060.514     63.235   4.360  1.13689E+00  9.93989E-01  1.42900E-01
    9061.849     64.570   4.400  1.12865E+00  9.94473E-01  1.34181E-01
    9063.196     65.917   4.440  1.11732E+00  9.94993E-01  1.22328E-01
    9064.555     67.277   4.480  1.10270E+00  9.95546E-01  1.07158E-01
    9065.927     68.648   4.520  1.08488E+00  9.96110E-01  8.87731E-02
    9067.311     70.032   4.560  1.06458E+00  9.96705E-01  6.78778E-02
    9068.707     71.428   4.600  1.04293E+00  9.97328E-01  4.56057E-02
    9070.115     72.836   4.640  1.02114E+00  9.97936E-01  2.32050E-02
    9071.535     74.257   4.680  1.00033E+00  9.98568E-01  1.76352E-03
    9072.968     75.689   4.720  9.81330E-01  9.99202E-01 -1.78713E-02
    9074.412     77.134   4.760  9.64870E-01  9.99835E-01 -3.49657E-02
    9075.869     78.591   4.800  9.51557E-01  1.00047E+00 -4.89110E-02
    9077.339     80.060   4.840  9.41825E-01  1.00110E+00 -5.92714E-02
    9078.820     81.541   4.880  9.35956E-01  1.00172E+00 -6.57631E-02
    9080.313     83.035   4.920  9.34021E-01  1.00231E+00 -6.82913E-02
    9081.819     84.541   4.960  9.35909E-01  1.00290E+00 -6.69867E-02
    9083.337     86.059   5.000  9.41291E-01  1.00345E+00 -6.21541E-02
    9084.867     87.589   5.040  9.49648E-01  1.00396E+00 -5.43121E-02
    9086.409     89.131   5.080  9.60192E-01  1.00446E+00 -4.42693E-02
    9087.964     90.685   5.120  9.71529E-01  1.00493E+00 -3.33975E-02
    9089.530     92.252   5.160  9.81905E-01  1.00538E+00 -2.34732E-02
    9091.109     93.831   5.200  9.89744E-01  1.00577E+00 -1.60246E-02
    9092.700     95.422   5.240  9.94374E-01  1.00614E+00 -1.17658E-02
    9094.304     97.025   5.280  9.95977E-01  1.00645E+00 -1.04719E-02
    9095.919     98.641   5.320  9.95454E-01  1.00674E+00 -1.12849E-02
    9097.547    100.268   5.360  9.94077E-01  1.00699E+00 -1.29105E-02
    9099.187    101.908   5.400  9.93139E-01  1.00717E+00 -1.40281E-02
    9100.839    103.560   5.440  9.93472E-01  1.00730E+00 -1.38319E-02
    9102.503    105.224   5.480  9.95003E-01  1.00740E+00 -1.23938E-02
    9104.179    106.901   5.520  9.96996E-01  1.00745E+00 -1.04513E-02
    9105.868    108.589   5.560  9.98335E-01  1.00745E+00 -9.11977E-03
    9107.568    110.290   5.600  9.97778E-01  1.00742E+00 -9.63954E-03
    9109.281    112.003   5.640  9.94254E-01  1.00731E+00 -1.30582E-02
    9111.007    113.728   5.680  9.87473E-01  1.00716E+00 -1.96895E-02
    9112.744    115.466   5.720  9.78047E-01  1.00697E+00 -2.89238E-02
    9114.493    117.215   5.760  9.67239E-01  1.00674E+00 -3.94981E-02
    9116.255    118.977   5.800  9.56390E-01  1.00646E+00 -5.00737E-02
    9118.029    120.751   5.840  9.46568E-01  1.00615E+00 -5.95840E-02
    9119.815    122.537   5.880  9.38473E-01  1.00580E+00 -6.73295E-02
    9121.614    124.335   5.920  9.32647E-01  1.00542E+00 -7.27702E-02
    9123.424    126.146   5.960  9.29799E-01  1.00499E+00 -7.51942E-02
    9125.247    127.968   6.000  9.31360E-01  1.00447E+00 -7.31125E-02
