# # comment:                                                     FEFF 9.9.1  
# # Source:
# # Structure
# # Reduced
# # space
# # abc:
# # angles:
# # sites:
# # POT  SCF 100  7.0000   0, screened core-hole, AFOLP (folp(0)= 1.150)
# # Abs   Z=29 Rmt= 1.206 Rnm= 1.282 K  shell
# # Pot 1 Z= 3 Rmt= 1.238 Rnm= 1.290
# # Pot 2 Z=27 Rmt= 1.184 Rnm= 1.304
# # Pot 3 Z=29 Rmt= 1.200 Rnm= 1.287
# # Pot 4 Z= 8 Rmt= 1.044 Rnm= 1.106
# # Gam_ch=1.729E+00 H-L exch Vi= 0.000E+00 Vr= 0.000E+00
# # Mu=-1.047E+01eV kf=2.116E+00 Vint=-1.808E+01eV Rs_int= 1.714
# FMS rfms= 9.0000
# # PATH  Rmax=-1.000,  Keep_limit= 0.00, Heap_limit 0.00  Pwcrit= 2.50%
#  S02=0.950  Temp=   0.00  Debye_temp=   0.00  Global_sig2= 0.00000
#  Energy zero shift, vr, vi    0.00000E+00   0.00000E+00
#  Curved wave amplitude ratio filter   4.000%
#     file         sig2 tot  cw amp ratio   deg  nlegs   reff  inp sig2
#     0/   0 paths used
#  xsedge+ 50, used to normalize mu           2.4662E-04
#  -----------------------------------------------------------------------
#  omega    e    k    mu    mu0     chi     @#
    8984.873    -14.279  -1.000  3.00037E-02  5.02207E-02 -2.02170E-02
    8985.172    -13.981  -0.960  3.12437E-02  5.37474E-02 -2.25037E-02
    8985.459    -13.694  -0.920  3.25558E-02  5.76553E-02 -2.50995E-02
    8985.733    -13.420  -0.880  3.39479E-02  6.19995E-02 -2.80516E-02
    8985.995    -13.158  -0.840  3.54293E-02  6.68441E-02 -3.14148E-02
    8986.245    -12.908  -0.800  3.70108E-02  7.22632E-02 -3.52523E-02
    8986.483    -12.670  -0.760  3.87051E-02  7.83415E-02 -3.96363E-02
    8986.708    -12.444  -0.720  4.05266E-02  8.51747E-02 -4.46481E-02
    8986.922    -12.231  -0.680  4.24915E-02  9.28682E-02 -5.03767E-02
    8987.123    -12.030  -0.640  4.46170E-02  1.01533E-01 -5.69157E-02
    8987.312    -11.841  -0.600  4.69198E-02  1.11277E-01 -6.43568E-02
    8987.488    -11.664  -0.560  4.94142E-02  1.22192E-01 -7.27781E-02
    8987.653    -11.500  -0.520  5.21078E-02  1.34334E-01 -8.22260E-02
    8987.805    -11.347  -0.480  5.49965E-02  1.47687E-01 -9.26905E-02
    8987.946    -11.207  -0.440  5.80584E-02  1.62135E-01 -1.04077E-01
    8988.074    -11.079  -0.400  6.12485E-02  1.77430E-01 -1.16181E-01
    8988.190    -10.963  -0.360  6.44963E-02  1.93181E-01 -1.28685E-01
    8988.293    -10.859  -0.320  6.77100E-02  2.08883E-01 -1.41173E-01
    8988.385    -10.768  -0.280  7.07861E-02  2.23972E-01 -1.53186E-01
    8988.464    -10.689  -0.240  7.36232E-02  2.37906E-01 -1.64282E-01
    8988.531    -10.622  -0.200  7.61343E-02  2.50228E-01 -1.74093E-01
    8988.586    -10.567  -0.160  7.82533E-02  2.60601E-01 -1.82348E-01
    8988.628    -10.524  -0.120  7.99359E-02  2.68808E-01 -1.88872E-01
    8988.659    -10.494  -0.080  8.11567E-02  2.74725E-01 -1.93569E-01
    8988.683    -10.469   0.000  8.21608E-02  2.79483E-01 -1.97322E-01
    8988.738    -10.414   0.120  8.45049E-02  2.90217E-01 -2.05712E-01
    8988.781    -10.372   0.160  8.62540E-02  2.98572E-01 -2.12318E-01
    8988.836    -10.317   0.200  8.84375E-02  3.09259E-01 -2.20821E-01
    8988.903    -10.250   0.240  9.09674E-02  3.22129E-01 -2.31162E-01
    8988.982    -10.171   0.280  9.37988E-02  3.36969E-01 -2.43170E-01
    8989.073    -10.079   0.320  9.67645E-02  3.53428E-01 -2.56663E-01
    8989.177     -9.976   0.360  9.96863E-02  3.71049E-01 -2.71363E-01
    8989.293     -9.860   0.400  1.02343E-01  3.89349E-01 -2.87005E-01
    8989.421     -9.732   0.440  1.04638E-01  4.07920E-01 -3.03282E-01
    8989.561     -9.592   0.480  1.06509E-01  4.26412E-01 -3.19903E-01
    8989.714     -9.439   0.520  1.08099E-01  4.44617E-01 -3.36518E-01
    8989.878     -9.275   0.560  1.09654E-01  4.62417E-01 -3.52763E-01
    8990.055     -9.098   0.600  1.11413E-01  4.79801E-01 -3.68388E-01
    8990.244     -8.909   0.640  1.13372E-01  4.96799E-01 -3.83426E-01
    8990.445     -8.708   0.680  1.15337E-01  5.13484E-01 -3.98146E-01
    8990.658     -8.494   0.720  1.17147E-01  5.29904E-01 -4.12757E-01
    8990.884     -8.269   0.760  1.19162E-01  5.46144E-01 -4.26982E-01
    8991.122     -8.031   0.800  1.22043E-01  5.62258E-01 -4.40215E-01
    8991.372     -7.781   0.840  1.26465E-01  5.78293E-01 -4.51828E-01
    8991.634     -7.519   0.880  1.33023E-01  5.94280E-01 -4.61257E-01
    8991.908     -7.245   0.920  1.42284E-01  6.10242E-01 -4.67958E-01
    8992.195     -6.958   0.960  1.54993E-01  6.26189E-01 -4.71196E-01
    8992.493     -6.659   1.000  1.72289E-01  6.42123E-01 -4.69834E-01
    8992.804     -6.348   1.040  1.95782E-01  6.58035E-01 -4.62253E-01
    8993.127     -6.025   1.080  2.27531E-01  6.73873E-01 -4.46342E-01
    8993.463     -5.690   1.120  2.69952E-01  6.89659E-01 -4.19707E-01
    8993.810     -5.343   1.160  3.24296E-01  7.05350E-01 -3.81054E-01
    8994.170     -4.983   1.200  3.86809E-01  7.20898E-01 -3.34089E-01
    8994.542     -4.611   1.240  4.47086E-01  7.36296E-01 -2.89210E-01
    8994.926     -4.227   1.280  4.99931E-01  7.51490E-01 -2.51559E-01
    8995.322     -3.831   1.320  5.51121E-01  7.66450E-01 -2.15329E-01
    8995.730     -3.422   1.360  6.04536E-01  7.81139E-01 -1.76603E-01
    8996.151     -3.002   1.400  6.55440E-01  7.95525E-01 -1.40085E-01
    8996.584     -2.569   1.440  6.88742E-01  8.09554E-01 -1.20812E-01
    8997.029     -2.124   1.480  6.95516E-01  8.23212E-01 -1.27696E-01
    8997.486     -1.667   1.520  6.90108E-01  8.36488E-01 -1.46380E-01
    8997.955     -1.197   1.560  6.92442E-01  8.49306E-01 -1.56863E-01
    8998.437     -0.716   1.600  7.11927E-01  8.61677E-01 -1.49749E-01
    8998.931     -0.222   1.640  7.47019E-01  8.73552E-01 -1.26534E-01
    8999.437      0.284   1.680  7.88999E-01  8.84944E-01 -9.59451E-02
    8999.955      0.802   1.720  8.45871E-01  8.95824E-01 -4.99537E-02
    9000.485      1.332   1.760  9.39359E-01  9.06169E-01  3.31906E-02
    9001.028      1.875   1.800  1.05899E+00  9.15973E-01  1.43018E-01
    9001.582      2.430   1.840  1.18518E+00  9.25256E-01  2.59927E-01
    9002.149      2.997   1.880  1.32284E+00  9.33975E-01  3.88866E-01
    9002.728      3.576   1.920  1.47000E+00  9.42154E-01  5.27841E-01
    9003.320      4.167   1.960  1.59666E+00  9.49794E-01  6.46862E-01
    9003.923      4.771   2.000  1.67279E+00  9.56917E-01  7.15875E-01
    9004.539      5.386   2.040  1.68699E+00  9.63490E-01  7.23505E-01
    9005.167      6.014   2.080  1.64076E+00  9.69558E-01  6.71202E-01
    9005.807      6.654   2.120  1.55153E+00  9.75127E-01  5.76401E-01
    9006.459      7.307   2.160  1.43820E+00  9.80206E-01  4.57999E-01
    9007.124      7.971   2.200  1.31757E+00  9.84824E-01  3.32751E-01
    9007.800      8.648   2.240  1.20801E+00  9.88968E-01  2.19038E-01
    9008.489      9.336   2.280  1.11146E+00  9.92689E-01  1.18769E-01
    9009.190     10.038   2.320  1.02534E+00  9.95997E-01  2.93397E-02
    9009.903     10.751   2.360  9.54808E-01  9.98924E-01 -4.41152E-02
    9010.629     11.476   2.400  9.03909E-01  1.00146E+00 -9.75489E-02
    9011.366     12.214   2.440  8.69451E-01  1.00363E+00 -1.34177E-01
    9012.116     12.964   2.480  8.45433E-01  1.00549E+00 -1.60057E-01
    9012.878     13.726   2.520  8.35993E-01  1.00703E+00 -1.71039E-01
    9013.652     14.500   2.560  8.49740E-01  1.00828E+00 -1.58545E-01
    9014.439     15.286   2.600  8.74114E-01  1.00926E+00 -1.35144E-01
    9015.237     16.085   2.640  9.02417E-01  1.01001E+00 -1.07588E-01
    9016.048     16.895   2.680  9.30907E-01  1.01049E+00 -7.95867E-02
    9016.871     17.718   2.720  9.57347E-01  1.01079E+00 -5.34474E-02
    9017.706     18.554   2.760  9.80272E-01  1.01090E+00 -3.06238E-02
    9018.554     19.401   2.800  9.98960E-01  1.01083E+00 -1.18699E-02
    9019.413     20.260   2.840  1.01294E+00  1.01060E+00  2.33646E-03
    9020.285     21.132   2.880  1.02253E+00  1.01024E+00  1.22874E-02
    9021.169     22.016   2.920  1.02833E+00  1.00974E+00  1.85868E-02
    9022.065     22.912   2.960  1.03082E+00  1.00916E+00  2.16565E-02
    9022.973     23.821   3.000  1.02979E+00  1.00848E+00  2.13118E-02
    9023.894     24.741   3.040  1.02440E+00  1.00771E+00  1.66857E-02
    9024.826     25.674   3.080  1.01361E+00  1.00687E+00  6.74233E-03
    9025.771     26.619   3.120  9.97130E-01  1.00598E+00 -8.84466E-03
    9026.728     27.576   3.160  9.75765E-01  1.00506E+00 -2.92977E-02
    9027.698     28.545   3.200  9.51332E-01  1.00409E+00 -5.27612E-02
    9028.679     29.526   3.240  9.26782E-01  1.00311E+00 -7.63287E-02
    9029.673     30.520   3.280  9.04860E-01  1.00212E+00 -9.72621E-02
    9030.678     31.526   3.320  8.87475E-01  1.00113E+00 -1.13656E-01
    9031.696     32.544   3.360  8.75505E-01  1.00014E+00 -1.24636E-01
    9032.727     33.574   3.400  8.69137E-01  9.99154E-01 -1.30017E-01
    9033.769     34.616   3.440  8.67657E-01  9.98196E-01 -1.30539E-01
    9034.824     35.671   3.480  8.70418E-01  9.97249E-01 -1.26831E-01
    9035.891     36.738   3.520  8.76920E-01  9.96335E-01 -1.19415E-01
    9036.970     37.817   3.560  8.86775E-01  9.95457E-01 -1.08682E-01
    9038.061     38.908   3.600  8.99582E-01  9.94619E-01 -9.50369E-02
    9039.164     40.011   3.640  9.14727E-01  9.93822E-01 -7.90951E-02
    9040.280     41.127   3.680  9.31180E-01  9.93067E-01 -6.18870E-02
    9041.407     42.255   3.720  9.47750E-01  9.92376E-01 -4.46265E-02
    9042.547     43.395   3.760  9.63582E-01  9.91711E-01 -2.81290E-02
    9043.699     44.547   3.800  9.78329E-01  9.91132E-01 -1.28030E-02
    9044.864     45.711   3.840  9.91792E-01  9.90579E-01  1.21363E-03
    9046.040     46.888   3.880  1.00429E+00  9.90093E-01  1.41988E-02
    9047.229     48.076   3.920  1.01640E+00  9.89655E-01  2.67413E-02
    9048.430     49.277   3.960  1.02874E+00  9.89285E-01  3.94582E-02
    9049.643     50.490   4.000  1.04149E+00  9.88962E-01  5.25254E-02
    9050.868     51.716   4.040  1.05402E+00  9.88686E-01  6.53296E-02
    9052.106     52.953   4.080  1.06502E+00  9.88480E-01  7.65398E-02
    9053.355     54.203   4.120  1.07296E+00  9.88342E-01  8.46146E-02
    9054.617     55.465   4.160  1.07677E+00  9.88228E-01  8.85405E-02
    9055.891     56.739   4.200  1.07620E+00  9.88182E-01  8.80158E-02
    9057.178     58.025   4.240  1.07151E+00  9.88203E-01  8.33055E-02
    9058.476     59.323   4.280  1.06330E+00  9.88247E-01  7.50524E-02
    9059.787     60.634   4.320  1.05259E+00  9.88355E-01  6.42381E-02
    9061.110     61.957   4.360  1.04057E+00  9.88506E-01  5.20598E-02
    9062.445     63.292   4.400  1.02842E+00  9.88698E-01  3.97272E-02
    9063.792     64.639   4.440  1.01727E+00  9.88928E-01  2.83435E-02
    9065.151     65.999   4.480  1.00782E+00  9.89197E-01  1.86239E-02
    9066.523     67.370   4.520  1.00039E+00  9.89502E-01  1.08854E-02
    9067.907     68.754   4.560  9.94932E-01  9.89819E-01  5.11284E-03
    9069.303     70.150   4.600  9.91310E-01  9.90172E-01  1.13777E-03
    9070.711     71.558   4.640  9.89366E-01  9.90560E-01 -1.19406E-03
    9072.131     72.978   4.680  9.88973E-01  9.90981E-01 -2.00818E-03
    9073.564     74.411   4.720  9.89869E-01  9.91409E-01 -1.53936E-03
    9075.008     75.856   4.760  9.91745E-01  9.91843E-01 -9.74019E-05
    9076.465     77.313   4.800  9.94456E-01  9.92304E-01  2.15218E-03
    9077.934     78.782   4.840  9.97994E-01  9.92770E-01  5.22433E-03
    9079.416     80.263   4.880  1.00235E+00  9.93239E-01  9.10656E-03
    9080.909     81.757   4.920  1.00737E+00  9.93730E-01  1.36439E-02
    9082.415     83.262   4.960  1.01286E+00  9.94199E-01  1.86647E-02
    9083.933     84.780   5.000  1.01881E+00  9.94663E-01  2.41427E-02
    9085.463     86.310   5.040  1.02511E+00  9.95124E-01  2.99900E-02
    9087.005     87.853   5.080  1.03112E+00  9.95581E-01  3.55376E-02
    9088.560     89.407   5.120  1.03537E+00  9.96008E-01  3.93662E-02
    9090.126     90.974   5.160  1.03628E+00  9.96429E-01  3.98477E-02
    9091.705     92.553   5.200  1.03299E+00  9.96842E-01  3.61499E-02
    9093.296     94.144   5.240  1.02591E+00  9.97224E-01  2.86909E-02
    9094.900     95.747   5.280  1.01624E+00  9.97594E-01  1.86497E-02
    9096.515     97.362   5.320  1.00520E+00  9.97931E-01  7.27111E-03
    9098.143     98.990   5.360  9.93821E-01  9.98232E-01 -4.41071E-03
    9099.782    100.630   5.400  9.82949E-01  9.98519E-01 -1.55697E-02
    9101.434    102.282   5.440  9.73221E-01  9.98770E-01 -2.55494E-02
    9103.099    103.946   5.480  9.65043E-01  9.98984E-01 -3.39408E-02
    9104.775    105.622   5.520  9.58465E-01  9.99159E-01 -4.06936E-02
    9106.464    107.311   5.560  9.53198E-01  9.99296E-01 -4.60981E-02
    9108.164    109.012   5.600  9.48867E-01  9.99419E-01 -5.05518E-02
    9109.877    110.725   5.640  9.45052E-01  9.99501E-01 -5.44491E-02
    9111.603    112.450   5.680  9.41297E-01  9.99522E-01 -5.82242E-02
    9113.340    114.187   5.720  9.37256E-01  9.99525E-01 -6.22686E-02
    9115.089    115.937   5.760  9.32941E-01  9.99488E-01 -6.65474E-02
    9116.851    117.699   5.800  9.28945E-01  9.99389E-01 -7.04443E-02
    9118.625    119.472   5.840  9.26226E-01  9.99274E-01 -7.30479E-02
    9120.411    121.259   5.880  9.25566E-01  9.99123E-01 -7.35568E-02
    9122.210    123.057   5.920  9.27494E-01  9.98936E-01 -7.14419E-02
    9124.020    124.867   5.960  9.32354E-01  9.98709E-01 -6.63548E-02
    9125.843    126.690   6.000  9.40853E-01  9.98420E-01 -5.75663E-02
