# # comment:                                                     FEFF 9.9.1  
# # Source:
# # Structure
# # Reduced
# # space
# # abc:
# # angles:
# # sites:
# # POT  SCF 100  7.0000   0, screened core-hole, AFOLP (folp(0)= 1.150)
# # Abs   Z=29 Rmt= 1.291 Rnm= 1.363 K  shell
# # Pot 1 Z=29 Rmt= 1.263 Rnm= 1.348
# # Pot 2 Z=34 Rmt= 1.100 Rnm= 1.328
# # Pot 3 Z= 8 Rmt= 0.937 Rnm= 1.079
# # Gam_ch=1.729E+00 H-L exch Vi= 0.000E+00 Vr= 0.000E+00
# # Mu=-5.329E+00eV kf=2.286E+00 Vint=-1.519E+01eV Rs_int= 1.586
# FMS rfms= 9.0000
# # PATH  Rmax=-1.000,  Keep_limit= 0.00, Heap_limit 0.00  Pwcrit= 2.50%
#  S02=0.950  Temp=   0.00  Debye_temp=   0.00  Global_sig2= 0.00000
#  Energy zero shift, vr, vi    0.00000E+00   0.00000E+00
#  Curved wave amplitude ratio filter   4.000%
#     file         sig2 tot  cw amp ratio   deg  nlegs   reff  inp sig2
#     0/   0 paths used
#  xsedge+ 50, used to normalize mu           2.4577E-04
#  -----------------------------------------------------------------------
#  omega    e    k    mu    mu0     chi     @#
    8983.290     -9.139  -1.000  4.34656E-02  5.65826E-02 -1.31171E-02
    8983.588     -8.840  -0.960  4.59733E-02  6.07948E-02 -1.48215E-02
    8983.875     -8.553  -0.920  4.86971E-02  6.54847E-02 -1.67877E-02
    8984.149     -8.279  -0.880  5.16635E-02  7.07237E-02 -1.90602E-02
    8984.411     -8.017  -0.840  5.49030E-02  7.65946E-02 -2.16916E-02
    8984.661     -7.767  -0.800  5.84504E-02  8.31938E-02 -2.47434E-02
    8984.899     -7.529  -0.760  6.23448E-02  9.06318E-02 -2.82869E-02
    8985.124     -7.304  -0.720  6.66301E-02  9.90336E-02 -3.24036E-02
    8985.338     -7.090  -0.680  7.13534E-02  1.08537E-01 -3.71839E-02
    8985.539     -6.889  -0.640  7.65637E-02  1.19288E-01 -4.27246E-02
    8985.728     -6.700  -0.600  8.23079E-02  1.31430E-01 -4.91223E-02
    8985.905     -6.523  -0.560  8.86243E-02  1.45086E-01 -5.64614E-02
    8986.069     -6.359  -0.520  9.55327E-02  1.60328E-01 -6.47956E-02
    8986.222     -6.206  -0.480  1.03021E-01  1.77143E-01 -7.41224E-02
    8986.362     -6.066  -0.440  1.11030E-01  1.95383E-01 -8.43530E-02
    8986.490     -5.938  -0.400  1.19439E-01  2.14727E-01 -9.52879E-02
    8986.606     -5.822  -0.360  1.28061E-01  2.34671E-01 -1.06611E-01
    8986.709     -5.719  -0.320  1.36652E-01  2.54563E-01 -1.17911E-01
    8986.801     -5.627  -0.280  1.44936E-01  2.73675E-01 -1.28739E-01
    8986.880     -5.548  -0.240  1.52636E-01  2.91312E-01 -1.38676E-01
    8986.947     -5.481  -0.200  1.59505E-01  3.06891E-01 -1.47386E-01
    8987.002     -5.426  -0.160  1.65346E-01  3.19989E-01 -1.54643E-01
    8987.045     -5.383  -0.120  1.70018E-01  3.30336E-01 -1.60319E-01
    8987.075     -5.353  -0.080  1.73424E-01  3.37787E-01 -1.64363E-01
    8987.100     -5.329   0.000  1.76214E-01  3.43770E-01 -1.67556E-01
    8987.154     -5.274   0.120  1.82434E-01  3.57260E-01 -1.74826E-01
    8987.197     -5.231   0.160  1.87287E-01  3.67733E-01 -1.80446E-01
    8987.252     -5.176   0.200  1.93545E-01  3.81082E-01 -1.87537E-01
    8987.319     -5.109   0.240  2.01181E-01  3.97112E-01 -1.95931E-01
    8987.398     -5.030   0.280  2.10145E-01  4.15485E-01 -2.05340E-01
    8987.490     -4.938   0.320  2.20320E-01  4.35711E-01 -2.15391E-01
    8987.593     -4.835   0.360  2.31482E-01  4.57161E-01 -2.25679E-01
    8987.709     -4.719   0.400  2.43375E-01  4.79213E-01 -2.35838E-01
    8987.837     -4.591   0.440  2.55618E-01  5.01215E-01 -2.45596E-01
    8987.977     -4.451   0.480  2.67911E-01  5.22732E-01 -2.54821E-01
    8988.130     -4.298   0.520  2.80062E-01  5.43477E-01 -2.63414E-01
    8988.294     -4.134   0.560  2.92051E-01  5.63275E-01 -2.71224E-01
    8988.471     -3.957   0.600  3.04256E-01  5.82131E-01 -2.77875E-01
    8988.660     -3.768   0.640  3.17229E-01  6.00070E-01 -2.82841E-01
    8988.861     -3.567   0.680  3.31647E-01  6.17199E-01 -2.85552E-01
    8989.075     -3.353   0.720  3.48148E-01  6.33598E-01 -2.85450E-01
    8989.300     -3.128   0.760  3.67395E-01  6.49389E-01 -2.81994E-01
    8989.538     -2.890   0.800  3.89942E-01  6.64683E-01 -2.74742E-01
    8989.788     -2.640   0.840  4.15926E-01  6.79536E-01 -2.63610E-01
    8990.050     -2.378   0.880  4.44520E-01  6.94010E-01 -2.49490E-01
    8990.324     -2.104   0.920  4.73510E-01  7.08152E-01 -2.34642E-01
    8990.611     -1.817   0.960  4.99666E-01  7.22017E-01 -2.22351E-01
    8990.910     -1.519   1.000  5.20490E-01  7.35605E-01 -2.15115E-01
    8991.220     -1.208   1.040  5.36485E-01  7.48930E-01 -2.12445E-01
    8991.544     -0.885   1.080  5.51137E-01  7.62017E-01 -2.10880E-01
    8991.879     -0.549   1.120  5.67982E-01  7.74865E-01 -2.06883E-01
    8992.226     -0.202   1.160  5.88471E-01  7.87422E-01 -1.98951E-01
    8992.586      0.158   1.200  6.13113E-01  7.99738E-01 -1.86625E-01
    8992.958      0.530   1.240  6.42457E-01  8.11759E-01 -1.69302E-01
    8993.342      0.914   1.280  6.76759E-01  8.23486E-01 -1.46727E-01
    8993.738      1.310   1.320  7.16268E-01  8.34878E-01 -1.18610E-01
    8994.147      1.718   1.360  7.60957E-01  8.45975E-01 -8.50179E-02
    8994.567      2.139   1.400  8.07415E-01  8.56694E-01 -4.92784E-02
    8995.000      2.572   1.440  8.53717E-01  8.67072E-01 -1.33541E-02
    8995.445      3.017   1.480  9.06456E-01  8.77065E-01  2.93907E-02
    8995.902      3.474   1.520  9.71813E-01  8.86674E-01  8.51395E-02
    8996.372      3.943   1.560  1.04435E+00  8.95874E-01  1.48474E-01
    8996.853      4.425   1.600  1.11358E+00  9.04683E-01  2.08896E-01
    8997.347      4.919   1.640  1.17505E+00  9.13061E-01  2.61987E-01
    8997.853      5.425   1.680  1.22613E+00  9.21007E-01  3.05124E-01
    8998.371      5.943   1.720  1.25852E+00  9.28562E-01  3.29963E-01
    8998.901      6.473   1.760  1.27181E+00  9.35665E-01  3.36146E-01
    8999.444      7.016   1.800  1.28015E+00  9.42340E-01  3.37815E-01
    8999.999      7.571   1.840  1.29415E+00  9.48611E-01  3.45542E-01
    9000.566      8.137   1.880  1.31334E+00  9.54460E-01  3.58883E-01
    9001.145      8.717   1.920  1.33467E+00  9.59911E-01  3.74763E-01
    9001.736      9.308   1.960  1.35466E+00  9.64950E-01  3.89715E-01
    9002.340      9.911   2.000  1.36582E+00  9.69603E-01  3.96217E-01
    9002.955     10.527   2.040  1.35774E+00  9.73876E-01  3.83868E-01
    9003.583     11.155   2.080  1.32559E+00  9.77776E-01  3.47812E-01
    9004.223     11.795   2.120  1.27779E+00  9.81329E-01  2.96465E-01
    9004.875     12.447   2.160  1.22820E+00  9.84545E-01  2.43660E-01
    9005.540     13.112   2.200  1.18511E+00  9.87430E-01  1.97675E-01
    9006.217     13.788   2.240  1.15036E+00  9.89992E-01  1.60367E-01
    9006.905     14.477   2.280  1.12144E+00  9.92281E-01  1.29161E-01
    9007.606     15.178   2.320  1.09353E+00  9.94285E-01  9.92452E-02
    9008.320     15.892   2.360  1.06540E+00  9.96034E-01  6.93634E-02
    9009.045     16.617   2.400  1.03883E+00  9.97533E-01  4.12953E-02
    9009.783     17.355   2.440  1.01248E+00  9.98792E-01  1.36883E-02
    9010.533     18.104   2.480  9.84094E-01  9.99840E-01 -1.57463E-02
    9011.295     18.866   2.520  9.55328E-01  1.00071E+00 -4.53805E-02
    9012.069     19.641   2.560  9.31072E-01  1.00140E+00 -7.03292E-02
    9012.855     20.427   2.600  9.14168E-01  1.00191E+00 -8.77386E-02
    9013.654     21.225   2.640  9.02153E-01  1.00227E+00 -1.00121E-01
    9014.464     22.036   2.680  8.92599E-01  1.00251E+00 -1.09911E-01
    9015.287     22.859   2.720  8.88390E-01  1.00260E+00 -1.14211E-01
    9016.123     23.694   2.760  8.87175E-01  1.00262E+00 -1.15441E-01
    9016.970     24.542   2.800  8.86551E-01  1.00252E+00 -1.15968E-01
    9017.829     25.401   2.840  8.85068E-01  1.00232E+00 -1.17249E-01
    9018.701     26.273   2.880  8.82598E-01  1.00208E+00 -1.19480E-01
    9019.585     27.157   2.920  8.79707E-01  1.00177E+00 -1.22058E-01
    9020.481     28.053   2.960  8.77211E-01  1.00138E+00 -1.24173E-01
    9021.389     28.961   3.000  8.75627E-01  1.00098E+00 -1.25355E-01
    9022.310     29.882   3.040  8.75171E-01  1.00054E+00 -1.25369E-01
    9023.243     30.814   3.080  8.76222E-01  1.00006E+00 -1.23843E-01
    9024.188     31.759   3.120  8.79216E-01  9.99580E-01 -1.20365E-01
    9025.145     32.716   3.160  8.84073E-01  9.99091E-01 -1.15019E-01
    9026.114     33.686   3.200  8.90780E-01  9.98601E-01 -1.07820E-01
    9027.095     34.667   3.240  8.99109E-01  9.98132E-01 -9.90223E-02
    9028.089     35.661   3.280  9.08567E-01  9.97646E-01 -8.90784E-02
    9029.095     36.667   3.320  9.18799E-01  9.97186E-01 -7.83865E-02
    9030.113     37.685   3.360  9.29411E-01  9.96734E-01 -6.73225E-02
    9031.143     38.715   3.400  9.40068E-01  9.96314E-01 -5.62464E-02
    9032.185     39.757   3.440  9.50464E-01  9.95929E-01 -4.54651E-02
    9033.240     40.812   3.480  9.60591E-01  9.95578E-01 -3.49873E-02
    9034.307     41.879   3.520  9.70561E-01  9.95243E-01 -2.46820E-02
    9035.386     42.958   3.560  9.80619E-01  9.94965E-01 -1.43462E-02
    9036.477     44.049   3.600  9.90932E-01  9.94704E-01 -3.77256E-03
    9037.580     45.152   3.640  1.00157E+00  9.94483E-01  7.08513E-03
    9038.696     46.268   3.680  1.01233E+00  9.94322E-01  1.80086E-02
    9039.824     47.396   3.720  1.02278E+00  9.94181E-01  2.86027E-02
    9040.964     48.535   3.760  1.03257E+00  9.94101E-01  3.84735E-02
    9042.116     49.688   3.800  1.04128E+00  9.94039E-01  4.72365E-02
    9043.280     50.852   3.840  1.04869E+00  9.94038E-01  5.46489E-02
    9044.457     52.028   3.880  1.05477E+00  9.94056E-01  6.07096E-02
    9045.645     53.217   3.920  1.05966E+00  9.94134E-01  6.55229E-02
    9046.846     54.418   3.960  1.06338E+00  9.94253E-01  6.91223E-02
    9048.059     55.631   4.000  1.06587E+00  9.94389E-01  7.14826E-02
    9049.285     56.856   4.040  1.06709E+00  9.94583E-01  7.25073E-02
    9050.522     58.094   4.080  1.06687E+00  9.94792E-01  7.20746E-02
    9051.772     59.344   4.120  1.06523E+00  9.95037E-01  7.01950E-02
    9053.034     60.605   4.160  1.06248E+00  9.95318E-01  6.71596E-02
    9054.308     61.880   4.200  1.05896E+00  9.95633E-01  6.33308E-02
    9055.594     63.166   4.240  1.05497E+00  9.95960E-01  5.90125E-02
    9056.892     64.464   4.280  1.05068E+00  9.96319E-01  5.43556E-02
    9058.203     65.775   4.320  1.04604E+00  9.96710E-01  4.93312E-02
    9059.526     67.098   4.360  1.04095E+00  9.97108E-01  4.38426E-02
    9060.861     68.433   4.400  1.03538E+00  9.97513E-01  3.78696E-02
    9062.208     69.780   4.440  1.02949E+00  9.97943E-01  3.15505E-02
    9063.567     71.139   4.480  1.02344E+00  9.98378E-01  2.50630E-02
    9064.939     72.511   4.520  1.01743E+00  9.98814E-01  1.86131E-02
    9066.323     73.895   4.560  1.01163E+00  9.99251E-01  1.23824E-02
    9067.719     75.291   4.600  1.00618E+00  9.99689E-01  6.49575E-03
    9069.127     76.699   4.640  1.00123E+00  1.00015E+00  1.08051E-03
    9070.547     78.119   4.680  9.96877E-01  1.00058E+00 -3.70620E-03
    9071.980     79.552   4.720  9.93265E-01  1.00101E+00 -7.74854E-03
    9073.425     80.997   4.760  9.90412E-01  1.00144E+00 -1.10272E-02
    9074.882     82.453   4.800  9.88172E-01  1.00184E+00 -1.36635E-02
    9076.351     83.923   4.840  9.86352E-01  1.00225E+00 -1.58951E-02
    9077.832     85.404   4.880  9.84634E-01  1.00261E+00 -1.79733E-02
    9079.326     86.897   4.920  9.82873E-01  1.00298E+00 -2.01048E-02
    9080.831     88.403   4.960  9.80908E-01  1.00329E+00 -2.23858E-02
    9082.349     89.921   5.000  9.78902E-01  1.00362E+00 -2.47187E-02
    9083.879     91.451   5.040  9.77062E-01  1.00389E+00 -2.68294E-02
    9085.422     92.993   5.080  9.75791E-01  1.00415E+00 -2.83563E-02
    9086.976     94.548   5.120  9.75314E-01  1.00437E+00 -2.90538E-02
    9088.543     96.115   5.160  9.75582E-01  1.00457E+00 -2.89920E-02
    9090.122     97.693   5.200  9.76227E-01  1.00472E+00 -2.84941E-02
    9091.713     99.284   5.240  9.76868E-01  1.00485E+00 -2.79833E-02
    9093.316    100.888   5.280  9.77190E-01  1.00494E+00 -2.77539E-02
    9094.931    102.503   5.320  9.77082E-01  1.00500E+00 -2.79150E-02
    9096.559    104.131   5.360  9.76568E-01  1.00501E+00 -2.84443E-02
    9098.199    105.771   5.400  9.75681E-01  1.00501E+00 -2.93306E-02
    9099.851    107.423   5.440  9.74349E-01  1.00495E+00 -3.06009E-02
    9101.515    109.087   5.480  9.72637E-01  1.00487E+00 -3.22337E-02
    9103.191    110.763   5.520  9.70750E-01  1.00475E+00 -3.40017E-02
    9104.880    112.452   5.560  9.69156E-01  1.00457E+00 -3.54145E-02
    9106.581    114.153   5.600  9.68589E-01  1.00437E+00 -3.57851E-02
    9108.294    115.865   5.640  9.69721E-01  1.00414E+00 -3.44205E-02
    9110.019    117.591   5.680  9.72988E-01  1.00389E+00 -3.09053E-02
    9111.756    119.328   5.720  9.78256E-01  1.00359E+00 -2.53306E-02
    9113.506    121.078   5.760  9.85015E-01  1.00327E+00 -1.82521E-02
    9115.267    122.839   5.800  9.92521E-01  1.00291E+00 -1.03904E-02
    9117.041    124.613   5.840  1.00018E+00  1.00252E+00 -2.33727E-03
    9118.828    126.399   5.880  1.00759E+00  1.00210E+00  5.49659E-03
    9120.626    128.198   5.920  1.01439E+00  1.00167E+00  1.27257E-02
    9122.436    130.008   5.960  1.02003E+00  1.00121E+00  1.88118E-02
    9124.259    131.831   6.000  1.02391E+00  1.00074E+00  2.31707E-02
