# # comment:                                                     FEFF 9.9.1  
# # Source:
# # Structure
# # Reduced
# # space
# # abc:
# # angles:
# # sites:
# # POT  SCF 100  7.0000   0, screened core-hole, AFOLP (folp(0)= 1.150)
# # Abs   Z=29 Rmt= 1.237 Rnm= 1.300 K  shell
# # Pot 1 Z=56 Rmt= 1.917 Rnm= 1.971
# # Pot 2 Z=71 Rmt= 1.536 Rnm= 1.611
# # Pot 3 Z=29 Rmt= 1.237 Rnm= 1.300
# # Pot 4 Z= 8 Rmt= 1.049 Rnm= 1.102
# # Gam_ch=1.729E+00 H-L exch Vi= 0.000E+00 Vr= 0.000E+00
# # Mu=-7.684E+00eV kf=2.032E+00 Vint=-1.808E+01eV Rs_int= 1.785
# FMS rfms= 9.0000
# # PATH  Rmax=-1.000,  Keep_limit= 0.00, Heap_limit 0.00  Pwcrit= 2.50%
#  S02=0.950  Temp=   0.00  Debye_temp=   0.00  Global_sig2= 0.00000
#  Energy zero shift, vr, vi    0.00000E+00   0.00000E+00
#  Curved wave amplitude ratio filter   4.000%
#     file         sig2 tot  cw amp ratio   deg  nlegs   reff  inp sig2
#     0/   0 paths used
#  xsedge+ 50, used to normalize mu           2.4411E-04
#  -----------------------------------------------------------------------
#  omega    e    k    mu    mu0     chi     @#
    8985.200    -11.494  -1.000  4.76817E-02  6.04226E-02 -1.27410E-02
    8985.499    -11.195  -0.960  5.06149E-02  6.50163E-02 -1.44014E-02
    8985.785    -10.908  -0.920  5.38263E-02  7.01385E-02 -1.63122E-02
    8986.059    -10.634  -0.880  5.73543E-02  7.58687E-02 -1.85144E-02
    8986.322    -10.372  -0.840  6.12431E-02  8.22994E-02 -2.10563E-02
    8986.571    -10.122  -0.800  6.55445E-02  8.95380E-02 -2.39936E-02
    8986.809     -9.884  -0.760  7.03175E-02  9.77081E-02 -2.73906E-02
    8987.035     -9.659  -0.720  7.56294E-02  1.06949E-01 -3.13200E-02
    8987.248     -9.445  -0.680  8.15539E-02  1.17416E-01 -3.58623E-02
    8987.449     -9.244  -0.640  8.81690E-02  1.29272E-01 -4.11026E-02
    8987.638     -9.055  -0.600  9.55509E-02  1.42676E-01 -4.71252E-02
    8987.815     -8.879  -0.560  1.03764E-01  1.57768E-01 -5.40039E-02
    8987.980     -8.714  -0.520  1.12844E-01  1.74629E-01 -6.17856E-02
    8988.132     -8.562  -0.480  1.22776E-01  1.93245E-01 -7.04696E-02
    8988.272     -8.421  -0.440  1.33470E-01  2.13452E-01 -7.99819E-02
    8988.400     -8.293  -0.400  1.44738E-01  2.34892E-01 -9.01545E-02
    8988.516     -8.177  -0.360  1.56289E-01  2.57006E-01 -1.00717E-01
    8988.620     -8.074  -0.320  1.67748E-01  2.79064E-01 -1.11316E-01
    8988.711     -7.982  -0.280  1.78706E-01  3.00258E-01 -1.21552E-01
    8988.790     -7.903  -0.240  1.88774E-01  3.19811E-01 -1.31038E-01
    8988.857     -7.836  -0.200  1.97633E-01  3.37079E-01 -1.39446E-01
    8988.912     -7.781  -0.160  2.05059E-01  3.51592E-01 -1.46534E-01
    8988.955     -7.739  -0.120  2.10913E-01  3.63054E-01 -1.52141E-01
    8988.985     -7.708  -0.080  2.15121E-01  3.71305E-01 -1.56183E-01
    8989.010     -7.684   0.000  2.18490E-01  3.77928E-01 -1.59438E-01
    8989.065     -7.629   0.120  2.25976E-01  3.92859E-01 -1.66883E-01
    8989.107     -7.586   0.160  2.31802E-01  4.04441E-01 -1.72639E-01
    8989.162     -7.531   0.200  2.39226E-01  4.19200E-01 -1.79974E-01
    8989.229     -7.464   0.240  2.48127E-01  4.36893E-01 -1.88767E-01
    8989.309     -7.385   0.280  2.58392E-01  4.57177E-01 -1.98785E-01
    8989.400     -7.294   0.320  2.69738E-01  4.79431E-01 -2.09693E-01
    8989.504     -7.190   0.360  2.81942E-01  5.02987E-01 -2.21045E-01
    8989.619     -7.074   0.400  2.94756E-01  5.27117E-01 -2.32361E-01
    8989.747     -6.946   0.440  3.07964E-01  5.51114E-01 -2.43150E-01
    8989.888     -6.806   0.480  3.21397E-01  5.74461E-01 -2.53064E-01
    8990.040     -6.654   0.520  3.34969E-01  5.96832E-01 -2.61863E-01
    8990.205     -6.489   0.560  3.48657E-01  6.18055E-01 -2.69398E-01
    8990.381     -6.312   0.600  3.62483E-01  6.38093E-01 -2.75610E-01
    8990.570     -6.123   0.640  3.76453E-01  6.56998E-01 -2.80545E-01
    8990.772     -5.922   0.680  3.90349E-01  6.74890E-01 -2.84541E-01
    8990.985     -5.709   0.720  4.03735E-01  6.91864E-01 -2.88129E-01
    8991.210     -5.483   0.760  4.16504E-01  7.08060E-01 -2.91556E-01
    8991.448     -5.245   0.800  4.29121E-01  7.23583E-01 -2.94462E-01
    8991.698     -4.995   0.840  4.42663E-01  7.38501E-01 -2.95838E-01
    8991.960     -4.733   0.880  4.58706E-01  7.52930E-01 -2.94224E-01
    8992.235     -4.459   0.920  4.78757E-01  7.66886E-01 -2.88129E-01
    8992.521     -4.172   0.960  5.03143E-01  7.80434E-01 -2.77291E-01
    8992.820     -3.874   1.000  5.29768E-01  7.93603E-01 -2.63835E-01
    8993.131     -3.563   1.040  5.55207E-01  8.06390E-01 -2.51183E-01
    8993.454     -3.240   1.080  5.77761E-01  8.18848E-01 -2.41088E-01
    8993.789     -2.904   1.120  5.99433E-01  8.30939E-01 -2.31505E-01
    8994.137     -2.557   1.160  6.24380E-01  8.42680E-01 -2.18300E-01
    8994.496     -2.197   1.200  6.53459E-01  8.54085E-01 -2.00625E-01
    8994.868     -1.825   1.240  6.80782E-01  8.65099E-01 -1.84317E-01
    8995.252     -1.441   1.280  6.99388E-01  8.75752E-01 -1.76364E-01
    8995.648     -1.045   1.320  7.12944E-01  8.86026E-01 -1.73082E-01
    8996.057     -0.637   1.360  7.37217E-01  8.95903E-01 -1.58687E-01
    8996.477     -0.216   1.400  7.80549E-01  9.05386E-01 -1.24838E-01
    8996.910      0.217   1.440  8.40111E-01  9.14455E-01 -7.43442E-02
    8997.355      0.662   1.480  9.25093E-01  9.23091E-01  2.00261E-03
    8997.812      1.119   1.520  1.04980E+00  9.31293E-01  1.18505E-01
    8998.282      1.588   1.560  1.20887E+00  9.39064E-01  2.69802E-01
    8998.763      2.070   1.600  1.37475E+00  9.46406E-01  4.28341E-01
    8999.257      2.564   1.640  1.51838E+00  9.53299E-01  5.65077E-01
    8999.763      3.070   1.680  1.61617E+00  9.59768E-01  6.56403E-01
    9000.281      3.588   1.720  1.64560E+00  9.65775E-01  6.79825E-01
    9000.812      4.118   1.760  1.61874E+00  9.71365E-01  6.47373E-01
    9001.354      4.661   1.800  1.58337E+00  9.76543E-01  6.06830E-01
    9001.909      5.215   1.840  1.55629E+00  9.81295E-01  5.74994E-01
    9002.476      5.782   1.880  1.51897E+00  9.85626E-01  5.33346E-01
    9003.055      6.361   1.920  1.46347E+00  9.89584E-01  4.73886E-01
    9003.646      6.953   1.960  1.39226E+00  9.93158E-01  3.99105E-01
    9004.250      7.556   2.000  1.31034E+00  9.96352E-01  3.13984E-01
    9004.865      8.172   2.040  1.22606E+00  9.99176E-01  2.26887E-01
    9005.493      8.800   2.080  1.15096E+00  1.00168E+00  1.49276E-01
    9006.133      9.440   2.120  1.09571E+00  1.00387E+00  9.18374E-02
    9006.786     10.092   2.160  1.05958E+00  1.00574E+00  5.38382E-02
    9007.450     10.757   2.200  1.03440E+00  1.00734E+00  2.70598E-02
    9008.127     11.433   2.240  1.01573E+00  1.00865E+00  7.07634E-03
    9008.816     12.122   2.280  9.99171E-01  1.00970E+00 -1.05332E-02
    9009.517     12.823   2.320  9.79715E-01  1.01051E+00 -3.07995E-02
    9010.230     13.536   2.360  9.57642E-01  1.01113E+00 -5.34872E-02
    9010.955     14.262   2.400  9.40601E-01  1.01154E+00 -7.09360E-02
    9011.693     14.999   2.440  9.36561E-01  1.01174E+00 -7.51833E-02
    9012.443     15.749   2.480  9.44480E-01  1.01178E+00 -6.73021E-02
    9013.205     16.511   2.520  9.51424E-01  1.01168E+00 -6.02572E-02
    9013.979     17.285   2.560  9.53675E-01  1.01145E+00 -5.77726E-02
    9014.765     18.072   2.600  9.52021E-01  1.01109E+00 -5.90679E-02
    9015.564     18.870   2.640  9.48021E-01  1.01061E+00 -6.25921E-02
    9016.375     19.681   2.680  9.42573E-01  1.01007E+00 -6.74941E-02
    9017.198     20.504   2.720  9.36136E-01  1.00942E+00 -7.32830E-02
    9018.033     21.339   2.760  9.29010E-01  1.00871E+00 -7.97044E-02
    9018.880     22.187   2.800  9.21686E-01  1.00796E+00 -8.62746E-02
    9019.740     23.046   2.840  9.15186E-01  1.00716E+00 -9.19770E-02
    9020.611     23.918   2.880  9.10186E-01  1.00633E+00 -9.61396E-02
    9021.495     24.802   2.920  9.06767E-01  1.00545E+00 -9.86877E-02
    9022.391     25.698   2.960  9.04768E-01  1.00460E+00 -9.98288E-02
    9023.300     26.606   3.000  9.03517E-01  1.00371E+00 -1.00198E-01
    9024.220     27.527   3.040  9.02422E-01  1.00286E+00 -1.00434E-01
    9025.153     28.459   3.080  9.01114E-01  1.00200E+00 -1.00884E-01
    9026.098     29.404   3.120  8.99826E-01  1.00115E+00 -1.01323E-01
    9027.055     30.361   3.160  8.98704E-01  1.00033E+00 -1.01630E-01
    9028.024     31.331   3.200  8.98234E-01  9.99553E-01 -1.01319E-01
    9029.006     32.312   3.240  8.98976E-01  9.98809E-01 -9.98338E-02
    9029.999     33.306   3.280  9.01214E-01  9.98108E-01 -9.68941E-02
    9031.005     34.311   3.320  9.05047E-01  9.97470E-01 -9.24230E-02
    9032.023     35.329   3.360  9.10523E-01  9.96853E-01 -8.63304E-02
    9033.053     36.360   3.400  9.17720E-01  9.96303E-01 -7.85827E-02
    9034.096     37.402   3.440  9.26418E-01  9.95800E-01 -6.93820E-02
    9035.150     38.457   3.480  9.36519E-01  9.95367E-01 -5.88472E-02
    9036.217     39.524   3.520  9.47760E-01  9.94982E-01 -4.72223E-02
    9037.296     40.602   3.560  9.59833E-01  9.94668E-01 -3.48343E-02
    9038.387     41.694   3.600  9.72546E-01  9.94403E-01 -2.18572E-02
    9039.491     42.797   3.640  9.85913E-01  9.94208E-01 -8.29510E-03
    9040.606     43.913   3.680  1.00000E+00  9.94064E-01  5.93959E-03
    9041.734     45.040   3.720  1.01491E+00  9.93991E-01  2.09182E-02
    9042.874     46.180   3.760  1.03058E+00  9.93968E-01  3.66152E-02
    9044.026     47.332   3.800  1.04675E+00  9.94016E-01  5.27353E-02
    9045.190     48.497   3.840  1.06255E+00  9.94136E-01  6.84140E-02
    9046.367     49.673   3.880  1.07676E+00  9.94283E-01  8.24807E-02
    9047.556     50.862   3.920  1.08807E+00  9.94518E-01  9.35537E-02
    9048.756     52.063   3.960  1.09514E+00  9.94779E-01  1.00364E-01
    9049.970     53.276   4.000  1.09728E+00  9.95109E-01  1.02174E-01
    9051.195     54.501   4.040  1.09454E+00  9.95505E-01  9.90390E-02
    9052.432     55.739   4.080  1.08771E+00  9.95921E-01  9.17914E-02
    9053.682     56.988   4.120  1.07840E+00  9.96378E-01  8.20220E-02
    9054.944     58.250   4.160  1.06859E+00  9.96898E-01  7.16932E-02
    9056.218     59.524   4.200  1.05994E+00  9.97437E-01  6.25025E-02
    9057.504     60.811   4.240  1.05349E+00  9.98034E-01  5.54520E-02
    9058.803     62.109   4.280  1.04934E+00  9.98645E-01  5.06923E-02
    9060.113     63.420   4.320  1.04690E+00  9.99289E-01  4.76153E-02
    9061.436     64.743   4.360  1.04509E+00  9.99942E-01  4.51478E-02
    9062.771     66.078   4.400  1.04276E+00  1.00063E+00  4.21305E-02
    9064.118     67.425   4.440  1.03905E+00  1.00132E+00  3.77275E-02
    9065.478     68.784   4.480  1.03370E+00  1.00204E+00  3.16653E-02
    9066.849     70.156   4.520  1.02706E+00  1.00276E+00  2.43010E-02
    9068.233     71.540   4.560  1.01988E+00  1.00348E+00  1.63977E-02
    9069.629     72.936   4.600  1.01297E+00  1.00420E+00  8.76629E-03
    9071.037     74.344   4.640  1.00693E+00  1.00490E+00  2.02827E-03
    9072.458     75.764   4.680  1.00217E+00  1.00562E+00 -3.44803E-03
    9073.890     77.197   4.720  9.98743E-01  1.00633E+00 -7.58442E-03
    9075.335     78.641   4.760  9.96465E-01  1.00701E+00 -1.05436E-02
    9076.792     80.098   4.800  9.95051E-01  1.00768E+00 -1.26288E-02
    9078.261     81.567   4.840  9.94102E-01  1.00832E+00 -1.42160E-02
    9079.742     83.049   4.880  9.93227E-01  1.00892E+00 -1.56942E-02
    9081.236     84.542   4.920  9.91992E-01  1.00951E+00 -1.75176E-02
    9082.742     86.048   4.960  9.89850E-01  1.01006E+00 -2.02142E-02
    9084.259     87.566   5.000  9.86376E-01  1.01060E+00 -2.42271E-02
    9085.790     89.096   5.040  9.81366E-01  1.01108E+00 -2.97141E-02
    9087.332     90.638   5.080  9.75148E-01  1.01154E+00 -3.63882E-02
    9088.886     92.193   5.120  9.68411E-01  1.01193E+00 -4.35168E-02
    9090.453     93.759   5.160  9.62134E-01  1.01228E+00 -5.01438E-02
    9092.032     95.338   5.200  9.57362E-01  1.01261E+00 -5.52453E-02
    9093.623     96.929   5.240  9.54902E-01  1.01287E+00 -5.79679E-02
    9095.226     98.533   5.280  9.55337E-01  1.01309E+00 -5.77521E-02
    9096.842    100.148   5.320  9.58858E-01  1.01326E+00 -5.44039E-02
    9098.469    101.776   5.360  9.65253E-01  1.01337E+00 -4.81134E-02
    9100.109    103.415   5.400  9.73944E-01  1.01345E+00 -3.95043E-02
    9101.761    105.067   5.440  9.83868E-01  1.01346E+00 -2.95949E-02
    9103.425    106.732   5.480  9.93857E-01  1.01343E+00 -1.95761E-02
    9105.102    108.408   5.520  1.00288E+00  1.01336E+00 -1.04743E-02
    9106.790    110.097   5.560  1.01027E+00  1.01321E+00 -2.93565E-03
    9108.491    111.797   5.600  1.01579E+00  1.01302E+00  2.77752E-03
    9110.204    113.510   5.640  1.01930E+00  1.01278E+00  6.52095E-03
    9111.929    115.236   5.680  1.02067E+00  1.01251E+00  8.16833E-03
    9113.666    116.973   5.720  1.01976E+00  1.01219E+00  7.57749E-03
    9115.416    118.722   5.760  1.01664E+00  1.01183E+00  4.81390E-03
    9117.178    120.484   5.800  1.01181E+00  1.01140E+00  4.12298E-04
    9118.952    122.258   5.840  1.00639E+00  1.01096E+00 -4.57580E-03
    9120.738    124.044   5.880  1.00160E+00  1.01048E+00 -8.88544E-03
    9122.536    125.843   5.920  9.98484E-01  1.00995E+00 -1.14667E-02
    9124.347    127.653   5.960  9.97684E-01  1.00941E+00 -1.17252E-02
    9126.169    129.476   6.000  9.99451E-01  1.00881E+00 -9.35453E-03
