# # comment:                                                     FEFF 9.9.1  
# # Source:
# # Structure
# # Reduced
# # space
# # abc:
# # angles:
# # sites:
# # POT  SCF 100  7.0000   0, screened core-hole, AFOLP (folp(0)= 1.150)
# # Abs   Z=29 Rmt= 1.245 Rnm= 1.334 K  shell
# # Pot 1 Z= 3 Rmt= 1.280 Rnm= 1.372
# # Pot 2 Z=29 Rmt= 1.245 Rnm= 1.334
# # Pot 3 Z=14 Rmt= 1.006 Rnm= 1.218
# # Pot 4 Z= 8 Rmt= 0.961 Rnm= 1.077
# # Gam_ch=1.729E+00 H-L exch Vi= 0.000E+00 Vr= 0.000E+00
# # Mu=-7.927E+00eV kf=2.240E+00 Vint=-1.713E+01eV Rs_int= 1.619
# FMS rfms= 9.0000
# # PATH  Rmax=-1.000,  Keep_limit= 0.00, Heap_limit 0.00  Pwcrit= 2.50%
#  S02=0.950  Temp=   0.00  Debye_temp=   0.00  Global_sig2= 0.00000
#  Energy zero shift, vr, vi    0.00000E+00   0.00000E+00
#  Curved wave amplitude ratio filter   4.000%
#     file         sig2 tot  cw amp ratio   deg  nlegs   reff  inp sig2
#     0/   0 paths used
#  xsedge+ 50, used to normalize mu           2.4804E-04
#  -----------------------------------------------------------------------
#  omega    e    k    mu    mu0     chi     @#
    8983.605    -11.737  -1.000  3.55023E-02  5.12455E-02 -1.57431E-02
    8983.904    -11.439  -0.960  3.72150E-02  5.49095E-02 -1.76945E-02
    8984.190    -11.152  -0.920  3.90358E-02  5.89773E-02 -1.99414E-02
    8984.465    -10.878  -0.880  4.09732E-02  6.35082E-02 -2.25350E-02
    8984.727    -10.616  -0.840  4.30362E-02  6.85712E-02 -2.55350E-02
    8984.977    -10.366  -0.800  4.52342E-02  7.42461E-02 -2.90119E-02
    8985.215    -10.128  -0.760  4.75773E-02  8.06248E-02 -3.30475E-02
    8985.440     -9.902  -0.720  5.00756E-02  8.78107E-02 -3.77352E-02
    8985.654     -9.689  -0.680  5.27389E-02  9.59180E-02 -4.31792E-02
    8985.855     -9.488  -0.640  5.55759E-02  1.05067E-01 -4.94912E-02
    8986.044     -9.299  -0.600  5.85930E-02  1.15376E-01 -5.67829E-02
    8986.220     -9.122  -0.560  6.17925E-02  1.26946E-01 -6.51531E-02
    8986.385     -8.958  -0.520  6.51696E-02  1.39836E-01 -7.46661E-02
    8986.537     -8.805  -0.480  6.87094E-02  1.54033E-01 -8.53232E-02
    8986.678     -8.665  -0.440  7.23828E-02  1.69412E-01 -9.70290E-02
    8986.806     -8.537  -0.400  7.61433E-02  1.85706E-01 -1.09562E-01
    8986.921     -8.421  -0.360  7.99261E-02  2.02495E-01 -1.22569E-01
    8987.025     -8.317  -0.320  8.36495E-02  2.19233E-01 -1.35584E-01
    8987.117     -8.226  -0.280  8.72213E-02  2.35316E-01 -1.48095E-01
    8987.196     -8.147  -0.240  9.05463E-02  2.50161E-01 -1.59614E-01
    8987.263     -8.080  -0.200  9.35338E-02  2.63279E-01 -1.69745E-01
    8987.318     -8.025  -0.160  9.61025E-02  2.74314E-01 -1.78211E-01
    8987.360     -7.982  -0.120  9.81838E-02  2.83037E-01 -1.84854E-01
    8987.391     -7.952  -0.080  9.97225E-02  2.89322E-01 -1.89600E-01
    8987.415     -7.927   0.000  1.01010E-01  2.94372E-01 -1.93362E-01
    8987.470     -7.872   0.120  1.03985E-01  3.05765E-01 -2.01781E-01
    8987.513     -7.830   0.160  1.06282E-01  3.14597E-01 -2.08316E-01
    8987.568     -7.775   0.200  1.09321E-01  3.25909E-01 -2.16587E-01
    8987.635     -7.708   0.240  1.13118E-01  3.39507E-01 -2.26389E-01
    8987.714     -7.629   0.280  1.17761E-01  3.55123E-01 -2.37362E-01
    8987.805     -7.537   0.320  1.23327E-01  3.72360E-01 -2.49034E-01
    8987.909     -7.434   0.360  1.29962E-01  3.90728E-01 -2.60766E-01
    8988.025     -7.318   0.400  1.37783E-01  4.09685E-01 -2.71902E-01
    8988.153     -7.190   0.440  1.46994E-01  4.28772E-01 -2.81777E-01
    8988.293     -7.049   0.480  1.57760E-01  4.47603E-01 -2.89842E-01
    8988.445     -6.897   0.520  1.70222E-01  4.65924E-01 -2.95702E-01
    8988.610     -6.733   0.560  1.84532E-01  4.83648E-01 -2.99116E-01
    8988.787     -6.556   0.600  2.00670E-01  5.00726E-01 -3.00056E-01
    8988.976     -6.367   0.640  2.18566E-01  5.17233E-01 -2.98667E-01
    8989.177     -6.166   0.680  2.37821E-01  5.33218E-01 -2.95397E-01
    8989.390     -5.952   0.720  2.57736E-01  5.48801E-01 -2.91065E-01
    8989.616     -5.727   0.760  2.77485E-01  5.64021E-01 -2.86536E-01
    8989.854     -5.489   0.800  2.96997E-01  5.79012E-01 -2.82014E-01
    8990.104     -5.239   0.840  3.16910E-01  5.93810E-01 -2.76900E-01
    8990.366     -4.977   0.880  3.37891E-01  6.08443E-01 -2.70552E-01
    8990.640     -4.703   0.920  3.59975E-01  6.23005E-01 -2.63030E-01
    8990.927     -4.416   0.960  3.82391E-01  6.37479E-01 -2.55088E-01
    8991.225     -4.117   1.000  4.04084E-01  6.51876E-01 -2.47792E-01
    8991.536     -3.806   1.040  4.24349E-01  6.66243E-01 -2.41894E-01
    8991.859     -3.483   1.080  4.43291E-01  6.80537E-01 -2.37247E-01
    8992.194     -3.148   1.120  4.62539E-01  6.94788E-01 -2.32249E-01
    8992.542     -2.801   1.160  4.85233E-01  7.08942E-01 -2.23709E-01
    8992.902     -2.441   1.200  5.14820E-01  7.23001E-01 -2.08181E-01
    8993.273     -2.069   1.240  5.53413E-01  7.36944E-01 -1.83531E-01
    8993.658     -1.685   1.280  6.03670E-01  7.50766E-01 -1.47096E-01
    8994.054     -1.289   1.320  6.67362E-01  7.64403E-01 -9.70409E-02
    8994.462     -0.880   1.360  7.38615E-01  7.77865E-01 -3.92496E-02
    8994.883     -0.460   1.400  8.02081E-01  7.91084E-01  1.09971E-02
    8995.316     -0.027   1.440  8.41169E-01  8.04092E-01  3.70771E-02
    8995.761      0.418   1.480  8.56216E-01  8.16796E-01  3.94203E-02
    8996.218      0.875   1.520  8.65974E-01  8.29227E-01  3.67461E-02
    8996.687      1.345   1.560  8.85824E-01  8.41318E-01  4.45063E-02
    8997.169      1.826   1.600  9.18337E-01  8.53076E-01  6.52610E-02
    8997.663      2.320   1.640  9.58505E-01  8.64475E-01  9.40305E-02
    8998.169      2.826   1.680  9.88883E-01  8.75463E-01  1.13420E-01
    8998.687      3.344   1.720  9.97963E-01  8.86056E-01  1.11908E-01
    8999.217      3.874   1.760  9.99618E-01  8.96245E-01  1.03373E-01
    8999.760      4.417   1.800  1.00382E+00  9.05985E-01  9.78369E-02
    9000.314      4.972   1.840  1.00209E+00  9.15273E-01  8.68178E-02
    9000.881      5.539   1.880  9.93241E-01  9.24124E-01  6.91164E-02
    9001.460      6.118   1.920  9.98512E-01  9.32495E-01  6.60173E-02
    9002.052      6.709   1.960  1.03256E+00  9.40427E-01  9.21294E-02
    9002.655      7.313   2.000  1.08788E+00  9.47879E-01  1.39998E-01
    9003.271      7.928   2.040  1.14690E+00  9.54870E-01  1.92033E-01
    9003.899      8.556   2.080  1.19177E+00  9.61405E-01  2.30367E-01
    9004.539      9.196   2.120  1.21151E+00  9.67485E-01  2.44027E-01
    9005.191      9.849   2.160  1.21200E+00  9.73113E-01  2.38891E-01
    9005.856     10.513   2.200  1.20679E+00  9.78294E-01  2.28494E-01
    9006.532     11.190   2.240  1.20359E+00  9.83034E-01  2.20555E-01
    9007.221     11.879   2.280  1.20403E+00  9.87356E-01  2.16675E-01
    9007.922     12.580   2.320  1.20676E+00  9.91290E-01  2.15475E-01
    9008.635     13.293   2.360  1.20940E+00  9.94803E-01  2.14597E-01
    9009.361     14.018   2.400  1.20940E+00  9.97962E-01  2.11440E-01
    9010.098     14.756   2.440  1.20246E+00  1.00073E+00  2.01725E-01
    9010.848     15.506   2.480  1.18267E+00  1.00316E+00  1.79506E-01
    9011.610     16.268   2.520  1.15067E+00  1.00527E+00  1.45398E-01
    9012.384     17.042   2.560  1.11713E+00  1.00705E+00  1.10076E-01
    9013.171     17.828   2.600  1.08768E+00  1.00854E+00  7.91373E-02
    9013.969     18.627   2.640  1.05851E+00  1.00975E+00  4.87654E-02
    9014.780     19.438   2.680  1.02881E+00  1.01068E+00  1.81310E-02
    9015.603     20.260   2.720  9.99771E-01  1.01138E+00 -1.16090E-02
    9016.438     21.096   2.760  9.71382E-01  1.01185E+00 -4.04657E-02
    9017.286     21.943   2.800  9.45119E-01  1.01209E+00 -6.69671E-02
    9018.145     22.802   2.840  9.22086E-01  1.01214E+00 -9.00584E-02
    9019.017     23.674   2.880  9.03004E-01  1.01203E+00 -1.09028E-01
    9019.901     24.558   2.920  8.87974E-01  1.01176E+00 -1.23782E-01
    9020.797     25.454   2.960  8.77018E-01  1.01132E+00 -1.34305E-01
    9021.705     26.363   3.000  8.69997E-01  1.01074E+00 -1.40742E-01
    9022.626     27.283   3.040  8.66393E-01  1.01006E+00 -1.43664E-01
    9023.558     28.216   3.080  8.65688E-01  1.00928E+00 -1.43594E-01
    9024.503     29.161   3.120  8.67594E-01  1.00840E+00 -1.40804E-01
    9025.460     30.118   3.160  8.71665E-01  1.00743E+00 -1.35769E-01
    9026.429     31.087   3.200  8.77556E-01  1.00642E+00 -1.28860E-01
    9027.411     32.068   3.240  8.85144E-01  1.00535E+00 -1.20206E-01
    9028.405     33.062   3.280  8.94342E-01  1.00422E+00 -1.09877E-01
    9029.410     34.068   3.320  9.04906E-01  1.00307E+00 -9.81670E-02
    9030.428     35.086   3.360  9.16383E-01  1.00189E+00 -8.55098E-02
    9031.459     36.116   3.400  9.28197E-01  1.00070E+00 -7.25070E-02
    9032.501     37.159   3.440  9.39485E-01  9.99510E-01 -6.00251E-02
    9033.556     38.213   3.480  9.49591E-01  9.98296E-01 -4.87051E-02
    9034.622     39.280   3.520  9.58323E-01  9.97127E-01 -3.88044E-02
    9035.701     40.359   3.560  9.65667E-01  9.95945E-01 -3.02780E-02
    9036.793     41.450   3.600  9.71907E-01  9.94793E-01 -2.28853E-02
    9037.896     42.553   3.640  9.77370E-01  9.93675E-01 -1.63050E-02
    9039.012     43.669   3.680  9.82289E-01  9.92594E-01 -1.03045E-02
    9040.139     44.797   3.720  9.86782E-01  9.91552E-01 -4.77019E-03
    9041.279     45.937   3.760  9.90969E-01  9.90551E-01  4.18170E-04
    9042.431     47.089   3.800  9.95030E-01  9.89591E-01  5.43903E-03
    9043.596     48.253   3.840  9.99074E-01  9.88675E-01  1.03986E-02
    9044.772     49.430   3.880  1.00316E+00  9.87827E-01  1.53314E-02
    9045.961     50.618   3.920  1.00723E+00  9.87026E-01  2.02057E-02
    9047.162     51.819   3.960  1.01127E+00  9.86295E-01  2.49804E-02
    9048.375     53.032   4.000  1.01526E+00  9.85612E-01  2.96444E-02
    9049.600     54.258   4.040  1.01925E+00  9.84999E-01  3.42492E-02
    9050.838     55.495   4.080  1.02324E+00  9.84435E-01  3.88020E-02
    9052.087     56.745   4.120  1.02718E+00  9.83942E-01  4.32371E-02
    9053.349     58.007   4.160  1.03100E+00  9.83500E-01  4.75022E-02
    9054.623     59.281   4.200  1.03466E+00  9.83129E-01  5.15277E-02
    9055.910     60.567   4.240  1.03795E+00  9.82830E-01  5.51171E-02
    9057.208     61.865   4.280  1.04049E+00  9.82580E-01  5.79154E-02
    9058.519     63.176   4.320  1.04191E+00  9.82378E-01  5.95273E-02
    9059.842     64.499   4.360  1.04184E+00  9.82246E-01  5.95980E-02
    9061.177     65.834   4.400  1.04012E+00  9.82185E-01  5.79328E-02
    9062.524     67.181   4.440  1.03677E+00  9.82171E-01  5.46033E-02
    9063.883     68.541   4.480  1.03214E+00  9.82203E-01  4.99364E-02
    9065.255     69.912   4.520  1.02679E+00  9.82302E-01  4.44830E-02
    9066.639     71.296   4.560  1.02132E+00  9.82446E-01  3.88720E-02
    9068.035     72.692   4.600  1.01620E+00  9.82631E-01  3.35649E-02
    9069.443     74.100   4.640  1.01153E+00  9.82857E-01  2.86732E-02
    9070.863     75.520   4.680  1.00707E+00  9.83126E-01  2.39460E-02
    9072.296     76.953   4.720  1.00239E+00  9.83455E-01  1.89361E-02
    9073.740     78.398   4.760  9.97043E-01  9.83800E-01  1.32428E-02
    9075.197     79.855   4.800  9.90962E-01  9.84179E-01  6.78271E-03
    9076.666     81.324   4.840  9.84468E-01  9.84569E-01 -1.01172E-04
    9078.148     82.805   4.880  9.78263E-01  9.84993E-01 -6.73085E-03
    9079.641     84.299   4.920  9.73147E-01  9.85450E-01 -1.23032E-02
    9081.147     85.804   4.960  9.69744E-01  9.85938E-01 -1.61935E-02
    9082.665     87.322   5.000  9.68287E-01  9.86409E-01 -1.81219E-02
    9084.195     88.852   5.040  9.68645E-01  9.86905E-01 -1.82606E-02
    9085.737     90.395   5.080  9.70160E-01  9.87407E-01 -1.72470E-02
    9087.292     91.949   5.120  9.71928E-01  9.87931E-01 -1.60031E-02
    9088.858     93.516   5.160  9.72982E-01  9.88433E-01 -1.54503E-02
    9090.437     95.095   5.200  9.72849E-01  9.88932E-01 -1.60826E-02
    9092.028     96.686   5.240  9.71653E-01  9.89427E-01 -1.77738E-02
    9093.632     98.289   5.280  9.70058E-01  9.89917E-01 -1.98595E-02
    9095.247     99.904   5.320  9.68856E-01  9.90379E-01 -2.15232E-02
    9096.875    101.532   5.360  9.68592E-01  9.90833E-01 -2.22407E-02
    9098.514    103.172   5.400  9.69272E-01  9.91279E-01 -2.20070E-02
    9100.166    104.824   5.440  9.70407E-01  9.91692E-01 -2.12845E-02
    9101.831    106.488   5.480  9.71379E-01  9.92070E-01 -2.06907E-02
    9103.507    108.164   5.520  9.71811E-01  9.92435E-01 -2.06238E-02
    9105.196    109.853   5.560  9.71683E-01  9.92765E-01 -2.10814E-02
    9106.896    111.554   5.600  9.71262E-01  9.93056E-01 -2.17931E-02
    9108.609    113.267   5.640  9.70830E-01  9.93307E-01 -2.24770E-02
    9110.334    114.992   5.680  9.70541E-01  9.93519E-01 -2.29777E-02
    9112.072    116.729   5.720  9.70427E-01  9.93693E-01 -2.32664E-02
    9113.821    118.479   5.760  9.70514E-01  9.93851E-01 -2.33369E-02
    9115.583    120.241   5.800  9.70820E-01  9.93944E-01 -2.31240E-02
    9117.357    122.014   5.840  9.71482E-01  9.93995E-01 -2.25130E-02
    9119.143    123.801   5.880  9.72580E-01  9.94005E-01 -2.14255E-02
    9120.941    125.599   5.920  9.74058E-01  9.93974E-01 -1.99167E-02
    9122.752    127.409   5.960  9.75773E-01  9.93898E-01 -1.81251E-02
    9124.575    129.232   6.000  9.77734E-01  9.93753E-01 -1.60191E-02
