# # comment:                                                     FEFF 9.9.1  
# # Source:
# # Structure
# # Reduced
# # space
# # abc:
# # angles:
# # sites:
# # POT  SCF 100  7.0000   0, screened core-hole, AFOLP (folp(0)= 1.150)
# # Abs   Z=29 Rmt= 1.143 Rnm= 1.215 K  shell
# # Pot 1 Z=65 Rmt= 1.767 Rnm= 1.810
# # Pot 2 Z=29 Rmt= 1.143 Rnm= 1.215
# # Pot 3 Z= 8 Rmt= 1.051 Rnm= 1.096
# # Gam_ch=1.729E+00 H-L exch Vi= 0.000E+00 Vr= 0.000E+00
# # Mu=-7.031E+00eV kf=2.161E+00 Vint=-1.783E+01eV Rs_int= 1.678
# FMS rfms= 9.0000
# # PATH  Rmax=-1.000,  Keep_limit= 0.00, Heap_limit 0.00  Pwcrit= 2.50%
#  S02=0.950  Temp=   0.00  Debye_temp=   0.00  Global_sig2= 0.00000
#  Energy zero shift, vr, vi    0.00000E+00   0.00000E+00
#  Curved wave amplitude ratio filter   4.000%
#     file         sig2 tot  cw amp ratio   deg  nlegs   reff  inp sig2
#     0/   0 paths used
#  xsedge+ 50, used to normalize mu           2.4397E-04
#  -----------------------------------------------------------------------
#  omega    e    k    mu    mu0     chi     @#
    8984.525    -10.841  -1.000  3.05068E-02  5.95897E-02 -2.90829E-02
    8984.824    -10.542  -0.960  3.16945E-02  6.40989E-02 -3.24044E-02
    8985.110    -10.256  -0.920  3.29503E-02  6.91257E-02 -3.61754E-02
    8985.385     -9.981  -0.880  3.42832E-02  7.47479E-02 -4.04647E-02
    8985.647     -9.719  -0.840  3.57043E-02  8.10559E-02 -4.53517E-02
    8985.897     -9.469  -0.800  3.72269E-02  8.81550E-02 -5.09281E-02
    8986.134     -9.231  -0.760  3.88673E-02  9.61661E-02 -5.72988E-02
    8986.360     -9.006  -0.720  4.06445E-02  1.05226E-01 -6.45814E-02
    8986.573     -8.793  -0.680  4.25806E-02  1.15486E-01 -7.29050E-02
    8986.774     -8.591  -0.640  4.46993E-02  1.27105E-01 -8.24052E-02
    8986.963     -8.402  -0.600  4.70247E-02  1.40240E-01 -9.32154E-02
    8987.140     -8.226  -0.560  4.95770E-02  1.55027E-01 -1.05450E-01
    8987.305     -8.061  -0.520  5.23665E-02  1.71547E-01 -1.19180E-01
    8987.457     -7.909  -0.480  5.53845E-02  1.89784E-01 -1.34400E-01
    8987.597     -7.768  -0.440  5.85943E-02  2.09578E-01 -1.50983E-01
    8987.725     -7.640  -0.400  6.19232E-02  2.30579E-01 -1.68656E-01
    8987.841     -7.525  -0.360  6.52633E-02  2.52239E-01 -1.86976E-01
    8987.945     -7.421  -0.320  6.84841E-02  2.73843E-01 -2.05359E-01
    8988.036     -7.330  -0.280  7.14549E-02  2.94600E-01 -2.23145E-01
    8988.116     -7.250  -0.240  7.40701E-02  3.13750E-01 -2.39680E-01
    8988.183     -7.183  -0.200  7.62647E-02  3.30660E-01 -2.54396E-01
    8988.237     -7.128  -0.160  7.80154E-02  3.44873E-01 -2.66857E-01
    8988.280     -7.086  -0.120  7.93270E-02  3.56097E-01 -2.76770E-01
    8988.311     -7.055  -0.080  8.02165E-02  3.64176E-01 -2.83960E-01
    8988.335     -7.031   0.000  8.08503E-02  3.70663E-01 -2.89813E-01
    8988.390     -6.976   0.120  8.25711E-02  3.85280E-01 -3.02708E-01
    8988.433     -6.933   0.160  8.38618E-02  3.96622E-01 -3.12760E-01
    8988.487     -6.878   0.200  8.54122E-02  4.11067E-01 -3.25655E-01
    8988.554     -6.811   0.240  8.71566E-02  4.28414E-01 -3.41258E-01
    8988.634     -6.732   0.280  8.89575E-02  4.48267E-01 -3.59310E-01
    8988.725     -6.641   0.320  9.06599E-02  4.70057E-01 -3.79397E-01
    8988.829     -6.537   0.360  9.21778E-02  4.93129E-01 -4.00951E-01
    8988.945     -6.421   0.400  9.34290E-02  5.16727E-01 -4.23298E-01
    8989.073     -6.293   0.440  9.44741E-02  5.40240E-01 -4.45766E-01
    8989.213     -6.153   0.480  9.53401E-02  5.63104E-01 -4.67763E-01
    8989.365     -6.001   0.520  9.62030E-02  5.84996E-01 -4.88793E-01
    8989.530     -5.836   0.560  9.72317E-02  6.05790E-01 -5.08558E-01
    8989.707     -5.659   0.600  9.85418E-02  6.25410E-01 -5.26868E-01
    8989.896     -5.470   0.640  1.00277E-01  6.43949E-01 -5.43672E-01
    8990.097     -5.269   0.680  1.02455E-01  6.61504E-01 -5.59050E-01
    8990.310     -5.056   0.720  1.05023E-01  6.78191E-01 -5.73168E-01
    8990.536     -4.830   0.760  1.07816E-01  6.94127E-01 -5.86311E-01
    8990.773     -4.592   0.800  1.10722E-01  7.09418E-01 -5.98696E-01
    8991.023     -4.342   0.840  1.13665E-01  7.24150E-01 -6.10484E-01
    8991.285     -4.080   0.880  1.16772E-01  7.38418E-01 -6.21646E-01
    8991.560     -3.806   0.920  1.20296E-01  7.52281E-01 -6.31985E-01
    8991.846     -3.520   0.960  1.24438E-01  7.65759E-01 -6.41321E-01
    8992.145     -3.221   1.000  1.29332E-01  7.78903E-01 -6.49572E-01
    8992.456     -2.910   1.040  1.35306E-01  7.91734E-01 -6.56427E-01
    8992.779     -2.587   1.080  1.42877E-01  8.04240E-01 -6.61364E-01
    8993.114     -2.252   1.120  1.52632E-01  8.16467E-01 -6.63834E-01
    8993.462     -1.904   1.160  1.65135E-01  8.28389E-01 -6.63255E-01
    8993.821     -1.544   1.200  1.81080E-01  8.39980E-01 -6.58900E-01
    8994.193     -1.173   1.240  2.01657E-01  8.51287E-01 -6.49630E-01
    8994.577     -0.789   1.280  2.28618E-01  8.62235E-01 -6.33617E-01
    8994.974     -0.392   1.320  2.65097E-01  8.72869E-01 -6.07772E-01
    8995.382      0.016   1.360  3.15989E-01  8.83150E-01 -5.67161E-01
    8995.803      0.437   1.400  3.88423E-01  8.93058E-01 -5.04634E-01
    8996.235      0.870   1.440  4.88766E-01  9.02591E-01 -4.13825E-01
    8996.680      1.315   1.480  6.14054E-01  9.11750E-01 -2.97696E-01
    8997.138      1.772   1.520  7.55914E-01  9.20493E-01 -1.64579E-01
    8997.607      2.241   1.560  9.12995E-01  9.28861E-01 -1.58658E-02
    8998.089      2.723   1.600  1.07876E+00  9.36791E-01  1.41970E-01
    8998.582      3.217   1.640  1.25558E+00  9.44305E-01  3.11274E-01
    8999.088      3.722   1.680  1.46069E+00  9.51403E-01  5.09286E-01
    8999.606      4.241   1.720  1.66593E+00  9.58088E-01  7.07839E-01
    9000.137      4.771   1.760  1.75960E+00  9.64340E-01  7.95262E-01
    9000.679      5.314   1.800  1.69406E+00  9.70182E-01  7.23877E-01
    9001.234      5.868   1.840  1.58669E+00  9.75600E-01  6.11089E-01
    9001.801      6.435   1.880  1.53908E+00  9.80616E-01  5.58468E-01
    9002.380      7.014   1.920  1.55470E+00  9.85235E-01  5.69465E-01
    9002.971      7.606   1.960  1.59660E+00  9.89442E-01  6.07162E-01
    9003.575      8.209   2.000  1.61765E+00  9.93284E-01  6.24362E-01
    9004.191      8.825   2.040  1.58304E+00  9.96749E-01  5.86290E-01
    9004.819      9.453   2.080  1.50470E+00  9.99841E-01  5.04855E-01
    9005.459     10.093   2.120  1.42532E+00  1.00261E+00  4.22709E-01
    9006.111     10.745   2.160  1.37652E+00  1.00502E+00  3.71492E-01
    9006.775     11.410   2.200  1.34858E+00  1.00715E+00  3.41435E-01
    9007.452     12.086   2.240  1.31107E+00  1.00896E+00  3.02110E-01
    9008.141     12.775   2.280  1.25301E+00  1.01047E+00  2.42536E-01
    9008.842     13.476   2.320  1.18734E+00  1.01175E+00  1.75590E-01
    9009.555     14.189   2.360  1.12860E+00  1.01275E+00  1.15853E-01
    9010.280     14.915   2.400  1.08537E+00  1.01353E+00  7.18428E-02
    9011.018     15.652   2.440  1.06565E+00  1.01407E+00  5.15840E-02
    9011.768     16.402   2.480  1.07334E+00  1.01443E+00  5.89164E-02
    9012.530     17.164   2.520  1.10293E+00  1.01460E+00  8.83282E-02
    9013.304     17.938   2.560  1.13729E+00  1.01459E+00  1.22705E-01
    9014.090     18.725   2.600  1.14893E+00  1.01443E+00  1.34493E-01
    9014.889     19.523   2.640  1.12948E+00  1.01415E+00  1.15336E-01
    9015.700     20.334   2.680  1.09449E+00  1.01371E+00  8.07795E-02
    9016.523     21.157   2.720  1.05824E+00  1.01317E+00  4.50632E-02
    9017.358     21.992   2.760  1.02693E+00  1.01255E+00  1.43810E-02
    9018.205     22.839   2.800  1.00112E+00  1.01184E+00 -1.07186E-02
    9019.065     23.699   2.840  9.79738E-01  1.01105E+00 -3.13076E-02
    9019.937     24.571   2.880  9.62138E-01  1.01020E+00 -4.80655E-02
    9020.820     25.455   2.920  9.48079E-01  1.00931E+00 -6.12362E-02
    9021.717     26.351   2.960  9.37500E-01  1.00836E+00 -7.08637E-02
    9022.625     27.259   3.000  9.29747E-01  1.00742E+00 -7.76716E-02
    9023.545     28.180   3.040  9.23219E-01  1.00644E+00 -8.32242E-02
    9024.478     29.112   3.080  9.15141E-01  1.00546E+00 -9.03213E-02
    9025.423     30.057   3.120  9.03754E-01  1.00448E+00 -1.00725E-01
    9026.380     31.014   3.160  8.89617E-01  1.00350E+00 -1.13881E-01
    9027.349     31.983   3.200  8.73936E-01  1.00252E+00 -1.28587E-01
    9028.331     32.965   3.240  8.57615E-01  1.00160E+00 -1.43983E-01
    9029.324     33.959   3.280  8.41286E-01  1.00069E+00 -1.59401E-01
    9030.330     34.964   3.320  8.25682E-01  9.99791E-01 -1.74109E-01
    9031.348     35.982   3.360  8.11875E-01  9.98955E-01 -1.87080E-01
    9032.378     37.013   3.400  8.01140E-01  9.98160E-01 -1.97021E-01
    9033.421     38.055   3.440  7.94137E-01  9.97410E-01 -2.03273E-01
    9034.475     39.110   3.480  7.91318E-01  9.96727E-01 -2.05409E-01
    9035.542     40.176   3.520  7.93071E-01  9.96090E-01 -2.03019E-01
    9036.621     41.255   3.560  7.99420E-01  9.95500E-01 -1.96081E-01
    9037.712     42.347   3.600  8.09879E-01  9.94983E-01 -1.85104E-01
    9038.816     43.450   3.640  8.24080E-01  9.94537E-01 -1.70457E-01
    9039.931     44.566   3.680  8.41682E-01  9.94141E-01 -1.52459E-01
    9041.059     45.693   3.720  8.62083E-01  9.93797E-01 -1.31714E-01
    9042.199     46.833   3.760  8.84781E-01  9.93547E-01 -1.08766E-01
    9043.351     47.985   3.800  9.09576E-01  9.93351E-01 -8.37744E-02
    9044.515     49.150   3.840  9.36271E-01  9.93207E-01 -5.69359E-02
    9045.692     50.326   3.880  9.64140E-01  9.93157E-01 -2.90167E-02
    9046.881     51.515   3.920  9.91779E-01  9.93158E-01 -1.37918E-03
    9048.082     52.716   3.960  1.01731E+00  9.93211E-01  2.40999E-02
    9049.295     53.929   4.000  1.03881E+00  9.93338E-01  4.54742E-02
    9050.520     55.154   4.040  1.05507E+00  9.93538E-01  6.15350E-02
    9051.758     56.392   4.080  1.06596E+00  9.93787E-01  7.21716E-02
    9053.007     57.641   4.120  1.07225E+00  9.94106E-01  7.81396E-02
    9054.269     58.903   4.160  1.07520E+00  9.94474E-01  8.07289E-02
    9055.543     60.177   4.200  1.07603E+00  9.94909E-01  8.11166E-02
    9056.829     61.464   4.240  1.07569E+00  9.95368E-01  8.03263E-02
    9058.128     62.762   4.280  1.07516E+00  9.95891E-01  7.92656E-02
    9059.438     64.073   4.320  1.07482E+00  9.96460E-01  7.83624E-02
    9060.761     65.395   4.360  1.07464E+00  9.97092E-01  7.75501E-02
    9062.096     66.730   4.400  1.07476E+00  9.97742E-01  7.70168E-02
    9063.443     68.078   4.440  1.07638E+00  9.98429E-01  7.79469E-02
    9064.803     69.437   4.480  1.08069E+00  9.99151E-01  8.15342E-02
    9066.174     70.809   4.520  1.08764E+00  9.99887E-01  8.77519E-02
    9067.558     72.192   4.560  1.09577E+00  1.00068E+00  9.50885E-02
    9068.954     73.588   4.600  1.10281E+00  1.00146E+00  1.01359E-01
    9070.362     74.997   4.640  1.10735E+00  1.00228E+00  1.05067E-01
    9071.783     76.417   4.680  1.10947E+00  1.00310E+00  1.06370E-01
    9073.215     77.850   4.720  1.11089E+00  1.00393E+00  1.06954E-01
    9074.660     79.294   4.760  1.11345E+00  1.00477E+00  1.08679E-01
    9076.117     80.751   4.800  1.11746E+00  1.00559E+00  1.11874E-01
    9077.586     82.220   4.840  1.12068E+00  1.00642E+00  1.14258E-01
    9079.067     83.702   4.880  1.11870E+00  1.00726E+00  1.11443E-01
    9080.561     85.195   4.920  1.10717E+00  1.00806E+00  9.91125E-02
    9082.067     86.701   4.960  1.08423E+00  1.00885E+00  7.53745E-02
    9083.585     88.219   5.000  1.05173E+00  1.00962E+00  4.21127E-02
    9085.115     89.749   5.040  1.01520E+00  1.01037E+00  4.83420E-03
    9086.657     91.291   5.080  9.81611E-01  1.01111E+00 -2.95008E-02
    9088.211     92.846   5.120  9.56590E-01  1.01179E+00 -5.52036E-02
    9089.778     94.412   5.160  9.42711E-01  1.01246E+00 -6.97457E-02
    9091.357     95.991   5.200  9.39493E-01  1.01306E+00 -7.35649E-02
    9092.948     97.582   5.240  9.44864E-01  1.01364E+00 -6.87770E-02
    9094.551     99.185   5.280  9.56342E-01  1.01418E+00 -5.78401E-02
    9096.167    100.801   5.320  9.71498E-01  1.01466E+00 -4.31598E-02
    9097.794    102.429   5.360  9.87745E-01  1.01511E+00 -2.73646E-02
    9099.434    104.068   5.400  1.00189E+00  1.01549E+00 -1.36026E-02
    9101.086    105.720   5.440  1.01055E+00  1.01583E+00 -5.28542E-03
    9102.750    107.385   5.480  1.01095E+00  1.01610E+00 -5.15013E-03
    9104.427    109.061   5.520  1.00246E+00  1.01632E+00 -1.38556E-02
    9106.115    110.750   5.560  9.87162E-01  1.01649E+00 -2.93282E-02
    9107.816    112.450   5.600  9.68628E-01  1.01662E+00 -4.79873E-02
    9109.529    114.163   5.640  9.50159E-01  1.01667E+00 -6.65092E-02
    9111.254    115.888   5.680  9.33917E-01  1.01665E+00 -8.27311E-02
    9112.992    117.626   5.720  9.21369E-01  1.01658E+00 -9.52101E-02
    9114.741    119.375   5.760  9.14194E-01  1.01646E+00 -1.02270E-01
    9116.503    121.137   5.800  9.13910E-01  1.01628E+00 -1.02367E-01
    9118.277    122.911   5.840  9.20720E-01  1.01604E+00 -9.53233E-02
    9120.063    124.697   5.880  9.33078E-01  1.01574E+00 -8.26631E-02
    9121.861    126.495   5.920  9.48347E-01  1.01540E+00 -6.70487E-02
    9123.672    128.306   5.960  9.63693E-01  1.01500E+00 -5.13074E-02
    9125.494    130.129   6.000  9.76242E-01  1.01449E+00 -3.82457E-02
