# # comment:                                                     FEFF 9.9.1  
# # Source:
# # Structure
# # Reduced
# # space
# # abc:
# # angles:
# # sites:
# # POT  SCF 100  7.0000   0, screened core-hole, AFOLP (folp(0)= 1.150)
# # Abs   Z=29 Rmt= 1.223 Rnm= 1.322 K  shell
# # Pot 1 Z=29 Rmt= 1.224 Rnm= 1.329
# # Pot 2 Z=15 Rmt= 0.913 Rnm= 1.152
# # Pot 3 Z= 8 Rmt= 1.001 Rnm= 1.096
# # Gam_ch=1.729E+00 H-L exch Vi= 0.000E+00 Vr= 0.000E+00
# # Mu=-7.246E+00eV kf=2.340E+00 Vint=-1.635E+01eV Rs_int= 1.550
# FMS rfms= 9.0000
# # PATH  Rmax=-1.000,  Keep_limit= 0.00, Heap_limit 0.00  Pwcrit= 2.50%
#  S02=0.950  Temp=   0.00  Debye_temp=   0.00  Global_sig2= 0.00000
#  Energy zero shift, vr, vi    0.00000E+00   0.00000E+00
#  Curved wave amplitude ratio filter   4.000%
#     file         sig2 tot  cw amp ratio   deg  nlegs   reff  inp sig2
#     0/   0 paths used
#  xsedge+ 50, used to normalize mu           2.4774E-04
#  -----------------------------------------------------------------------
#  omega    e    k    mu    mu0     chi     @#
    8983.407    -11.056  -1.000  3.44134E-02  5.11782E-02 -1.67648E-02
    8983.705    -10.758  -0.960  3.60188E-02  5.48448E-02 -1.88260E-02
    8983.992    -10.471  -0.920  3.77215E-02  5.89162E-02 -2.11947E-02
    8984.266    -10.197  -0.880  3.95290E-02  6.34519E-02 -2.39228E-02
    8984.528     -9.935  -0.840  4.14501E-02  6.85210E-02 -2.70709E-02
    8984.778     -9.685  -0.800  4.34943E-02  7.42038E-02 -3.07095E-02
    8985.016     -9.447  -0.760  4.56718E-02  8.05923E-02 -3.49204E-02
    8985.242     -9.221  -0.720  4.79940E-02  8.77903E-02 -3.97963E-02
    8985.455     -9.008  -0.680  5.04725E-02  9.59125E-02 -4.54399E-02
    8985.656     -8.807  -0.640  5.31188E-02  1.05079E-01 -5.19606E-02
    8985.845     -8.618  -0.600  5.59428E-02  1.15410E-01 -5.94672E-02
    8986.022     -8.441  -0.560  5.89503E-02  1.27005E-01 -6.80548E-02
    8986.186     -8.276  -0.520  6.21398E-02  1.39925E-01 -7.77850E-02
    8986.339     -8.124  -0.480  6.54977E-02  1.54156E-01 -8.86579E-02
    8986.479     -7.984  -0.440  6.89923E-02  1.69573E-01 -1.00580E-01
    8986.607     -7.856  -0.400  7.25700E-02  1.85907E-01 -1.13337E-01
    8986.723     -7.740  -0.360  7.61540E-02  2.02739E-01 -1.26585E-01
    8986.826     -7.636  -0.320  7.96491E-02  2.19521E-01 -1.39872E-01
    8986.918     -7.545  -0.280  8.29529E-02  2.35646E-01 -1.52693E-01
    8986.997     -7.466  -0.240  8.59688E-02  2.50529E-01 -1.64560E-01
    8987.064     -7.399  -0.200  8.86178E-02  2.63681E-01 -1.75063E-01
    8987.119     -7.344  -0.160  9.08423E-02  2.74744E-01 -1.83902E-01
    8987.162     -7.301  -0.120  9.26050E-02  2.83489E-01 -1.90884E-01
    8987.192     -7.271  -0.080  9.38836E-02  2.89789E-01 -1.95905E-01
    8987.217     -7.246   0.000  9.49334E-02  2.94849E-01 -1.99916E-01
    8987.271     -7.191   0.120  9.73329E-02  3.06267E-01 -2.08934E-01
    8987.314     -7.149   0.160  9.91369E-02  3.15139E-01 -2.16002E-01
    8987.369     -7.094   0.200  1.01450E-01  3.26476E-01 -2.25027E-01
    8987.436     -7.027   0.240  1.04225E-01  3.40106E-01 -2.35881E-01
    8987.515     -6.948   0.280  1.07448E-01  3.55758E-01 -2.48309E-01
    8987.607     -6.856   0.320  1.11152E-01  3.73033E-01 -2.61881E-01
    8987.710     -6.752   0.360  1.15353E-01  3.91441E-01 -2.76088E-01
    8987.826     -6.637   0.400  1.20163E-01  4.10437E-01 -2.90273E-01
    8987.954     -6.509   0.440  1.25772E-01  4.29561E-01 -3.03789E-01
    8988.094     -6.368   0.480  1.32434E-01  4.48425E-01 -3.15991E-01
    8988.247     -6.216   0.520  1.40400E-01  4.66773E-01 -3.26372E-01
    8988.411     -6.051   0.560  1.49896E-01  4.84499E-01 -3.34603E-01
    8988.588     -5.875   0.600  1.60992E-01  5.01572E-01 -3.40580E-01
    8988.777     -5.686   0.640  1.73663E-01  5.18067E-01 -3.44404E-01
    8988.978     -5.485   0.680  1.87776E-01  5.34034E-01 -3.46258E-01
    8989.192     -5.271   0.720  2.03491E-01  5.49570E-01 -3.46079E-01
    8989.417     -5.046   0.760  2.21529E-01  5.64757E-01 -3.43227E-01
    8989.655     -4.808   0.800  2.43011E-01  5.79665E-01 -3.36653E-01
    8989.905     -4.558   0.840  2.69072E-01  5.94392E-01 -3.25321E-01
    8990.167     -4.296   0.880  3.00034E-01  6.08945E-01 -3.08911E-01
    8990.441     -4.021   0.920  3.35149E-01  6.23379E-01 -2.88230E-01
    8990.728     -3.735   0.960  3.73066E-01  6.37714E-01 -2.64649E-01
    8991.027     -3.436   1.000  4.13352E-01  6.51964E-01 -2.38612E-01
    8991.337     -3.125   1.040  4.56294E-01  6.66154E-01 -2.09860E-01
    8991.661     -2.802   1.080  5.00521E-01  6.80258E-01 -1.79737E-01
    8991.996     -2.467   1.120  5.42814E-01  6.94290E-01 -1.51477E-01
    8992.343     -2.120   1.160  5.81057E-01  7.08216E-01 -1.27159E-01
    8992.703     -1.760   1.200  6.15544E-01  7.22036E-01 -1.06493E-01
    8993.075     -1.388   1.240  6.45061E-01  7.35710E-01 -9.06493E-02
    8993.459     -1.004   1.280  6.64496E-01  7.49215E-01 -8.47193E-02
    8993.855     -0.608   1.320  6.74732E-01  7.62563E-01 -8.78310E-02
    8994.264     -0.199   1.360  6.86997E-01  7.75690E-01 -8.86928E-02
    8994.684      0.221   1.400  7.07902E-01  7.88586E-01 -8.06847E-02
    8995.117      0.654   1.440  7.32243E-01  8.01223E-01 -6.89796E-02
    8995.562      1.099   1.480  7.54453E-01  8.13572E-01 -5.91185E-02
    8996.019      1.556   1.520  7.71152E-01  8.25625E-01 -5.44731E-02
    8996.489      2.026   1.560  7.78390E-01  8.37351E-01 -5.89609E-02
    8996.970      2.507   1.600  7.78238E-01  8.48722E-01 -7.04842E-02
    8997.464      3.001   1.640  7.79999E-01  8.59733E-01 -7.97334E-02
    8997.970      3.507   1.680  7.92810E-01  8.70334E-01 -7.75245E-02
    8998.488      4.025   1.720  8.24561E-01  8.80562E-01 -5.60015E-02
    8999.018      4.556   1.760  8.78766E-01  8.90349E-01 -1.15833E-02
    8999.561      5.098   1.800  9.56487E-01  8.99731E-01  5.67557E-02
    9000.116      5.653   1.840  1.05795E+00  9.08687E-01  1.49258E-01
    9000.683      6.220   1.880  1.18024E+00  9.17193E-01  2.63046E-01
    9001.262      6.799   1.920  1.29695E+00  9.25249E-01  3.71702E-01
    9001.853      7.390   1.960  1.35749E+00  9.32873E-01  4.24616E-01
    9002.457      7.994   2.000  1.34076E+00  9.40046E-01  4.00715E-01
    9003.072      8.609   2.040  1.28905E+00  9.46772E-01  3.42279E-01
    9003.700      9.237   2.080  1.24575E+00  9.53073E-01  2.92680E-01
    9004.340      9.877   2.120  1.21111E+00  9.58932E-01  2.52181E-01
    9004.992     10.530   2.160  1.17700E+00  9.64394E-01  2.12605E-01
    9005.657     11.194   2.200  1.15066E+00  9.69423E-01  1.81232E-01
    9006.334     11.871   2.240  1.14019E+00  9.74046E-01  1.66145E-01
    9007.022     12.560   2.280  1.13778E+00  9.78288E-01  1.59488E-01
    9007.723     13.261   2.320  1.12647E+00  9.82156E-01  1.44311E-01
    9008.437     13.974   2.360  1.10262E+00  9.85657E-01  1.16968E-01
    9009.162     14.699   2.400  1.08000E+00  9.88799E-01  9.12013E-02
    9009.900     15.437   2.440  1.06852E+00  9.91610E-01  7.69090E-02
    9010.650     16.187   2.480  1.06453E+00  9.94116E-01  7.04142E-02
    9011.412     16.949   2.520  1.06260E+00  9.96308E-01  6.62878E-02
    9012.186     17.723   2.560  1.06203E+00  9.98212E-01  6.38170E-02
    9012.972     18.509   2.600  1.06420E+00  9.99836E-01  6.43687E-02
    9013.771     19.308   2.640  1.06823E+00  1.00121E+00  6.70208E-02
    9014.581     20.119   2.680  1.07021E+00  1.00234E+00  6.78651E-02
    9015.404     20.942   2.720  1.06471E+00  1.00326E+00  6.14550E-02
    9016.240     21.777   2.760  1.04847E+00  1.00397E+00  4.44958E-02
    9017.087     22.624   2.800  1.02868E+00  1.00451E+00  2.41705E-02
    9017.946     23.484   2.840  1.00899E+00  1.00485E+00  4.13525E-03
    9018.818     24.355   2.880  9.91974E-01  1.00503E+00 -1.30560E-02
    9019.702     25.239   2.920  9.77197E-01  1.00505E+00 -2.78558E-02
    9020.598     26.135   2.960  9.63102E-01  1.00495E+00 -4.18445E-02
    9021.506     27.044   3.000  9.48781E-01  1.00474E+00 -5.59584E-02
    9022.427     27.964   3.040  9.34559E-01  1.00440E+00 -6.98381E-02
    9023.360     28.897   3.080  9.21527E-01  1.00399E+00 -8.24587E-02
    9024.305     29.842   3.120  9.10479E-01  1.00347E+00 -9.29919E-02
    9025.262     30.799   3.160  9.01488E-01  1.00290E+00 -1.01412E-01
    9026.231     31.768   3.200  8.94041E-01  1.00226E+00 -1.08217E-01
    9027.212     32.749   3.240  8.87919E-01  1.00159E+00 -1.13670E-01
    9028.206     33.743   3.280  8.82823E-01  1.00086E+00 -1.18034E-01
    9029.212     34.749   3.320  8.78911E-01  1.00008E+00 -1.21173E-01
    9030.230     35.767   3.360  8.76661E-01  9.99300E-01 -1.22639E-01
    9031.260     36.797   3.400  8.76474E-01  9.98487E-01 -1.22013E-01
    9032.302     37.840   3.440  8.78465E-01  9.97689E-01 -1.19225E-01
    9033.357     38.894   3.480  8.82429E-01  9.96869E-01 -1.14440E-01
    9034.424     39.961   3.520  8.88130E-01  9.96047E-01 -1.07917E-01
    9035.503     41.040   3.560  8.95160E-01  9.95250E-01 -1.00089E-01
    9036.594     42.131   3.600  9.03308E-01  9.94459E-01 -9.11514E-02
    9037.697     43.235   3.640  9.12498E-01  9.93677E-01 -8.11790E-02
    9038.813     44.350   3.680  9.22666E-01  9.92949E-01 -7.02829E-02
    9039.941     45.478   3.720  9.33511E-01  9.92232E-01 -5.87210E-02
    9041.081     46.618   3.760  9.44753E-01  9.91529E-01 -4.67764E-02
    9042.233     47.770   3.800  9.56112E-01  9.90885E-01 -3.47726E-02
    9043.397     48.934   3.840  9.67267E-01  9.90278E-01 -2.30114E-02
    9044.574     50.111   3.880  9.78096E-01  9.89689E-01 -1.15931E-02
    9045.762     51.299   3.920  9.88716E-01  9.89163E-01 -4.47198E-04
    9046.963     52.500   3.960  9.99156E-01  9.88677E-01  1.04785E-02
    9048.176     53.713   4.000  1.00943E+00  9.88232E-01  2.12003E-02
    9049.402     54.939   4.040  1.01946E+00  9.87828E-01  3.16342E-02
    9050.639     56.176   4.080  1.02905E+00  9.87465E-01  4.15894E-02
    9051.889     57.426   4.120  1.03801E+00  9.87146E-01  5.08604E-02
    9053.151     58.688   4.160  1.04623E+00  9.86890E-01  5.93378E-02
    9054.425     59.962   4.200  1.05365E+00  9.86677E-01  6.69720E-02
    9055.711     61.248   4.240  1.06010E+00  9.86484E-01  7.36138E-02
    9057.009     62.547   4.280  1.06541E+00  9.86355E-01  7.90550E-02
    9058.320     63.857   4.320  1.06924E+00  9.86289E-01  8.29556E-02
    9059.643     65.180   4.360  1.07114E+00  9.86242E-01  8.49021E-02
    9060.978     66.515   4.400  1.07079E+00  9.86233E-01  8.45547E-02
    9062.325     67.862   4.440  1.06809E+00  9.86263E-01  8.18288E-02
    9063.685     69.222   4.480  1.06324E+00  9.86332E-01  7.69115E-02
    9065.056     70.593   4.520  1.05668E+00  9.86440E-01  7.02453E-02
    9066.440     71.977   4.560  1.04915E+00  9.86585E-01  6.25692E-02
    9067.836     73.373   4.600  1.04142E+00  9.86768E-01  5.46468E-02
    9069.244     74.781   4.640  1.03417E+00  9.86985E-01  4.71874E-02
    9070.664     76.202   4.680  1.02790E+00  9.87213E-01  4.06878E-02
    9072.097     77.634   4.720  1.02271E+00  9.87473E-01  3.52380E-02
    9073.542     79.079   4.760  1.01825E+00  9.87742E-01  3.05066E-02
    9074.999     80.536   4.800  1.01396E+00  9.88040E-01  2.59211E-02
    9076.468     82.005   4.840  1.00928E+00  9.88347E-01  2.09292E-02
    9077.949     83.486   4.880  1.00399E+00  9.88682E-01  1.53037E-02
    9079.443     84.980   4.920  9.98265E-01  9.89021E-01  9.24388E-03
    9080.948     86.485   4.960  9.92603E-01  9.89362E-01  3.24093E-03
    9082.466     88.003   5.000  9.87602E-01  9.89707E-01 -2.10501E-03
    9083.996     89.533   5.040  9.83674E-01  9.90074E-01 -6.40028E-03
    9085.539     91.076   5.080  9.80820E-01  9.90421E-01 -9.60083E-03
    9087.093     92.630   5.120  9.78754E-01  9.90788E-01 -1.20337E-02
    9088.660     94.197   5.160  9.76862E-01  9.91129E-01 -1.42670E-02
    9090.239     95.776   5.200  9.74634E-01  9.91466E-01 -1.68315E-02
    9091.830     97.367   5.240  9.71806E-01  9.91799E-01 -1.99934E-02
    9093.433     98.970   5.280  9.68524E-01  9.92127E-01 -2.36024E-02
    9095.048    100.585   5.320  9.65166E-01  9.92424E-01 -2.72583E-02
    9096.676    102.213   5.360  9.62063E-01  9.92713E-01 -3.06499E-02
    9098.316    103.853   5.400  9.59105E-01  9.92972E-01 -3.38674E-02
    9099.968    105.505   5.440  9.55897E-01  9.93221E-01 -3.73237E-02
    9101.632    107.169   5.480  9.52058E-01  9.93460E-01 -4.14023E-02
    9103.308    108.845   5.520  9.47600E-01  9.93642E-01 -4.60419E-02
    9104.997    110.534   5.560  9.43094E-01  9.93812E-01 -5.07173E-02
    9106.698    112.235   5.600  9.39217E-01  9.93970E-01 -5.47529E-02
    9108.411    113.948   5.640  9.36358E-01  9.94069E-01 -5.77104E-02
    9110.136    115.673   5.680  9.34731E-01  9.94153E-01 -5.94220E-02
    9111.873    117.410   5.720  9.34410E-01  9.94201E-01 -5.97910E-02
    9113.623    119.160   5.760  9.35610E-01  9.94213E-01 -5.86028E-02
    9115.384    120.922   5.800  9.38633E-01  9.94212E-01 -5.55785E-02
    9117.158    122.696   5.840  9.43629E-01  9.94151E-01 -5.05225E-02
    9118.945    124.482   5.880  9.50572E-01  9.94076E-01 -4.35042E-02
    9120.743    126.280   5.920  9.59024E-01  9.93966E-01 -3.49419E-02
    9122.553    128.090   5.960  9.68287E-01  9.93817E-01 -2.55303E-02
    9124.376    129.913   6.000  9.77835E-01  9.93609E-01 -1.57738E-02
