# # comment:                                                     FEFF 9.9.1  
# # Source:
# # Structure
# # Reduced
# # space
# # abc:
# # angles:
# # sites:
# # POT  SCF 100  7.0000   0, screened core-hole, AFOLP (folp(0)= 1.150)
# # Abs   Z=29 Rmt= 1.276 Rnm= 1.346 K  shell
# # Pot 1 Z= 3 Rmt= 1.310 Rnm= 1.379
# # Pot 2 Z=29 Rmt= 1.287 Rnm= 1.356
# # Pot 3 Z=15 Rmt= 0.937 Rnm= 1.154
# # Pot 4 Z= 8 Rmt= 0.874 Rnm= 1.041
# # Gam_ch=1.729E+00 H-L exch Vi= 0.000E+00 Vr= 0.000E+00
# # Mu=-5.890E+00eV kf=2.478E+00 Vint=-1.685E+01eV Rs_int= 1.463
# FMS rfms= 9.0000
# # PATH  Rmax=-1.000,  Keep_limit= 0.00, Heap_limit 0.00  Pwcrit= 2.50%
#  S02=0.950  Temp=   0.00  Debye_temp=   0.00  Global_sig2= 0.00000
#  Energy zero shift, vr, vi    0.00000E+00   0.00000E+00
#  Curved wave amplitude ratio filter   4.000%
#     file         sig2 tot  cw amp ratio   deg  nlegs   reff  inp sig2
#     0/   0 paths used
#  xsedge+ 50, used to normalize mu           2.4789E-04
#  -----------------------------------------------------------------------
#  omega    e    k    mu    mu0     chi     @#
    8983.295     -9.700  -1.000  4.81570E-02  5.50960E-02 -6.93898E-03
    8983.594     -9.401  -0.960  5.13525E-02  5.91681E-02 -7.81569E-03
    8983.880     -9.115  -0.920  5.48775E-02  6.37012E-02 -8.82364E-03
    8984.155     -8.841  -0.880  5.87783E-02  6.87638E-02 -9.98548E-03
    8984.417     -8.578  -0.840  6.31080E-02  7.44362E-02 -1.13282E-02
    8984.667     -8.329  -0.800  6.79272E-02  8.08113E-02 -1.28842E-02
    8984.904     -8.091  -0.760  7.33047E-02  8.79960E-02 -1.46913E-02
    8985.130     -7.865  -0.720  7.93170E-02  9.61111E-02 -1.67942E-02
    8985.343     -7.652  -0.680  8.60470E-02  1.05290E-01 -1.92431E-02
    8985.544     -7.451  -0.640  9.35807E-02  1.15674E-01 -2.20930E-02
    8985.733     -7.262  -0.600  1.02002E-01  1.27401E-01 -2.53991E-02
    8985.910     -7.085  -0.560  1.11381E-01  1.40590E-01 -2.92089E-02
    8986.075     -6.920  -0.520  1.21763E-01  1.55312E-01 -3.35495E-02
    8986.227     -6.768  -0.480  1.33145E-01  1.71554E-01 -3.84089E-02
    8986.367     -6.628  -0.440  1.45457E-01  1.89172E-01 -4.37155E-02
    8986.495     -6.500  -0.400  1.58535E-01  2.07857E-01 -4.93218E-02
    8986.611     -6.384  -0.360  1.72116E-01  2.27121E-01 -5.50051E-02
    8986.715     -6.280  -0.320  1.85840E-01  2.46333E-01 -6.04933E-02
    8986.806     -6.189  -0.280  1.99276E-01  2.64790E-01 -6.55141E-02
    8986.886     -6.110  -0.240  2.11967E-01  2.81819E-01 -6.98512E-02
    8986.953     -6.043  -0.200  2.23475E-01  2.96858E-01 -7.33826E-02
    8987.007     -5.988  -0.160  2.33413E-01  3.09499E-01 -7.60861E-02
    8987.050     -5.945  -0.120  2.41470E-01  3.19485E-01 -7.80148E-02
    8987.081     -5.915  -0.080  2.47414E-01  3.26674E-01 -7.92595E-02
    8987.105     -5.890   0.000  2.52340E-01  3.32446E-01 -8.01064E-02
    8987.160     -5.835   0.120  2.63229E-01  3.45463E-01 -8.22341E-02
    8987.203     -5.793   0.160  2.71888E-01  3.55552E-01 -8.36642E-02
    8987.257     -5.738   0.200  2.83287E-01  3.68440E-01 -8.51525E-02
    8987.324     -5.671   0.240  2.97495E-01  3.83895E-01 -8.63992E-02
    8987.404     -5.591   0.280  3.14560E-01  4.01586E-01 -8.70254E-02
    8987.495     -5.500   0.320  3.34403E-01  4.21053E-01 -8.66502E-02
    8987.599     -5.396   0.360  3.56631E-01  4.41684E-01 -8.50531E-02
    8987.715     -5.281   0.400  3.80455E-01  4.62849E-01 -8.23938E-02
    8987.843     -5.153   0.440  4.04560E-01  4.83957E-01 -7.93968E-02
    8987.983     -5.012   0.480  4.27023E-01  5.04586E-01 -7.75621E-02
    8988.135     -4.860   0.520  4.45345E-01  5.24414E-01 -7.90688E-02
    8988.300     -4.695   0.560  4.56936E-01  5.43313E-01 -8.63777E-02
    8988.477     -4.519   0.600  4.60059E-01  5.61275E-01 -1.01216E-01
    8988.666     -4.330   0.640  4.55038E-01  5.78363E-01 -1.23325E-01
    8988.867     -4.128   0.680  4.44686E-01  5.94644E-01 -1.49957E-01
    8989.080     -3.915   0.720  4.33167E-01  6.10261E-01 -1.77094E-01
    8989.306     -3.690   0.760  4.24145E-01  6.25275E-01 -2.01130E-01
    8989.543     -3.452   0.800  4.20327E-01  6.39838E-01 -2.19511E-01
    8989.793     -3.202   0.840  4.23449E-01  6.54011E-01 -2.30562E-01
    8990.055     -2.940   0.880  4.34374E-01  6.67857E-01 -2.33482E-01
    8990.330     -2.665   0.920  4.52769E-01  6.81443E-01 -2.28674E-01
    8990.616     -2.379   0.960  4.76875E-01  6.94808E-01 -2.17933E-01
    8990.915     -2.080   1.000  5.04078E-01  7.07977E-01 -2.03899E-01
    8991.226     -1.769   1.040  5.32796E-01  7.20986E-01 -1.88191E-01
    8991.549     -1.446   1.080  5.63319E-01  7.33802E-01 -1.70483E-01
    8991.884     -1.111   1.120  5.94889E-01  7.46485E-01 -1.51596E-01
    8992.232     -0.763   1.160  6.24044E-01  7.58989E-01 -1.34945E-01
    8992.591     -0.404   1.200  6.47962E-01  7.71344E-01 -1.23382E-01
    8992.963     -0.032   1.240  6.64864E-01  7.83499E-01 -1.18636E-01
    8993.347      0.352   1.280  6.75012E-01  7.95473E-01 -1.20461E-01
    8993.744      0.748   1.320  6.83399E-01  8.07247E-01 -1.23848E-01
    8994.152      1.157   1.360  6.98495E-01  8.18801E-01 -1.20306E-01
    8994.573      1.577   1.400  7.28386E-01  8.30112E-01 -1.01727E-01
    8995.005      2.010   1.440  7.77746E-01  8.41157E-01 -6.34102E-02
    8995.450      2.455   1.480  8.48247E-01  8.51927E-01 -3.68072E-03
    8995.908      2.912   1.520  9.35954E-01  8.62401E-01  7.35529E-02
    8996.377      3.382   1.560  1.02464E+00  8.72574E-01  1.52069E-01
    8996.859      3.863   1.600  1.09814E+00  8.82399E-01  2.15737E-01
    8997.352      4.357   1.640  1.15527E+00  8.91913E-01  2.63354E-01
    8997.858      4.863   1.680  1.19445E+00  9.01051E-01  2.93394E-01
    8998.376      5.381   1.720  1.21020E+00  9.09848E-01  3.00347E-01
    8998.907      5.912   1.760  1.20485E+00  9.18243E-01  2.86603E-01
    8999.449      6.454   1.800  1.19439E+00  9.26271E-01  2.68115E-01
    9000.004      7.009   1.840  1.19348E+00  9.33913E-01  2.59566E-01
    9000.571      7.576   1.880  1.19558E+00  9.41166E-01  2.54414E-01
    9001.150      8.155   1.920  1.18952E+00  9.48008E-01  2.41507E-01
    9001.741      8.746   1.960  1.18206E+00  9.54462E-01  2.27593E-01
    9002.345      9.350   2.000  1.18284E+00  9.60529E-01  2.22307E-01
    9002.961      9.965   2.040  1.18839E+00  9.66190E-01  2.22195E-01
    9003.589     10.593   2.080  1.18966E+00  9.71467E-01  2.18191E-01
    9004.229     11.233   2.120  1.18280E+00  9.76343E-01  2.06452E-01
    9004.881     11.886   2.160  1.17273E+00  9.80865E-01  1.91862E-01
    9005.545     12.550   2.200  1.16348E+00  9.84993E-01  1.78483E-01
    9006.222     13.227   2.240  1.15147E+00  9.88775E-01  1.62698E-01
    9006.911     13.916   2.280  1.13496E+00  9.92217E-01  1.42744E-01
    9007.612     14.617   2.320  1.11981E+00  9.95303E-01  1.24503E-01
    9008.325     15.330   2.360  1.11033E+00  9.98060E-01  1.12265E-01
    9009.051     16.055   2.400  1.10542E+00  1.00052E+00  1.04908E-01
    9009.788     16.793   2.440  1.10289E+00  1.00266E+00  1.00233E-01
    9010.538     17.543   2.480  1.09827E+00  1.00453E+00  9.37421E-02
    9011.300     18.305   2.520  1.08684E+00  1.00612E+00  8.07235E-02
    9012.074     19.079   2.560  1.07159E+00  1.00744E+00  6.41575E-02
    9012.861     19.865   2.600  1.06038E+00  1.00853E+00  5.18541E-02
    9013.659     20.664   2.640  1.05246E+00  1.00938E+00  4.30757E-02
    9014.470     21.475   2.680  1.03830E+00  1.01000E+00  2.82939E-02
    9015.293     22.298   2.720  1.01268E+00  1.01044E+00  2.23630E-03
    9016.128     23.133   2.760  9.79218E-01  1.01070E+00 -3.14838E-02
    9016.975     23.980   2.800  9.43889E-01  1.01078E+00 -6.68865E-02
    9017.835     24.840   2.840  9.13101E-01  1.01069E+00 -9.75861E-02
    9018.707     25.711   2.880  8.97705E-01  1.01046E+00 -1.12759E-01
    9019.590     26.595   2.920  8.92832E-01  1.01011E+00 -1.17282E-01
    9020.487     27.491   2.960  8.91174E-01  1.00964E+00 -1.18469E-01
    9021.395     28.400   3.000  8.90207E-01  1.00906E+00 -1.18850E-01
    9022.315     29.320   3.040  8.88939E-01  1.00840E+00 -1.19464E-01
    9023.248     30.253   3.080  8.86605E-01  1.00765E+00 -1.21040E-01
    9024.193     31.198   3.120  8.83668E-01  1.00681E+00 -1.23142E-01
    9025.150     32.155   3.160  8.81142E-01  1.00592E+00 -1.24780E-01
    9026.119     33.124   3.200  8.79582E-01  1.00499E+00 -1.25407E-01
    9027.101     34.106   3.240  8.79191E-01  1.00402E+00 -1.24826E-01
    9028.094     35.099   3.280  8.80366E-01  1.00303E+00 -1.22662E-01
    9029.100     36.105   3.320  8.83235E-01  1.00198E+00 -1.18749E-01
    9030.118     37.123   3.360  8.88139E-01  1.00095E+00 -1.12813E-01
    9031.148     38.153   3.400  8.95288E-01  9.99897E-01 -1.04609E-01
    9032.191     39.196   3.440  9.04586E-01  9.98863E-01 -9.42762E-02
    9033.245     40.250   3.480  9.15683E-01  9.97830E-01 -8.21474E-02
    9034.312     41.317   3.520  9.28228E-01  9.96803E-01 -6.85743E-02
    9035.391     42.396   3.560  9.41841E-01  9.95784E-01 -5.39431E-02
    9036.482     43.487   3.600  9.55980E-01  9.94817E-01 -3.88372E-02
    9037.586     44.591   3.640  9.70206E-01  9.93864E-01 -2.36582E-02
    9038.701     45.706   3.680  9.84152E-01  9.92946E-01 -8.79343E-03
    9039.829     46.834   3.720  9.97384E-01  9.92043E-01  5.34060E-03
    9040.969     47.974   3.760  1.00959E+00  9.91202E-01  1.83849E-02
    9042.121     49.126   3.800  1.02051E+00  9.90426E-01  3.00812E-02
    9043.286     50.290   3.840  1.02977E+00  9.89670E-01  4.00960E-02
    9044.462     51.467   3.880  1.03708E+00  9.88957E-01  4.81251E-02
    9045.651     52.656   3.920  1.04232E+00  9.88310E-01  5.40055E-02
    9046.852     53.856   3.960  1.04553E+00  9.87710E-01  5.78181E-02
    9048.065     55.070   4.000  1.04703E+00  9.87177E-01  5.98565E-02
    9049.290     56.295   4.040  1.04725E+00  9.86690E-01  6.05629E-02
    9050.528     57.532   4.080  1.04648E+00  9.86250E-01  6.02320E-02
    9051.777     58.782   4.120  1.04486E+00  9.85878E-01  5.89816E-02
    9053.039     60.044   4.160  1.04251E+00  9.85553E-01  5.69522E-02
    9054.313     61.318   4.200  1.03977E+00  9.85296E-01  5.44704E-02
    9055.599     62.604   4.240  1.03709E+00  9.85084E-01  5.20032E-02
    9056.898     63.903   4.280  1.03493E+00  9.84917E-01  5.00101E-02
    9058.208     65.213   4.320  1.03356E+00  9.84795E-01  4.87659E-02
    9059.531     66.536   4.360  1.03290E+00  9.84740E-01  4.81565E-02
    9060.866     67.871   4.400  1.03253E+00  9.84731E-01  4.78019E-02
    9062.214     69.218   4.440  1.03209E+00  9.84785E-01  4.73083E-02
    9063.573     70.578   4.480  1.03126E+00  9.84859E-01  4.63996E-02
    9064.945     71.949   4.520  1.02995E+00  9.84997E-01  4.49539E-02
    9066.328     73.333   4.560  1.02809E+00  9.85153E-01  4.29384E-02
    9067.724     74.729   4.600  1.02564E+00  9.85369E-01  4.02711E-02
    9069.132     76.137   4.640  1.02238E+00  9.85603E-01  3.67816E-02
    9070.553     77.558   4.680  1.01822E+00  9.85894E-01  3.23302E-02
    9071.985     78.990   4.720  1.01312E+00  9.86198E-01  2.69248E-02
    9073.430     80.435   4.760  1.00723E+00  9.86513E-01  2.07176E-02
    9074.887     81.892   4.800  1.00085E+00  9.86883E-01  1.39664E-02
    9076.356     83.361   4.840  9.94194E-01  9.87263E-01  6.93163E-03
    9077.838     84.842   4.880  9.87509E-01  9.87650E-01 -1.41256E-04
    9079.331     86.336   4.920  9.81080E-01  9.88064E-01 -6.98467E-03
    9080.837     87.842   4.960  9.75160E-01  9.88483E-01 -1.33231E-02
    9082.355     89.359   5.000  9.70047E-01  9.88904E-01 -1.88576E-02
    9083.885     90.890   5.040  9.66028E-01  9.89327E-01 -2.32998E-02
    9085.427     92.432   5.080  9.63331E-01  9.89773E-01 -2.64424E-02
    9086.981     93.986   5.120  9.61948E-01  9.90196E-01 -2.82479E-02
    9088.548     95.553   5.160  9.61663E-01  9.90614E-01 -2.89514E-02
    9090.127     97.132   5.200  9.61988E-01  9.91029E-01 -2.90408E-02
    9091.718     98.723   5.240  9.62228E-01  9.91439E-01 -2.92108E-02
    9093.321    100.326   5.280  9.61677E-01  9.91819E-01 -3.01420E-02
    9094.937    101.942   5.320  9.59934E-01  9.92193E-01 -3.22585E-02
    9096.564    103.569   5.360  9.57009E-01  9.92557E-01 -3.55485E-02
    9098.204    105.209   5.400  9.53295E-01  9.92888E-01 -3.95925E-02
    9099.856    106.861   5.440  9.49393E-01  9.93183E-01 -4.37900E-02
    9101.520    108.525   5.480  9.45893E-01  9.93442E-01 -4.75483E-02
    9103.197    110.202   5.520  9.43299E-01  9.93689E-01 -5.03897E-02
    9104.885    111.890   5.560  9.41934E-01  9.93901E-01 -5.19671E-02
    9106.586    113.591   5.600  9.42084E-01  9.94099E-01 -5.20151E-02
    9108.299    115.304   5.640  9.43917E-01  9.94237E-01 -5.03207E-02
    9110.024    117.029   5.680  9.47623E-01  9.94357E-01 -4.67346E-02
    9111.762    118.766   5.720  9.53128E-01  9.94416E-01 -4.12877E-02
    9113.511    120.516   5.760  9.60198E-01  9.94455E-01 -3.42574E-02
    9115.273    122.278   5.800  9.68271E-01  9.94434E-01 -2.61629E-02
    9117.047    124.052   5.840  9.76741E-01  9.94396E-01 -1.76549E-02
    9118.833    125.838   5.880  9.84896E-01  9.94296E-01 -9.39953E-03
    9120.631    127.636   5.920  9.92235E-01  9.94179E-01 -1.94396E-03
    9122.442    129.447   5.960  9.98361E-01  9.93996E-01  4.36517E-03
    9124.264    131.269   6.000  1.00332E+00  9.93775E-01  9.54465E-03
