# # comment:                                                     FEFF 9.9.1  
# # Source:
# # Structure
# # Reduced
# # space
# # abc:
# # angles:
# # sites:
# # POT  SCF 100  7.0000   0, screened core-hole, AFOLP (folp(0)= 1.150)
# # Abs   Z=29 Rmt= 1.207 Rnm= 1.341 K  shell
# # Pot 1 Z=29 Rmt= 1.272 Rnm= 1.355
# # Pot 2 Z=34 Rmt= 1.124 Rnm= 1.343
# # Pot 3 Z=17 Rmt= 1.378 Rnm= 1.581
# # Pot 4 Z= 8 Rmt= 0.922 Rnm= 1.075
# # Gam_ch=1.729E+00 H-L exch Vi= 0.000E+00 Vr= 0.000E+00
# # Mu=-5.308E+00eV kf=2.120E+00 Vint=-1.398E+01eV Rs_int= 1.710
# FMS rfms= 9.0000
# # PATH  Rmax=-1.000,  Keep_limit= 0.00, Heap_limit 0.00  Pwcrit= 2.50%
#  S02=0.950  Temp=   0.00  Debye_temp=   0.00  Global_sig2= 0.00000
#  Energy zero shift, vr, vi    0.00000E+00   0.00000E+00
#  Curved wave amplitude ratio filter   4.000%
#     file         sig2 tot  cw amp ratio   deg  nlegs   reff  inp sig2
#     0/   0 paths used
#  xsedge+ 50, used to normalize mu           2.4195E-04
#  -----------------------------------------------------------------------
#  omega    e    k    mu    mu0     chi     @#
    8983.311     -9.118  -1.000  4.79599E-02  6.11616E-02 -1.32017E-02
    8983.610     -8.819  -0.960  5.09944E-02  6.57823E-02 -1.47880E-02
    8983.897     -8.533  -0.920  5.43223E-02  7.09293E-02 -1.66070E-02
    8984.171     -8.258  -0.880  5.79827E-02  7.66808E-02 -1.86981E-02
    8984.433     -7.996  -0.840  6.20205E-02  8.31281E-02 -2.11076E-02
    8984.683     -7.746  -0.800  6.64868E-02  9.03768E-02 -2.38900E-02
    8984.921     -7.509  -0.760  7.14394E-02  9.85483E-02 -2.71088E-02
    8985.146     -7.283  -0.720  7.69429E-02  1.07780E-01 -3.08369E-02
    8985.360     -7.070  -0.680  8.30667E-02  1.18222E-01 -3.51558E-02
    8985.561     -6.869  -0.640  8.98831E-02  1.30036E-01 -4.01530E-02
    8985.750     -6.680  -0.600  9.74616E-02  1.43378E-01 -4.59162E-02
    8985.927     -6.503  -0.560  1.05860E-01  1.58382E-01 -5.25218E-02
    8986.091     -6.338  -0.520  1.15111E-01  1.75128E-01 -6.00172E-02
    8986.244     -6.186  -0.480  1.25205E-01  1.93602E-01 -6.83965E-02
    8986.384     -6.046  -0.440  1.36067E-01  2.13639E-01 -7.75716E-02
    8986.512     -5.918  -0.400  1.47539E-01  2.34889E-01 -8.73496E-02
    8986.628     -5.802  -0.360  1.59373E-01  2.56801E-01 -9.74279E-02
    8986.731     -5.698  -0.320  1.71236E-01  2.78657E-01 -1.07421E-01
    8986.823     -5.607  -0.280  1.82745E-01  2.99661E-01 -1.16915E-01
    8986.902     -5.527  -0.240  1.93510E-01  3.19047E-01 -1.25538E-01
    8986.969     -5.460  -0.200  2.03171E-01  3.36177E-01 -1.33007E-01
    8987.024     -5.406  -0.160  2.11432E-01  3.50583E-01 -1.39152E-01
    8987.066     -5.363  -0.120  2.18070E-01  3.61968E-01 -1.43898E-01
    8987.097     -5.332  -0.080  2.22933E-01  3.70167E-01 -1.47234E-01
    8987.121     -5.308   0.000  2.26934E-01  3.76752E-01 -1.49818E-01
    8987.176     -5.253   0.120  2.35755E-01  3.91596E-01 -1.55841E-01
    8987.219     -5.210   0.160  2.42709E-01  4.03136E-01 -1.60426E-01
    8987.274     -5.156   0.200  2.51725E-01  4.17846E-01 -1.66121E-01
    8987.341     -5.089   0.240  2.62850E-01  4.35542E-01 -1.72691E-01
    8987.420     -5.009   0.280  2.76025E-01  4.55820E-01 -1.79795E-01
    8987.512     -4.918   0.320  2.91165E-01  4.78174E-01 -1.87009E-01
    8987.615     -4.814   0.360  3.08079E-01  5.01926E-01 -1.93848E-01
    8987.731     -4.698   0.400  3.26491E-01  5.26379E-01 -1.99888E-01
    8987.859     -4.570   0.440  3.46041E-01  5.50832E-01 -2.04791E-01
    8987.999     -4.430   0.480  3.66393E-01  5.74833E-01 -2.08440E-01
    8988.152     -4.278   0.520  3.86964E-01  5.98024E-01 -2.11060E-01
    8988.316     -4.113   0.560  4.06877E-01  6.20234E-01 -2.13357E-01
    8988.493     -3.936   0.600  4.24770E-01  6.41424E-01 -2.16654E-01
    8988.682     -3.747   0.640  4.38971E-01  6.61636E-01 -2.22665E-01
    8988.883     -3.546   0.680  4.48288E-01  6.80959E-01 -2.32671E-01
    8989.096     -3.333   0.720  4.53134E-01  6.99497E-01 -2.46363E-01
    8989.322     -3.107   0.760  4.55796E-01  7.17332E-01 -2.61536E-01
    8989.560     -2.870   0.800  4.59374E-01  7.34556E-01 -2.75181E-01
    8989.810     -2.620   0.840  4.66181E-01  7.51224E-01 -2.85043E-01
    8990.072     -2.358   0.880  4.77001E-01  7.67439E-01 -2.90437E-01
    8990.346     -2.083   0.920  4.90976E-01  7.83181E-01 -2.92205E-01
    8990.633     -1.797   0.960  5.06616E-01  7.98503E-01 -2.91887E-01
    8990.931     -1.498   1.000  5.22794E-01  8.13401E-01 -2.90607E-01
    8991.242     -1.187   1.040  5.39105E-01  8.27884E-01 -2.88780E-01
    8991.565     -0.864   1.080  5.55868E-01  8.41932E-01 -2.86064E-01
    8991.901     -0.529   1.120  5.73901E-01  8.55557E-01 -2.81656E-01
    8992.248     -0.181   1.160  5.94666E-01  8.68728E-01 -2.74062E-01
    8992.608      0.178   1.200  6.22268E-01  8.81430E-01 -2.59163E-01
    8992.980      0.550   1.240  6.62174E-01  8.93623E-01 -2.31450E-01
    8993.364      0.934   1.280  7.15186E-01  9.05331E-01 -1.90145E-01
    8993.760      1.331   1.320  7.74024E-01  9.16491E-01 -1.42467E-01
    8994.168      1.739   1.360  8.30061E-01  9.27121E-01 -9.70597E-02
    8994.589      2.160   1.400  8.82133E-01  9.37201E-01 -5.50678E-02
    8995.022      2.592   1.440  9.34621E-01  9.46710E-01 -1.20895E-02
    8995.467      3.037   1.480  9.88090E-01  9.55650E-01  3.24395E-02
    8995.924      3.495   1.520  1.03698E+00  9.64002E-01  7.29819E-02
    8996.393      3.964   1.560  1.07870E+00  9.71767E-01  1.06929E-01
    8996.875      4.446   1.600  1.11719E+00  9.78949E-01  1.38243E-01
    8997.369      4.939   1.640  1.15168E+00  9.85553E-01  1.66123E-01
    8997.875      5.445   1.680  1.17180E+00  9.91608E-01  1.80190E-01
    8998.393      5.963   1.720  1.17250E+00  9.97100E-01  1.75404E-01
    8998.923      6.494   1.760  1.16156E+00  1.00204E+00  1.59520E-01
    8999.466      7.036   1.800  1.15067E+00  1.00647E+00  1.44199E-01
    9000.020      7.591   1.840  1.15023E+00  1.01039E+00  1.39840E-01
    9000.587      8.158   1.880  1.16997E+00  1.01381E+00  1.56168E-01
    9001.166      8.737   1.920  1.21163E+00  1.01677E+00  1.94863E-01
    9001.758      9.328   1.960  1.26121E+00  1.01928E+00  2.41929E-01
    9002.361      9.932   2.000  1.29898E+00  1.02136E+00  2.77615E-01
    9002.977     10.548   2.040  1.31680E+00  1.02307E+00  2.93722E-01
    9003.605     11.176   2.080  1.31694E+00  1.02439E+00  2.92555E-01
    9004.245     11.816   2.120  1.30305E+00  1.02538E+00  2.77670E-01
    9004.897     12.468   2.160  1.27942E+00  1.02604E+00  2.53383E-01
    9005.562     13.132   2.200  1.25295E+00  1.02640E+00  2.26547E-01
    9006.238     13.809   2.240  1.22978E+00  1.02650E+00  2.03278E-01
    9006.927     14.498   2.280  1.20989E+00  1.02638E+00  1.83511E-01
    9007.628     15.199   2.320  1.18756E+00  1.02601E+00  1.61549E-01
    9008.341     15.912   2.360  1.15978E+00  1.02546E+00  1.34328E-01
    9009.067     16.638   2.400  1.13039E+00  1.02471E+00  1.05679E-01
    9009.804     17.375   2.440  1.10388E+00  1.02382E+00  8.00653E-02
    9010.554     18.125   2.480  1.07979E+00  1.02280E+00  5.69946E-02
    9011.316     18.887   2.520  1.05579E+00  1.02165E+00  3.41379E-02
    9012.090     19.661   2.560  1.03532E+00  1.02042E+00  1.49036E-02
    9012.877     20.447   2.600  1.01949E+00  1.01910E+00  3.91497E-04
    9013.675     21.246   2.640  1.00619E+00  1.01773E+00 -1.15458E-02
    9014.486     22.057   2.680  9.95308E-01  1.01632E+00 -2.10127E-02
    9015.309     22.880   2.720  9.87145E-01  1.01489E+00 -2.77470E-02
    9016.144     23.715   2.760  9.81593E-01  1.01343E+00 -3.18395E-02
    9016.992     24.562   2.800  9.77871E-01  1.01197E+00 -3.40974E-02
    9017.851     25.422   2.840  9.74791E-01  1.01053E+00 -3.57374E-02
    9018.723     26.294   2.880  9.71172E-01  1.00910E+00 -3.79243E-02
    9019.607     27.177   2.920  9.66334E-01  1.00768E+00 -4.13411E-02
    9020.503     28.074   2.960  9.60327E-01  1.00632E+00 -4.59881E-02
    9021.411     28.982   3.000  9.53388E-01  1.00500E+00 -5.16115E-02
    9022.332     29.902   3.040  9.45924E-01  1.00375E+00 -5.78274E-02
    9023.264     30.835   3.080  9.38316E-01  1.00255E+00 -6.42364E-02
    9024.209     31.780   3.120  9.31021E-01  1.00141E+00 -7.03859E-02
    9025.166     32.737   3.160  9.24237E-01  1.00036E+00 -7.61207E-02
    9026.136     33.706   3.200  9.18075E-01  9.99368E-01 -8.12926E-02
    9027.117     34.688   3.240  9.12889E-01  9.98480E-01 -8.55903E-02
    9028.111     35.681   3.280  9.08948E-01  9.97653E-01 -8.87056E-02
    9029.117     36.687   3.320  9.06493E-01  9.96933E-01 -9.04398E-02
    9030.135     37.705   3.360  9.05597E-01  9.96298E-01 -9.07012E-02
    9031.165     38.735   3.400  9.06142E-01  9.95750E-01 -8.96082E-02
    9032.207     39.778   3.440  9.07694E-01  9.95309E-01 -8.76155E-02
    9033.262     40.832   3.480  9.09864E-01  9.94955E-01 -8.50903E-02
    9034.329     41.899   3.520  9.12401E-01  9.94688E-01 -8.22867E-02
    9035.408     42.978   3.560  9.15194E-01  9.94508E-01 -7.93138E-02
    9036.499     44.069   3.600  9.18382E-01  9.94437E-01 -7.60542E-02
    9037.602     45.173   3.640  9.22220E-01  9.94453E-01 -7.22332E-02
    9038.718     46.288   3.680  9.27149E-01  9.94576E-01 -6.74269E-02
    9039.845     47.416   3.720  9.33521E-01  9.94761E-01 -6.12395E-02
    9040.985     48.556   3.760  9.41837E-01  9.95029E-01 -5.31923E-02
    9042.138     49.708   3.800  9.52508E-01  9.95402E-01 -4.28940E-02
    9043.302     50.873   3.840  9.65569E-01  9.95855E-01 -3.02865E-02
    9044.478     52.049   3.880  9.80688E-01  9.96365E-01 -1.56766E-02
    9045.667     53.238   3.920  9.97184E-01  9.96952E-01  2.31983E-04
    9046.868     54.439   3.960  1.01405E+00  9.97616E-01  1.64383E-02
    9048.081     55.652   4.000  1.03025E+00  9.98354E-01  3.18977E-02
    9049.306     56.877   4.040  1.04491E+00  9.99142E-01  4.57709E-02
    9050.544     58.115   4.080  1.05743E+00  9.99977E-01  5.74516E-02
    9051.794     59.364   4.120  1.06736E+00  1.00088E+00  6.64757E-02
    9053.055     60.626   4.160  1.07455E+00  1.00183E+00  7.27257E-02
    9054.329     61.900   4.200  1.07919E+00  1.00281E+00  7.63714E-02
    9055.616     63.186   4.240  1.08180E+00  1.00384E+00  7.79569E-02
    9056.914     64.485   4.280  1.08318E+00  1.00488E+00  7.83017E-02
    9058.225     65.795   4.320  1.08423E+00  1.00597E+00  7.82531E-02
    9059.548     67.118   4.360  1.08541E+00  1.00706E+00  7.83505E-02
    9060.883     68.453   4.400  1.08683E+00  1.00819E+00  7.86438E-02
    9062.230     69.801   4.440  1.08816E+00  1.00930E+00  7.88532E-02
    9063.589     71.160   4.480  1.08880E+00  1.01042E+00  7.83819E-02
    9064.961     72.531   4.520  1.08815E+00  1.01155E+00  7.65933E-02
    9066.345     73.915   4.560  1.08572E+00  1.01266E+00  7.30622E-02
    9067.741     75.311   4.600  1.08146E+00  1.01377E+00  6.76960E-02
    9069.149     76.719   4.640  1.07563E+00  1.01486E+00  6.07662E-02
    9070.569     78.140   4.680  1.06875E+00  1.01592E+00  5.28279E-02
    9072.002     79.572   4.720  1.06138E+00  1.01695E+00  4.44343E-02
    9073.446     81.017   4.760  1.05382E+00  1.01795E+00  3.58642E-02
    9074.903     82.474   4.800  1.04595E+00  1.01892E+00  2.70306E-02
    9076.373     83.943   4.840  1.03739E+00  1.01983E+00  1.75667E-02
    9077.854     85.424   4.880  1.02789E+00  1.02071E+00  7.18353E-03
    9079.347     86.918   4.920  1.01747E+00  1.02152E+00 -4.04634E-03
    9080.853     88.424   4.960  1.00663E+00  1.02229E+00 -1.56553E-02
    9082.371     89.942   5.000  9.96065E-01  1.02300E+00 -2.69380E-02
    9083.901     91.472   5.040  9.86412E-01  1.02365E+00 -3.72350E-02
    9085.443     93.014   5.080  9.78136E-01  1.02424E+00 -4.61037E-02
    9086.998     94.568   5.120  9.71445E-01  1.02476E+00 -5.33121E-02
    9088.564     96.135   5.160  9.66417E-01  1.02522E+00 -5.88048E-02
    9090.143     97.714   5.200  9.62981E-01  1.02561E+00 -6.26272E-02
    9091.734     99.305   5.240  9.60960E-01  1.02592E+00 -6.49560E-02
    9093.338    100.908   5.280  9.60130E-01  1.02615E+00 -6.60154E-02
    9094.953    102.524   5.320  9.60367E-01  1.02632E+00 -6.59514E-02
    9096.581    104.151   5.360  9.61672E-01  1.02641E+00 -6.47426E-02
    9098.220    105.791   5.400  9.64124E-01  1.02643E+00 -6.23089E-02
    9099.873    107.443   5.440  9.67769E-01  1.02639E+00 -5.86255E-02
    9101.537    109.107   5.480  9.72527E-01  1.02625E+00 -5.37270E-02
    9103.213    110.784   5.520  9.78454E-01  1.02606E+00 -4.76077E-02
    9104.902    112.472   5.560  9.85545E-01  1.02582E+00 -4.02728E-02
    9106.602    114.173   5.600  9.93625E-01  1.02550E+00 -3.18732E-02
    9108.315    115.886   5.640  1.00224E+00  1.02510E+00 -2.28625E-02
    9110.041    117.611   5.680  1.01065E+00  1.02466E+00 -1.40073E-02
    9111.778    119.349   5.720  1.01789E+00  1.02414E+00 -6.25248E-03
    9113.527    121.098   5.760  1.02321E+00  1.02358E+00 -3.66145E-04
    9115.289    122.860   5.800  1.02637E+00  1.02297E+00  3.39522E-03
    9117.063    124.634   5.840  1.02767E+00  1.02230E+00  5.36615E-03
    9118.849    126.420   5.880  1.02788E+00  1.02162E+00  6.25771E-03
    9120.648    128.218   5.920  1.02775E+00  1.02088E+00  6.87472E-03
    9122.458    130.029   5.960  1.02797E+00  1.02010E+00  7.86716E-03
    9124.281    131.851   6.000  1.02887E+00  1.01928E+00  9.59110E-03
