# # comment:                                                     FEFF 9.9.1  
# # Source:
# # Structure
# # Reduced
# # space
# # abc:
# # angles:
# # sites:
# # POT  SCF 100  7.0000   0, screened core-hole, AFOLP (folp(0)= 1.150)
# # Abs   Z=29 Rmt= 1.234 Rnm= 1.326 K  shell
# # Pot 1 Z=39 Rmt= 1.583 Rnm= 1.676
# # Pot 2 Z=29 Rmt= 1.234 Rnm= 1.326
# # Pot 3 Z= 8 Rmt= 1.056 Rnm= 1.121
# # Gam_ch=1.729E+00 H-L exch Vi= 0.000E+00 Vr= 0.000E+00
# # Mu=-7.851E+00eV kf=2.078E+00 Vint=-1.624E+01eV Rs_int= 1.745
# FMS rfms= 9.0000
# # PATH  Rmax=-1.000,  Keep_limit= 0.00, Heap_limit 0.00  Pwcrit= 2.50%
#  S02=0.950  Temp=   0.00  Debye_temp=   0.00  Global_sig2= 0.00000
#  Energy zero shift, vr, vi    0.00000E+00   0.00000E+00
#  Curved wave amplitude ratio filter   4.000%
#     file         sig2 tot  cw amp ratio   deg  nlegs   reff  inp sig2
#     0/   0 paths used
#  xsedge+ 50, used to normalize mu           2.4513E-04
#  -----------------------------------------------------------------------
#  omega    e    k    mu    mu0     chi     @#
    8984.043    -11.661  -1.000  4.04636E-02  5.43436E-02 -1.38800E-02
    8984.342    -11.362  -0.960  4.27893E-02  5.82869E-02 -1.54976E-02
    8984.629    -11.076  -0.920  4.53189E-02  6.26672E-02 -1.73483E-02
    8984.903    -10.802  -0.880  4.80769E-02  6.75487E-02 -1.94718E-02
    8985.165    -10.539  -0.840  5.10909E-02  7.30060E-02 -2.19151E-02
    8985.415    -10.289  -0.800  5.43918E-02  7.91254E-02 -2.47336E-02
    8985.653    -10.052  -0.760  5.80136E-02  8.60061E-02 -2.79924E-02
    8985.878     -9.826  -0.720  6.19932E-02  9.37599E-02 -3.17667E-02
    8986.092     -9.613  -0.680  6.63691E-02  1.02510E-01 -3.61410E-02
    8986.293     -9.412  -0.640  7.11800E-02  1.12387E-01 -4.12067E-02
    8986.482     -9.223  -0.600  7.64613E-02  1.23517E-01 -4.70557E-02
    8986.659     -9.046  -0.560  8.22413E-02  1.36010E-01 -5.37687E-02
    8986.823     -8.881  -0.520  8.85343E-02  1.49930E-01 -6.13958E-02
    8986.976     -8.729  -0.480  9.53320E-02  1.65262E-01 -6.99304E-02
    8987.116     -8.589  -0.440  1.02594E-01  1.81872E-01 -7.92780E-02
    8987.244     -8.461  -0.400  1.10240E-01  1.99472E-01 -8.92317E-02
    8987.360     -8.345  -0.360  1.18141E-01  2.17608E-01 -9.94671E-02
    8987.463     -8.241  -0.320  1.26119E-01  2.35692E-01 -1.09572E-01
    8987.555     -8.150  -0.280  1.33960E-01  2.53069E-01 -1.19109E-01
    8987.634     -8.071  -0.240  1.41423E-01  2.69112E-01 -1.27689E-01
    8987.701     -8.003  -0.200  1.48258E-01  2.83292E-01 -1.35034E-01
    8987.756     -7.949  -0.160  1.54230E-01  2.95223E-01 -1.40993E-01
    8987.798     -7.906  -0.120  1.59129E-01  3.04656E-01 -1.45526E-01
    8987.829     -7.875  -0.080  1.62788E-01  3.11453E-01 -1.48665E-01
    8987.853     -7.851   0.000  1.65878E-01  3.16914E-01 -1.51036E-01
    8987.908     -7.796   0.120  1.72803E-01  3.29235E-01 -1.56432E-01
    8987.951     -7.754   0.160  1.78334E-01  3.38817E-01 -1.60482E-01
    8988.006     -7.699   0.200  1.85659E-01  3.51041E-01 -1.65382E-01
    8988.073     -7.632   0.240  1.94991E-01  3.65767E-01 -1.70776E-01
    8988.152     -7.552   0.280  2.06509E-01  3.82688E-01 -1.76179E-01
    8988.243     -7.461   0.320  2.20341E-01  4.01382E-01 -1.81041E-01
    8988.347     -7.357   0.360  2.36486E-01  4.21325E-01 -1.84839E-01
    8988.463     -7.241   0.400  2.54618E-01  4.41938E-01 -1.87320E-01
    8988.591     -7.113   0.440  2.73919E-01  4.62711E-01 -1.88792E-01
    8988.731     -6.973   0.480  2.93055E-01  4.83248E-01 -1.90193E-01
    8988.884     -6.821   0.520  3.10334E-01  5.03257E-01 -1.92922E-01
    8989.048     -6.656   0.560  3.24534E-01  5.22619E-01 -1.98085E-01
    8989.225     -6.479   0.600  3.35501E-01  5.41324E-01 -2.05822E-01
    8989.414     -6.291   0.640  3.44010E-01  5.59404E-01 -2.15394E-01
    8989.615     -6.089   0.680  3.50797E-01  5.76910E-01 -2.26113E-01
    8989.828     -5.876   0.720  3.55668E-01  5.93965E-01 -2.38297E-01
    8990.054     -5.650   0.760  3.57700E-01  6.10609E-01 -2.52909E-01
    8990.292     -5.413   0.800  3.56888E-01  6.26955E-01 -2.70067E-01
    8990.542     -5.163   0.840  3.54939E-01  6.43041E-01 -2.88102E-01
    8990.804     -4.901   0.880  3.54942E-01  6.58913E-01 -3.03971E-01
    8991.078     -4.626   0.920  3.59627E-01  6.74602E-01 -3.14975E-01
    8991.365     -4.340   0.960  3.69783E-01  6.90128E-01 -3.20346E-01
    8991.663     -4.041   1.000  3.84626E-01  7.05480E-01 -3.20854E-01
    8991.974     -3.730   1.040  4.03490E-01  7.20679E-01 -3.17189E-01
    8992.297     -3.407   1.080  4.26007E-01  7.35676E-01 -3.09669E-01
    8992.633     -3.072   1.120  4.51627E-01  7.50501E-01 -2.98874E-01
    8992.980     -2.724   1.160  4.78758E-01  7.65095E-01 -2.86337E-01
    8993.340     -2.365   1.200  5.04425E-01  7.79456E-01 -2.75031E-01
    8993.712     -1.993   1.240  5.27021E-01  7.93538E-01 -2.66517E-01
    8994.096     -1.609   1.280  5.49391E-01  8.07338E-01 -2.57946E-01
    8994.492     -1.213   1.320  5.75906E-01  8.20785E-01 -2.44879E-01
    8994.900     -0.804   1.360  6.09247E-01  8.33891E-01 -2.24644E-01
    8995.321     -0.384   1.400  6.48359E-01  8.46607E-01 -1.98248E-01
    8995.754      0.049   1.440  6.89926E-01  8.58926E-01 -1.69001E-01
    8996.199      0.494   1.480  7.35246E-01  8.70797E-01 -1.35551E-01
    8996.656      0.952   1.520  7.87505E-01  8.82233E-01 -9.47275E-02
    8997.125      1.421   1.560  8.43104E-01  8.93166E-01 -5.00618E-02
    8997.607      1.902   1.600  8.96091E-01  9.03631E-01 -7.53989E-03
    8998.101      2.396   1.640  9.50117E-01  9.13584E-01  3.65331E-02
    8998.607      2.902   1.680  1.01888E+00  9.23020E-01  9.58587E-02
    8999.125      3.420   1.720  1.10858E+00  9.31938E-01  1.76645E-01
    8999.655      3.951   1.760  1.20547E+00  9.40338E-01  2.65133E-01
    9000.198      4.493   1.800  1.28305E+00  9.48200E-01  3.34853E-01
    9000.752      5.048   1.840  1.32413E+00  9.55547E-01  3.68584E-01
    9001.319      5.615   1.880  1.33148E+00  9.62383E-01  3.69102E-01
    9001.898      6.194   1.920  1.32669E+00  9.68711E-01  3.57976E-01
    9002.490      6.785   1.960  1.32845E+00  9.74537E-01  3.53911E-01
    9003.093      7.389   2.000  1.32389E+00  9.79867E-01  3.44027E-01
    9003.709      8.005   2.040  1.29522E+00  9.84728E-01  3.10487E-01
    9004.337      8.632   2.080  1.25410E+00  9.89110E-01  2.64993E-01
    9004.977      9.273   2.120  1.21544E+00  9.93083E-01  2.22362E-01
    9005.629      9.925   2.160  1.18763E+00  9.96592E-01  1.91036E-01
    9006.294     10.589   2.200  1.18011E+00  9.99733E-01  1.80379E-01
    9006.970     11.266   2.240  1.19325E+00  1.00247E+00  1.90778E-01
    9007.659     11.955   2.280  1.21255E+00  1.00484E+00  2.07704E-01
    9008.360     12.656   2.320  1.21572E+00  1.00687E+00  2.08847E-01
    9009.073     13.369   2.360  1.19363E+00  1.00857E+00  1.85061E-01
    9009.799     14.094   2.400  1.15471E+00  1.00995E+00  1.44759E-01
    9010.536     14.832   2.440  1.11222E+00  1.01107E+00  1.01149E-01
    9011.286     15.582   2.480  1.07536E+00  1.01193E+00  6.34355E-02
    9012.048     16.344   2.520  1.04781E+00  1.01254E+00  3.52682E-02
    9012.822     17.118   2.560  1.02768E+00  1.01292E+00  1.47622E-02
    9013.609     17.904   2.600  1.01313E+00  1.01311E+00  1.89573E-05
    9014.407     18.703   2.640  1.00264E+00  1.01311E+00 -1.04685E-02
    9015.218     19.514   2.680  9.93891E-01  1.01294E+00 -1.90527E-02
    9016.041     20.337   2.720  9.84569E-01  1.01264E+00 -2.80706E-02
    9016.876     21.172   2.760  9.72975E-01  1.01221E+00 -3.92329E-02
    9017.724     22.019   2.800  9.58719E-01  1.01165E+00 -5.29364E-02
    9018.583     22.879   2.840  9.42854E-01  1.01099E+00 -6.81354E-02
    9019.455     23.750   2.880  9.26859E-01  1.01026E+00 -8.34013E-02
    9020.339     24.634   2.920  9.11714E-01  1.00945E+00 -9.77376E-02
    9021.235     25.530   2.960  8.98293E-01  1.00857E+00 -1.10279E-01
    9022.143     26.439   3.000  8.86998E-01  1.00767E+00 -1.20671E-01
    9023.064     27.359   3.040  8.77742E-01  1.00671E+00 -1.28964E-01
    9023.996     28.292   3.080  8.70543E-01  1.00575E+00 -1.35209E-01
    9024.941     29.237   3.120  8.65390E-01  1.00475E+00 -1.39357E-01
    9025.898     30.194   3.160  8.62348E-01  1.00376E+00 -1.41411E-01
    9026.868     31.163   3.200  8.61570E-01  1.00278E+00 -1.41205E-01
    9027.849     32.145   3.240  8.63285E-01  1.00182E+00 -1.38531E-01
    9028.843     33.138   3.280  8.67342E-01  1.00087E+00 -1.33524E-01
    9029.849     34.144   3.320  8.73572E-01  9.99927E-01 -1.26355E-01
    9030.867     35.162   3.360  8.81842E-01  9.99044E-01 -1.17202E-01
    9031.897     36.192   3.400  8.91851E-01  9.98178E-01 -1.06328E-01
    9032.939     37.235   3.440  9.03221E-01  9.97373E-01 -9.41516E-02
    9033.994     38.289   3.480  9.15663E-01  9.96589E-01 -8.09261E-02
    9035.061     39.356   3.520  9.28951E-01  9.95870E-01 -6.69191E-02
    9036.140     40.435   3.560  9.42694E-01  9.95198E-01 -5.25034E-02
    9037.231     41.526   3.600  9.56622E-01  9.94594E-01 -3.79716E-02
    9038.334     42.630   3.640  9.70448E-01  9.94039E-01 -2.35911E-02
    9039.450     43.745   3.680  9.83808E-01  9.93553E-01 -9.74498E-03
    9040.577     44.873   3.720  9.96205E-01  9.93116E-01  3.08866E-03
    9041.717     46.013   3.760  1.00737E+00  9.92728E-01  1.46372E-02
    9042.870     47.165   3.800  1.01719E+00  9.92412E-01  2.47733E-02
    9044.034     48.329   3.840  1.02567E+00  9.92169E-01  3.35019E-02
    9045.210     49.506   3.880  1.03295E+00  9.91998E-01  4.09503E-02
    9046.399     50.695   3.920  1.03907E+00  9.91857E-01  4.72138E-02
    9047.600     51.896   3.960  1.04422E+00  9.91807E-01  5.24123E-02
    9048.813     53.109   4.000  1.04860E+00  9.91805E-01  5.67971E-02
    9050.038     54.334   4.040  1.05248E+00  9.91851E-01  6.06274E-02
    9051.276     55.571   4.080  1.05601E+00  9.91965E-01  6.40401E-02
    9052.526     56.821   4.120  1.05914E+00  9.92127E-01  6.70133E-02
    9053.787     58.083   4.160  1.06187E+00  9.92333E-01  6.95357E-02
    9055.061     59.357   4.200  1.06407E+00  9.92604E-01  7.14642E-02
    9056.348     60.643   4.240  1.06549E+00  9.92896E-01  7.25975E-02
    9057.646     61.942   4.280  1.06598E+00  9.93253E-01  7.27302E-02
    9058.957     63.252   4.320  1.06535E+00  9.93650E-01  7.17023E-02
    9060.280     64.575   4.360  1.06355E+00  9.94087E-01  6.94605E-02
    9061.615     65.910   4.400  1.06069E+00  9.94560E-01  6.61301E-02
    9062.962     67.257   4.440  1.05703E+00  9.95046E-01  6.19864E-02
    9064.321     68.617   4.480  1.05276E+00  9.95567E-01  5.71965E-02
    9065.693     69.988   4.520  1.04787E+00  9.96119E-01  5.17542E-02
    9067.077     71.372   4.560  1.04224E+00  9.96682E-01  4.55585E-02
    9068.473     72.768   4.600  1.03590E+00  9.97274E-01  3.86236E-02
    9069.881     74.176   4.640  1.02910E+00  9.97871E-01  3.12315E-02
    9071.301     75.597   4.680  1.02234E+00  9.98473E-01  2.38685E-02
    9072.734     77.029   4.720  1.01607E+00  9.99099E-01  1.69720E-02
    9074.178     78.474   4.760  1.01043E+00  9.99726E-01  1.07060E-02
    9075.635     79.931   4.800  1.00526E+00  1.00033E+00  4.93065E-03
    9077.105     81.400   4.840  1.00028E+00  1.00095E+00 -6.71101E-04
    9078.586     82.881   4.880  9.95238E-01  1.00155E+00 -6.30850E-03
    9080.079     84.375   4.920  9.90233E-01  1.00213E+00 -1.19007E-02
    9081.585     85.881   4.960  9.85497E-01  1.00269E+00 -1.71934E-02
    9083.103     87.399   5.000  9.81220E-01  1.00324E+00 -2.20199E-02
    9084.633     88.929   5.040  9.77360E-01  1.00378E+00 -2.64199E-02
    9086.175     90.471   5.080  9.73749E-01  1.00429E+00 -3.05364E-02
    9087.730     92.025   5.120  9.70323E-01  1.00476E+00 -3.44326E-02
    9089.296     93.592   5.160  9.67156E-01  1.00521E+00 -3.80565E-02
    9090.875     95.171   5.200  9.64365E-01  1.00563E+00 -4.12676E-02
    9092.466     96.762   5.240  9.62106E-01  1.00601E+00 -4.39065E-02
    9094.070     98.365   5.280  9.60644E-01  1.00635E+00 -4.57084E-02
    9095.685     99.981   5.320  9.60346E-01  1.00665E+00 -4.63053E-02
    9097.313    101.608   5.360  9.61606E-01  1.00691E+00 -4.53031E-02
    9098.952    103.248   5.400  9.64604E-01  1.00712E+00 -4.25198E-02
    9100.604    104.900   5.440  9.69166E-01  1.00730E+00 -3.81325E-02
    9102.269    106.564   5.480  9.74701E-01  1.00743E+00 -3.27301E-02
    9103.945    108.241   5.520  9.80384E-01  1.00752E+00 -2.71375E-02
    9105.634    109.929   5.560  9.85386E-01  1.00757E+00 -2.21818E-02
    9107.334    111.630   5.600  9.89120E-01  1.00755E+00 -1.84293E-02
    9109.047    113.343   5.640  9.91398E-01  1.00751E+00 -1.61108E-02
    9110.773    115.068   5.680  9.92218E-01  1.00740E+00 -1.51841E-02
    9112.510    116.806   5.720  9.91807E-01  1.00726E+00 -1.54483E-02
    9114.259    118.555   5.760  9.90574E-01  1.00709E+00 -1.65167E-02
    9116.021    120.317   5.800  9.89020E-01  1.00686E+00 -1.78426E-02
    9117.795    122.091   5.840  9.87755E-01  1.00659E+00 -1.88374E-02
    9119.581    123.877   5.880  9.87239E-01  1.00628E+00 -1.90454E-02
    9121.380    125.675   5.920  9.87730E-01  1.00594E+00 -1.82094E-02
    9123.190    127.486   5.960  9.89344E-01  1.00556E+00 -1.62121E-02
    9125.013    129.308   6.000  9.92251E-01  1.00511E+00 -1.28574E-02
