# # comment:                                                     FEFF 9.9.1  
# # Source:
# # Structure
# # Reduced
# # space
# # abc:
# # angles:
# # sites:
# # POT  SCF 100  7.0000   0, screened core-hole, AFOLP (folp(0)= 1.150)
# # Abs   Z=29 Rmt= 1.161 Rnm= 1.339 K  shell
# # Pot 1 Z=37 Rmt= 2.076 Rnm= 2.124
# # Pot 2 Z=29 Rmt= 1.164 Rnm= 1.341
# # Pot 3 Z= 8 Rmt= 1.023 Rnm= 1.120
# # Gam_ch=1.729E+00 H-L exch Vi= 0.000E+00 Vr= 0.000E+00
# # Mu=-7.033E+00eV kf=1.915E+00 Vint=-1.446E+01eV Rs_int= 1.894
# FMS rfms= 9.0000
# # PATH  Rmax=-1.000,  Keep_limit= 0.00, Heap_limit 0.00  Pwcrit= 2.50%
#  S02=0.950  Temp=   0.00  Debye_temp=   0.00  Global_sig2= 0.00000
#  Energy zero shift, vr, vi    0.00000E+00   0.00000E+00
#  Curved wave amplitude ratio filter   4.000%
#     file         sig2 tot  cw amp ratio   deg  nlegs   reff  inp sig2
#     0/   0 paths used
#  xsedge+ 50, used to normalize mu           2.4091E-04
#  -----------------------------------------------------------------------
#  omega    e    k    mu    mu0     chi     @#
    8984.375    -10.843  -1.000  4.95475E-02  6.00716E-02 -1.05240E-02
    8984.674    -10.545  -0.960  5.29084E-02  6.45033E-02 -1.15949E-02
    8984.961    -10.258  -0.920  5.66339E-02  6.94277E-02 -1.27938E-02
    8985.235     -9.984  -0.880  6.07789E-02  7.49164E-02 -1.41375E-02
    8985.497     -9.722  -0.840  6.54082E-02  8.10532E-02 -1.56450E-02
    8985.747     -9.472  -0.800  7.05971E-02  8.79348E-02 -1.73377E-02
    8985.985     -9.234  -0.760  7.64325E-02  9.56720E-02 -1.92395E-02
    8986.210     -9.009  -0.720  8.30135E-02  1.04390E-01 -2.13766E-02
    8986.424     -8.795  -0.680  9.04497E-02  1.14226E-01 -2.37767E-02
    8986.625     -8.594  -0.640  9.88581E-02  1.25326E-01 -2.64681E-02
    8986.814     -8.405  -0.600  1.08355E-01  1.37831E-01 -2.94766E-02
    8986.991     -8.228  -0.560  1.19042E-01  1.51863E-01 -3.28213E-02
    8987.155     -8.064  -0.520  1.30986E-01  1.67493E-01 -3.65074E-02
    8987.308     -7.911  -0.480  1.44187E-01  1.84704E-01 -4.05172E-02
    8987.448     -7.771  -0.440  1.58546E-01  2.03345E-01 -4.47993E-02
    8987.576     -7.643  -0.400  1.73833E-01  2.23094E-01 -4.92614E-02
    8987.692     -7.527  -0.360  1.89675E-01  2.43446E-01 -5.37710E-02
    8987.795     -7.424  -0.320  2.05572E-01  2.63741E-01 -5.81691E-02
    8987.887     -7.332  -0.280  2.20955E-01  2.83249E-01 -6.22943E-02
    8987.966     -7.253  -0.240  2.35257E-01  3.01265E-01 -6.60087E-02
    8988.033     -7.186  -0.200  2.47983E-01  3.17197E-01 -6.92146E-02
    8988.088     -7.131  -0.160  2.58754E-01  3.30609E-01 -7.18546E-02
    8988.130     -7.088  -0.120  2.67316E-01  3.41218E-01 -7.39014E-02
    8988.161     -7.058  -0.080  2.73519E-01  3.48866E-01 -7.53462E-02
    8988.185     -7.033   0.000  2.78546E-01  3.55013E-01 -7.64679E-02
    8988.240     -6.979   0.120  2.89522E-01  3.68878E-01 -7.93561E-02
    8988.283     -6.936   0.160  2.98099E-01  3.79679E-01 -8.15799E-02
    8988.338     -6.881   0.200  3.09001E-01  3.93461E-01 -8.44605E-02
    8988.405     -6.814   0.240  3.22049E-01  4.10097E-01 -8.80485E-02
    8988.484     -6.735   0.280  3.36779E-01  4.29236E-01 -9.24568E-02
    8988.575     -6.643   0.320  3.52493E-01  4.50419E-01 -9.79267E-02
    8988.679     -6.540   0.360  3.68149E-01  4.73057E-01 -1.04909E-01
    8988.795     -6.424   0.400  3.82481E-01  4.96559E-01 -1.14079E-01
    8988.923     -6.296   0.440  3.94109E-01  5.20322E-01 -1.26214E-01
    8989.063     -6.156   0.480  4.01996E-01  5.43891E-01 -1.41895E-01
    8989.216     -6.003   0.520  4.05981E-01  5.66986E-01 -1.61006E-01
    8989.380     -5.839   0.560  4.07063E-01  5.89476E-01 -1.82413E-01
    8989.557     -5.662   0.600  4.07162E-01  6.11256E-01 -2.04094E-01
    8989.746     -5.473   0.640  4.08567E-01  6.32421E-01 -2.23854E-01
    8989.947     -5.272   0.680  4.12904E-01  6.52980E-01 -2.40076E-01
    8990.160     -5.058   0.720  4.20908E-01  6.73058E-01 -2.52149E-01
    8990.386     -4.833   0.760  4.32483E-01  6.92694E-01 -2.60211E-01
    8990.624     -4.595   0.800  4.47582E-01  7.11957E-01 -2.64375E-01
    8990.874     -4.345   0.840  4.66605E-01  7.30883E-01 -2.64278E-01
    8991.136     -4.083   0.880  4.90053E-01  7.49510E-01 -2.59457E-01
    8991.410     -3.809   0.920  5.17460E-01  7.67821E-01 -2.50362E-01
    8991.697     -3.522   0.960  5.47221E-01  7.85850E-01 -2.38629E-01
    8991.995     -3.224   1.000  5.77429E-01  8.03534E-01 -2.26105E-01
    8992.306     -2.913   1.040  6.06921E-01  8.20906E-01 -2.13985E-01
    8992.629     -2.590   1.080  6.33759E-01  8.37887E-01 -2.04127E-01
    8992.965     -2.254   1.120  6.54129E-01  8.54434E-01 -2.00305E-01
    8993.312     -1.907   1.160  6.65438E-01  8.70543E-01 -2.05105E-01
    8993.672     -1.547   1.200  6.70254E-01  8.86164E-01 -2.15910E-01
    8994.044     -1.175   1.240  6.74872E-01  9.01244E-01 -2.26372E-01
    8994.428     -0.791   1.280  6.85596E-01  9.15751E-01 -2.30155E-01
    8994.824     -0.395   1.320  7.06855E-01  9.29633E-01 -2.22778E-01
    8995.232      0.013   1.360  7.40402E-01  9.42858E-01 -2.02456E-01
    8995.653      0.434   1.400  7.84652E-01  9.55417E-01 -1.70764E-01
    8996.086      0.867   1.440  8.33758E-01  9.67281E-01 -1.33523E-01
    8996.531      1.312   1.480  8.78196E-01  9.78425E-01 -1.00229E-01
    8996.988      1.769   1.520  9.11107E-01  9.88821E-01 -7.77144E-02
    8997.457      2.238   1.560  9.32548E-01  9.98470E-01 -6.59221E-02
    8997.939      2.720   1.600  9.44485E-01  1.00735E+00 -6.28645E-02
    8998.433      3.214   1.640  9.50997E-01  1.01551E+00 -6.45093E-02
    8998.939      3.720   1.680  9.57563E-01  1.02292E+00 -6.53605E-02
    8999.457      4.238   1.720  9.70941E-01  1.02959E+00 -5.86474E-02
    8999.987      4.768   1.760  9.96989E-01  1.03555E+00 -3.85612E-02
    9000.530      5.311   1.800  1.03652E+00  1.04082E+00 -4.30195E-03
    9001.084      5.866   1.840  1.08279E+00  1.04541E+00  3.73760E-02
    9001.651      6.433   1.880  1.12635E+00  1.04934E+00  7.70132E-02
    9002.230      7.012   1.920  1.16317E+00  1.05266E+00  1.10514E-01
    9002.822      7.603   1.960  1.19485E+00  1.05540E+00  1.39446E-01
    9003.425      8.206   2.000  1.22183E+00  1.05757E+00  1.64262E-01
    9004.041      8.822   2.040  1.24086E+00  1.05920E+00  1.81658E-01
    9004.669      9.450   2.080  1.24852E+00  1.06035E+00  1.88170E-01
    9005.309     10.090   2.120  1.24627E+00  1.06106E+00  1.85213E-01
    9005.961     10.742   2.160  1.24061E+00  1.06132E+00  1.79296E-01
    9006.626     11.407   2.200  1.23825E+00  1.06119E+00  1.77062E-01
    9007.302     12.083   2.240  1.24141E+00  1.06069E+00  1.80715E-01
    9007.991     12.772   2.280  1.24549E+00  1.05989E+00  1.85600E-01
    9008.692     13.473   2.320  1.24242E+00  1.05878E+00  1.83636E-01
    9009.405     14.187   2.360  1.22610E+00  1.05742E+00  1.68678E-01
    9010.131     14.912   2.400  1.20270E+00  1.05582E+00  1.46881E-01
    9010.868     15.650   2.440  1.17775E+00  1.05403E+00  1.23724E-01
    9011.618     16.399   2.480  1.15420E+00  1.05204E+00  1.02155E-01
    9012.380     17.161   2.520  1.13268E+00  1.04991E+00  8.27671E-02
    9013.154     17.936   2.560  1.11307E+00  1.04766E+00  6.54065E-02
    9013.941     18.722   2.600  1.09539E+00  1.04531E+00  5.00800E-02
    9014.739     19.521   2.640  1.08022E+00  1.04288E+00  3.73388E-02
    9015.550     20.331   2.680  1.06707E+00  1.04037E+00  2.67026E-02
    9016.373     21.154   2.720  1.05581E+00  1.03782E+00  1.79927E-02
    9017.208     21.989   2.760  1.04620E+00  1.03525E+00  1.09468E-02
    9018.056     22.837   2.800  1.03765E+00  1.03268E+00  4.96866E-03
    9018.915     23.696   2.840  1.02963E+00  1.03012E+00 -4.88474E-04
    9019.787     24.568   2.880  1.02191E+00  1.02758E+00 -5.67218E-03
    9020.671     25.452   2.920  1.01430E+00  1.02506E+00 -1.07582E-02
    9021.567     26.348   2.960  1.00714E+00  1.02260E+00 -1.54605E-02
    9022.475     27.256   3.000  1.00083E+00  1.02019E+00 -1.93621E-02
    9023.396     28.177   3.040  9.95669E-01  1.01786E+00 -2.21900E-02
    9024.328     29.110   3.080  9.91611E-01  1.01560E+00 -2.39928E-02
    9025.273     30.054   3.120  9.88433E-01  1.01343E+00 -2.49982E-02
    9026.230     31.011   3.160  9.85548E-01  1.01134E+00 -2.57942E-02
    9027.200     31.981   3.200  9.82288E-01  1.00934E+00 -2.70557E-02
    9028.181     32.962   3.240  9.78220E-01  1.00746E+00 -2.92400E-02
    9029.175     33.956   3.280  9.73080E-01  1.00569E+00 -3.26122E-02
    9030.180     34.962   3.320  9.66788E-01  1.00404E+00 -3.72537E-02
    9031.199     35.980   3.360  9.59433E-01  1.00249E+00 -4.30565E-02
    9032.229     37.010   3.400  9.51385E-01  1.00106E+00 -4.96737E-02
    9033.271     38.052   3.440  9.42953E-01  9.99750E-01 -5.67967E-02
    9034.326     39.107   3.480  9.34647E-01  9.98586E-01 -6.39382E-02
    9035.393     40.174   3.520  9.27061E-01  9.97524E-01 -7.04621E-02
    9036.472     41.253   3.560  9.20771E-01  9.96585E-01 -7.58145E-02
    9037.563     42.344   3.600  9.16126E-01  9.95772E-01 -7.96458E-02
    9038.666     43.447   3.640  9.13335E-01  9.95104E-01 -8.17685E-02
    9039.782     44.563   3.680  9.12296E-01  9.94539E-01 -8.22433E-02
    9040.909     45.691   3.720  9.12817E-01  9.94120E-01 -8.13028E-02
    9042.049     46.831   3.760  9.14671E-01  9.93803E-01 -7.91317E-02
    9043.201     47.983   3.800  9.17854E-01  9.93628E-01 -7.57736E-02
    9044.366     49.147   3.840  9.22395E-01  9.93552E-01 -7.11572E-02
    9045.542     50.324   3.880  9.28471E-01  9.93596E-01 -6.51246E-02
    9046.731     51.512   3.920  9.36295E-01  9.93759E-01 -5.74644E-02
    9047.932     52.713   3.960  9.45877E-01  9.94018E-01 -4.81407E-02
    9049.145     53.926   4.000  9.57086E-01  9.94412E-01 -3.73266E-02
    9050.370     55.152   4.040  9.69455E-01  9.94877E-01 -2.54219E-02
    9051.608     56.389   4.080  9.82455E-01  9.95452E-01 -1.29964E-02
    9052.858     57.639   4.120  9.95354E-01  9.96117E-01 -7.62192E-04
    9054.119     58.901   4.160  1.00749E+00  9.96889E-01  1.05990E-02
    9055.393     60.175   4.200  1.01829E+00  9.97722E-01  2.05626E-02
    9056.680     61.461   4.240  1.02755E+00  9.98659E-01  2.88875E-02
    9057.978     62.759   4.280  1.03527E+00  9.99652E-01  3.56220E-02
    9059.289     64.070   4.320  1.04176E+00  1.00072E+00  4.10364E-02
    9060.612     65.393   4.360  1.04730E+00  1.00186E+00  4.54342E-02
    9061.947     66.728   4.400  1.05196E+00  1.00303E+00  4.89292E-02
    9063.294     68.075   4.440  1.05574E+00  1.00429E+00  5.14464E-02
    9064.653     69.434   4.480  1.05840E+00  1.00557E+00  5.28341E-02
    9066.025     70.806   4.520  1.05994E+00  1.00688E+00  5.30510E-02
    9067.409     72.190   4.560  1.06061E+00  1.00824E+00  5.23715E-02
    9068.805     73.586   4.600  1.06089E+00  1.00960E+00  5.12880E-02
    9070.213     74.994   4.640  1.06130E+00  1.01102E+00  5.02758E-02
    9071.633     76.414   4.680  1.06201E+00  1.01242E+00  4.95847E-02
    9073.066     77.847   4.720  1.06300E+00  1.01383E+00  4.91719E-02
    9074.510     79.292   4.760  1.06397E+00  1.01525E+00  4.87199E-02
    9075.967     80.749   4.800  1.06449E+00  1.01665E+00  4.78411E-02
    9077.436     82.218   4.840  1.06426E+00  1.01804E+00  4.62197E-02
    9078.918     83.699   4.880  1.06310E+00  1.01943E+00  4.36748E-02
    9080.411     85.192   4.920  1.06102E+00  1.02078E+00  4.02442E-02
    9081.917     86.698   4.960  1.05825E+00  1.02209E+00  3.61569E-02
    9083.435     88.216   5.000  1.05508E+00  1.02339E+00  3.16916E-02
    9084.965     89.746   5.040  1.05169E+00  1.02462E+00  2.70776E-02
    9086.507     91.288   5.080  1.04840E+00  1.02580E+00  2.26031E-02
    9088.062     92.843   5.120  1.04491E+00  1.02693E+00  1.79753E-02
    9089.628     94.410   5.160  1.04087E+00  1.02800E+00  1.28744E-02
    9091.207     95.988   5.200  1.03581E+00  1.02901E+00  6.80489E-03
    9092.798     97.580   5.240  1.02931E+00  1.02994E+00 -6.32121E-04
    9094.402     99.183   5.280  1.02142E+00  1.03082E+00 -9.40349E-03
    9096.017    100.798   5.320  1.01268E+00  1.03162E+00 -1.89401E-02
    9097.645    102.426   5.360  1.00384E+00  1.03232E+00 -2.84782E-02
    9099.284    104.066   5.400  9.96276E-01  1.03295E+00 -3.66745E-02
    9100.936    105.718   5.440  9.90594E-01  1.03350E+00 -4.29082E-02
    9102.601    107.382   5.480  9.87214E-01  1.03397E+00 -4.67555E-02
    9104.277    109.058   5.520  9.86121E-01  1.03433E+00 -4.82070E-02
    9105.966    110.747   5.560  9.87016E-01  1.03462E+00 -4.76076E-02
    9107.666    112.448   5.600  9.89431E-01  1.03481E+00 -4.53794E-02
    9109.379    114.161   5.640  9.93144E-01  1.03491E+00 -4.17673E-02
    9111.105    115.886   5.680  9.98226E-01  1.03493E+00 -3.66994E-02
    9112.842    117.623   5.720  1.00482E+00  1.03485E+00 -3.00386E-02
    9114.591    119.373   5.760  1.01275E+00  1.03468E+00 -2.19288E-02
    9116.353    121.134   5.800  1.02148E+00  1.03444E+00 -1.29595E-02
    9118.127    122.908   5.840  1.03008E+00  1.03410E+00 -4.01918E-03
    9119.913    124.694   5.880  1.03769E+00  1.03367E+00  4.01707E-03
    9121.712    126.493   5.920  1.04373E+00  1.03319E+00  1.05407E-02
    9123.522    128.303   5.960  1.04787E+00  1.03260E+00  1.52739E-02
    9125.345    130.126   6.000  1.05002E+00  1.03189E+00  1.81311E-02
