# # comment:                                                     FEFF 9.9.1  
# # Source:
# # Structure
# # Reduced
# # space
# # abc:
# # angles:
# # sites:
# # POT  SCF 100  7.0000   0, screened core-hole, AFOLP (folp(0)= 1.150)
# # Abs   Z=29 Rmt= 1.271 Rnm= 1.361 K  shell
# # Pot 1 Z=29 Rmt= 1.263 Rnm= 1.370
# # Pot 2 Z=34 Rmt= 1.091 Rnm= 1.336
# # Pot 3 Z=17 Rmt= 1.439 Rnm= 1.561
# # Pot 4 Z= 8 Rmt= 1.028 Rnm= 1.122
# # Gam_ch=1.729E+00 H-L exch Vi= 0.000E+00 Vr= 0.000E+00
# # Mu=-6.609E+00eV kf=2.067E+00 Vint=-1.395E+01eV Rs_int= 1.754
# FMS rfms= 9.0000
# # PATH  Rmax=-1.000,  Keep_limit= 0.00, Heap_limit 0.00  Pwcrit= 2.50%
#  S02=0.950  Temp=   0.00  Debye_temp=   0.00  Global_sig2= 0.00000
#  Energy zero shift, vr, vi    0.00000E+00   0.00000E+00
#  Curved wave amplitude ratio filter   4.000%
#     file         sig2 tot  cw amp ratio   deg  nlegs   reff  inp sig2
#     0/   0 paths used
#  xsedge+ 50, used to normalize mu           2.4381E-04
#  -----------------------------------------------------------------------
#  omega    e    k    mu    mu0     chi     @#
    8983.398    -10.419  -1.000  3.65226E-02  5.46142E-02 -1.80916E-02
    8983.697    -10.121  -0.960  3.82529E-02  5.85646E-02 -2.03117E-02
    8983.984     -9.834  -0.920  4.00894E-02  6.29498E-02 -2.28604E-02
    8984.258     -9.560  -0.880  4.20408E-02  6.78331E-02 -2.57923E-02
    8984.520     -9.298  -0.840  4.41165E-02  7.32881E-02 -2.91715E-02
    8984.770     -9.048  -0.800  4.63271E-02  7.93999E-02 -3.30728E-02
    8985.008     -8.810  -0.760  4.86838E-02  8.62660E-02 -3.75823E-02
    8985.233     -8.585  -0.720  5.11988E-02  9.39966E-02 -4.27978E-02
    8985.447     -8.371  -0.680  5.38848E-02  1.02713E-01 -4.88278E-02
    8985.648     -8.170  -0.640  5.67540E-02  1.12542E-01 -5.57876E-02
    8985.837     -7.981  -0.600  5.98167E-02  1.23608E-01 -6.37917E-02
    8986.014     -7.804  -0.560  6.30790E-02  1.36019E-01 -7.29404E-02
    8986.178     -7.640  -0.520  6.65388E-02  1.49837E-01 -8.32986E-02
    8986.331     -7.487  -0.480  7.01808E-02  1.65047E-01 -9.48661E-02
    8986.471     -7.347  -0.440  7.39707E-02  1.81515E-01 -1.07544E-01
    8986.599     -7.219  -0.400  7.78508E-02  1.98957E-01 -1.21106E-01
    8986.715     -7.103  -0.360  8.17387E-02  2.16927E-01 -1.35189E-01
    8986.818     -7.000  -0.320  8.55327E-02  2.34846E-01 -1.49314E-01
    8986.910     -6.908  -0.280  8.91231E-02  2.52069E-01 -1.62946E-01
    8986.989     -6.829  -0.240  9.24062E-02  2.67974E-01 -1.75568E-01
    8987.056     -6.762  -0.200  9.52955E-02  2.82040E-01 -1.86744E-01
    8987.111     -6.707  -0.160  9.77272E-02  2.93881E-01 -1.96153E-01
    8987.154     -6.664  -0.120  9.96578E-02  3.03247E-01 -2.03590E-01
    8987.184     -6.634  -0.080  1.01060E-01  3.10000E-01 -2.08940E-01
    8987.208     -6.609   0.000  1.02210E-01  3.15428E-01 -2.13219E-01
    8987.263     -6.555   0.120  1.04840E-01  3.27669E-01 -2.22829E-01
    8987.306     -6.512   0.160  1.06847E-01  3.37203E-01 -2.30356E-01
    8987.361     -6.457   0.200  1.09409E-01  3.49392E-01 -2.39983E-01
    8987.428     -6.390   0.240  1.12501E-01  3.64068E-01 -2.51567E-01
    8987.507     -6.311   0.280  1.16151E-01  3.80979E-01 -2.64828E-01
    8987.599     -6.219   0.320  1.20335E-01  3.99705E-01 -2.79370E-01
    8987.702     -6.116   0.360  1.25135E-01  4.19743E-01 -2.94608E-01
    8987.818     -6.000   0.400  1.30667E-01  4.40537E-01 -3.09870E-01
    8987.946     -5.872   0.440  1.37182E-01  4.61594E-01 -3.24412E-01
    8988.086     -5.732   0.480  1.45005E-01  4.82513E-01 -3.37508E-01
    8988.239     -5.579   0.520  1.54601E-01  5.03048E-01 -3.48448E-01
    8988.403     -5.415   0.560  1.66341E-01  5.23045E-01 -3.56704E-01
    8988.580     -5.238   0.600  1.80619E-01  5.42487E-01 -3.61868E-01
    8988.769     -5.049   0.640  1.97472E-01  5.61381E-01 -3.63910E-01
    8988.970     -4.848   0.680  2.16675E-01  5.79831E-01 -3.63156E-01
    8989.184     -4.634   0.720  2.37604E-01  5.97868E-01 -3.60264E-01
    8989.409     -4.409   0.760  2.59595E-01  6.15563E-01 -3.55968E-01
    8989.647     -4.171   0.800  2.82285E-01  6.32999E-01 -3.50714E-01
    8989.897     -3.921   0.840  3.06031E-01  6.50203E-01 -3.44172E-01
    8990.159     -3.659   0.880  3.32073E-01  6.67189E-01 -3.35116E-01
    8990.433     -3.385   0.920  3.61676E-01  6.83979E-01 -3.22303E-01
    8990.720     -3.098   0.960  3.94475E-01  7.00563E-01 -3.06088E-01
    8991.018     -2.799   1.000  4.27931E-01  7.16961E-01 -2.89030E-01
    8991.329     -2.489   1.040  4.58939E-01  7.33125E-01 -2.74186E-01
    8991.652     -2.165   1.080  4.86668E-01  7.49039E-01 -2.62371E-01
    8991.988     -1.830   1.120  5.12439E-01  7.64663E-01 -2.52224E-01
    8992.335     -1.483   1.160  5.35949E-01  7.79993E-01 -2.44044E-01
    8992.695     -1.123   1.200  5.55232E-01  7.94981E-01 -2.39750E-01
    8993.067     -0.751   1.240  5.72596E-01  8.09558E-01 -2.36963E-01
    8993.451     -0.367   1.280  5.95050E-01  8.23755E-01 -2.28705E-01
    8993.847      0.029   1.320  6.29776E-01  8.37477E-01 -2.07701E-01
    8994.255      0.438   1.360  6.81366E-01  8.50718E-01 -1.69352E-01
    8994.676      0.858   1.400  7.50158E-01  8.63446E-01 -1.13287E-01
    8995.109      1.291   1.440  8.26477E-01  8.75650E-01 -4.91728E-02
    8995.554      1.736   1.480  8.90874E-01  8.87286E-01  3.58819E-03
    8996.011      2.193   1.520  9.29998E-01  8.98346E-01  3.16512E-02
    8996.480      2.663   1.560  9.49225E-01  9.08826E-01  4.03996E-02
    8996.962      3.144   1.600  9.63214E-01  9.18702E-01  4.45115E-02
    8997.456      3.638   1.640  9.83817E-01  9.27976E-01  5.58408E-02
    8997.962      4.144   1.680  1.02076E+00  9.36647E-01  8.41164E-02
    8998.480      4.662   1.720  1.08236E+00  9.44700E-01  1.37656E-01
    8999.010      5.192   1.760  1.17163E+00  9.52180E-01  2.19455E-01
    8999.553      5.735   1.800  1.28072E+00  9.59091E-01  3.21633E-01
    9000.108      6.290   1.840  1.38952E+00  9.65401E-01  4.24121E-01
    9000.674      6.857   1.880  1.46544E+00  9.71181E-01  4.94260E-01
    9001.254      7.436   1.920  1.48271E+00  9.76421E-01  5.06291E-01
    9001.845      8.027   1.960  1.45451E+00  9.81150E-01  4.73358E-01
    9002.448      8.631   2.000  1.40895E+00  9.85380E-01  4.23570E-01
    9003.064      9.246   2.040  1.35575E+00  9.89124E-01  3.66627E-01
    9003.692      9.874   2.080  1.29700E+00  9.92435E-01  3.04560E-01
    9004.332     10.514   2.120  1.23778E+00  9.95348E-01  2.42437E-01
    9004.984     11.166   2.160  1.18441E+00  9.97833E-01  1.86574E-01
    9005.649     11.831   2.200  1.14031E+00  9.99966E-01  1.40347E-01
    9006.325     12.508   2.240  1.10268E+00  1.00176E+00  1.00919E-01
    9007.014     13.196   2.280  1.06909E+00  1.00323E+00  6.58563E-02
    9007.715     13.897   2.320  1.04180E+00  1.00441E+00  3.73928E-02
    9008.429     14.611   2.360  1.02420E+00  1.00532E+00  1.88801E-02
    9009.154     15.336   2.400  1.01670E+00  1.00599E+00  1.07073E-02
    9009.892     16.074   2.440  1.01552E+00  1.00643E+00  9.09832E-03
    9010.641     16.823   2.480  1.01297E+00  1.00670E+00  6.27210E-03
    9011.403     17.585   2.520  1.00313E+00  1.00676E+00 -3.62433E-03
    9012.178     18.360   2.560  9.89195E-01  1.00670E+00 -1.74999E-02
    9012.964     19.146   2.600  9.74699E-01  1.00648E+00 -3.17843E-02
    9013.763     19.945   2.640  9.61618E-01  1.00615E+00 -4.45319E-02
    9014.573     20.755   2.680  9.50402E-01  1.00572E+00 -5.53216E-02
    9015.396     21.578   2.720  9.41020E-01  1.00521E+00 -6.41927E-02
    9016.231     22.413   2.760  9.33114E-01  1.00463E+00 -7.15130E-02
    9017.079     23.261   2.800  9.26417E-01  1.00401E+00 -7.75963E-02
    9017.938     24.120   2.840  9.20836E-01  1.00334E+00 -8.25039E-02
    9018.810     24.992   2.880  9.16149E-01  1.00265E+00 -8.65028E-02
    9019.694     25.876   2.920  9.11879E-01  1.00195E+00 -9.00758E-02
    9020.590     26.772   2.960  9.07992E-01  1.00123E+00 -9.32420E-02
    9021.498     27.680   3.000  9.04818E-01  1.00054E+00 -9.57171E-02
    9022.419     28.601   3.040  9.02863E-01  9.99843E-01 -9.69799E-02
    9023.351     29.534   3.080  9.02720E-01  9.99183E-01 -9.64629E-02
    9024.296     30.478   3.120  9.04391E-01  9.98556E-01 -9.41656E-02
    9025.253     31.436   3.160  9.07288E-01  9.97946E-01 -9.06582E-02
    9026.223     32.405   3.200  9.10837E-01  9.97396E-01 -8.65588E-02
    9027.204     33.386   3.240  9.14522E-01  9.96866E-01 -8.23445E-02
    9028.198     34.380   3.280  9.18086E-01  9.96404E-01 -7.83175E-02
    9029.204     35.386   3.320  9.21653E-01  9.96009E-01 -7.43560E-02
    9030.222     36.404   3.360  9.25481E-01  9.95642E-01 -7.01603E-02
    9031.252     37.434   3.400  9.29836E-01  9.95367E-01 -6.55308E-02
    9032.294     38.476   3.440  9.34636E-01  9.95140E-01 -6.05041E-02
    9033.349     39.531   3.480  9.39751E-01  9.94963E-01 -5.52125E-02
    9034.416     40.598   3.520  9.44998E-01  9.94859E-01 -4.98600E-02
    9035.495     41.677   3.560  9.50220E-01  9.94805E-01 -4.45847E-02
    9036.586     42.768   3.600  9.55663E-01  9.94845E-01 -3.91820E-02
    9037.689     43.871   3.640  9.61808E-01  9.94916E-01 -3.31078E-02
    9038.805     44.987   3.680  9.69296E-01  9.95079E-01 -2.57834E-02
    9039.933     46.115   3.720  9.78359E-01  9.95271E-01 -1.69113E-02
    9041.072     47.255   3.760  9.88929E-01  9.95553E-01 -6.62414E-03
    9042.225     48.407   3.800  1.00031E+00  9.95861E-01  4.45260E-03
    9043.389     49.571   3.840  1.01167E+00  9.96237E-01  1.54380E-02
    9044.565     50.748   3.880  1.02225E+00  9.96659E-01  2.55958E-02
    9045.754     51.936   3.920  1.03167E+00  9.97148E-01  3.45201E-02
    9046.955     53.137   3.960  1.03978E+00  9.97679E-01  4.20977E-02
    9048.168     54.350   4.000  1.04666E+00  9.98229E-01  4.84329E-02
    9049.393     55.576   4.040  1.05256E+00  9.98840E-01  5.37151E-02
    9050.631     56.813   4.080  1.05766E+00  9.99488E-01  5.81734E-02
    9051.881     58.063   4.120  1.06222E+00  1.00015E+00  6.20728E-02
    9053.142     59.325   4.160  1.06651E+00  1.00085E+00  6.56627E-02
    9054.417     60.599   4.200  1.07050E+00  1.00158E+00  6.89217E-02
    9055.703     61.885   4.240  1.07386E+00  1.00231E+00  7.15473E-02
    9057.001     63.183   4.280  1.07617E+00  1.00305E+00  7.31113E-02
    9058.312     64.494   4.320  1.07702E+00  1.00382E+00  7.32001E-02
    9059.635     65.817   4.360  1.07619E+00  1.00459E+00  7.15922E-02
    9060.970     67.152   4.400  1.07371E+00  1.00537E+00  6.83469E-02
    9062.317     68.499   4.440  1.06995E+00  1.00614E+00  6.38182E-02
    9063.676     69.858   4.480  1.06533E+00  1.00690E+00  5.84247E-02
    9065.048     71.230   4.520  1.06024E+00  1.00767E+00  5.25753E-02
    9066.432     72.614   4.560  1.05496E+00  1.00840E+00  4.65568E-02
    9067.828     74.010   4.600  1.04960E+00  1.00913E+00  4.04738E-02
    9069.236     75.418   4.640  1.04412E+00  1.00984E+00  3.42797E-02
    9070.656     76.838   4.680  1.03840E+00  1.01052E+00  2.78817E-02
    9072.089     78.271   4.720  1.03237E+00  1.01117E+00  2.12079E-02
    9073.534     79.716   4.760  1.02608E+00  1.01179E+00  1.42857E-02
    9074.990     81.173   4.800  1.01959E+00  1.01236E+00  7.22658E-03
    9076.460     82.642   4.840  1.01310E+00  1.01291E+00  1.84706E-04
    9077.941     84.123   4.880  1.00682E+00  1.01342E+00 -6.60194E-03
    9079.434     85.617   4.920  1.00094E+00  1.01386E+00 -1.29249E-02
    9080.940     87.122   4.960  9.95611E-01  1.01429E+00 -1.86761E-02
    9082.458     88.640   5.000  9.90793E-01  1.01467E+00 -2.38734E-02
    9083.988     90.170   5.040  9.86326E-01  1.01498E+00 -2.86529E-02
    9085.530     91.713   5.080  9.82014E-01  1.01524E+00 -3.32299E-02
    9087.085     93.267   5.120  9.77636E-01  1.01546E+00 -3.78291E-02
    9088.652     94.834   5.160  9.73094E-01  1.01564E+00 -4.25479E-02
    9090.230     96.413   5.200  9.68513E-01  1.01577E+00 -4.72588E-02
    9091.821     98.004   5.240  9.64173E-01  1.01583E+00 -5.16590E-02
    9093.425     99.607   5.280  9.60588E-01  1.01585E+00 -5.52576E-02
    9095.040    101.222   5.320  9.58368E-01  1.01581E+00 -5.74445E-02
    9096.668    102.850   5.360  9.58073E-01  1.01571E+00 -5.76401E-02
    9098.308    104.490   5.400  9.59947E-01  1.01559E+00 -5.56419E-02
    9099.960    106.142   5.440  9.63609E-01  1.01540E+00 -5.17897E-02
    9101.624    107.806   5.480  9.68281E-01  1.01516E+00 -4.68829E-02
    9103.300    109.482   5.520  9.73036E-01  1.01489E+00 -4.18497E-02
    9104.989    111.171   5.560  9.77143E-01  1.01456E+00 -3.74191E-02
    9106.690    112.872   5.600  9.80323E-01  1.01418E+00 -3.38520E-02
    9108.403    114.585   5.640  9.82835E-01  1.01377E+00 -3.09355E-02
    9110.128    116.310   5.680  9.85191E-01  1.01333E+00 -2.81369E-02
    9111.865    118.047   5.720  9.88013E-01  1.01285E+00 -2.48336E-02
    9113.615    119.797   5.760  9.91848E-01  1.01233E+00 -2.04813E-02
    9115.376    121.558   5.800  9.96981E-01  1.01180E+00 -1.48201E-02
    9117.150    123.332   5.840  1.00325E+00  1.01122E+00 -7.96267E-03
    9118.936    125.118   5.880  1.01031E+00  1.01065E+00 -3.37849E-04
    9120.735    126.917   5.920  1.01748E+00  1.01003E+00  7.44654E-03
    9122.545    128.727   5.960  1.02415E+00  1.00942E+00  1.47274E-02
    9124.368    130.550   6.000  1.02986E+00  1.00879E+00  2.10733E-02
