# # comment:                                                     FEFF 9.9.1  
# # Source:
# # Structure
# # Reduced
# # space
# # abc:
# # angles:
# # sites:
# # POT  SCF 100  7.0000   0, screened core-hole, AFOLP (folp(0)= 1.150)
# # Abs   Z=29 Rmt= 1.156 Rnm= 1.257 K  shell
# # Pot 1 Z= 3 Rmt= 1.267 Rnm= 1.325
# # Pot 2 Z=25 Rmt= 1.245 Rnm= 1.365
# # Pot 3 Z=29 Rmt= 1.237 Rnm= 1.306
# # Pot 4 Z= 8 Rmt= 1.036 Rnm= 1.106
# # Gam_ch=1.729E+00 H-L exch Vi= 0.000E+00 Vr= 0.000E+00
# # Mu=-1.061E+01eV kf=2.177E+00 Vint=-1.790E+01eV Rs_int= 1.666
# FMS rfms= 9.0000
# # PATH  Rmax=-1.000,  Keep_limit= 0.00, Heap_limit 0.00  Pwcrit= 2.50%
#  S02=0.950  Temp=   0.00  Debye_temp=   0.00  Global_sig2= 0.00000
#  Energy zero shift, vr, vi    0.00000E+00   0.00000E+00
#  Curved wave amplitude ratio filter   4.000%
#     file         sig2 tot  cw amp ratio   deg  nlegs   reff  inp sig2
#     0/   0 paths used
#  xsedge+ 50, used to normalize mu           2.4608E-04
#  -----------------------------------------------------------------------
#  omega    e    k    mu    mu0     chi     @#
    8984.901    -14.420  -1.000  3.04559E-02  5.08118E-02 -2.03559E-02
    8985.199    -14.122  -0.960  3.17610E-02  5.43685E-02 -2.26075E-02
    8985.486    -13.835  -0.920  3.31456E-02  5.83075E-02 -2.51618E-02
    8985.760    -13.561  -0.880  3.46180E-02  6.26837E-02 -2.80657E-02
    8986.022    -13.299  -0.840  3.61879E-02  6.75611E-02 -3.13733E-02
    8986.272    -13.049  -0.800  3.78664E-02  7.30135E-02 -3.51471E-02
    8986.510    -12.811  -0.760  3.96665E-02  7.91253E-02 -3.94588E-02
    8986.735    -12.585  -0.720  4.16029E-02  8.59920E-02 -4.43890E-02
    8986.949    -12.372  -0.680  4.36919E-02  9.37181E-02 -5.00262E-02
    8987.150    -12.171  -0.640  4.59502E-02  1.02414E-01 -5.64636E-02
    8987.339    -11.982  -0.600  4.83942E-02  1.12187E-01 -6.37929E-02
    8987.516    -11.805  -0.560  5.10363E-02  1.23129E-01 -7.20930E-02
    8987.680    -11.641  -0.520  5.38809E-02  1.35294E-01 -8.14130E-02
    8987.833    -11.488  -0.480  5.69182E-02  1.48666E-01 -9.17481E-02
    8987.973    -11.348  -0.440  6.01172E-02  1.63130E-01 -1.03013E-01
    8988.101    -11.220  -0.400  6.34200E-02  1.78437E-01 -1.15017E-01
    8988.217    -11.104  -0.360  6.67421E-02  1.94198E-01 -1.27456E-01
    8988.320    -11.000  -0.320  6.99788E-02  2.09909E-01 -1.39930E-01
    8988.412    -10.909  -0.280  7.30210E-02  2.25008E-01 -1.51987E-01
    8988.491    -10.830  -0.240  7.57720E-02  2.38953E-01 -1.63181E-01
    8988.558    -10.763  -0.200  7.81594E-02  2.51288E-01 -1.73129E-01
    8988.613    -10.708  -0.160  8.01387E-02  2.61675E-01 -1.81536E-01
    8988.656    -10.665  -0.120  8.16872E-02  2.69895E-01 -1.88208E-01
    8988.686    -10.635  -0.080  8.27956E-02  2.75823E-01 -1.93028E-01
    8988.711    -10.610   0.000  8.36845E-02  2.80591E-01 -1.96907E-01
    8988.765    -10.555   0.120  8.57700E-02  2.91341E-01 -2.05571E-01
    8988.808    -10.513   0.160  8.73317E-02  2.99731E-01 -2.12399E-01
    8988.863    -10.458   0.200  8.92754E-02  3.10444E-01 -2.21168E-01
    8988.930    -10.391   0.240  9.16020E-02  3.23376E-01 -2.31774E-01
    8989.009    -10.312   0.280  9.42177E-02  3.38276E-01 -2.44059E-01
    8989.101    -10.220   0.320  9.71252E-02  3.54825E-01 -2.57700E-01
    8989.204    -10.117   0.360  1.00325E-01  3.72572E-01 -2.72247E-01
    8989.320    -10.001   0.400  1.03829E-01  3.91060E-01 -2.87231E-01
    8989.448     -9.873   0.440  1.07767E-01  4.09868E-01 -3.02101E-01
    8989.588     -9.732   0.480  1.12234E-01  4.28632E-01 -3.16398E-01
    8989.741     -9.580   0.520  1.17425E-01  4.47185E-01 -3.29760E-01
    8989.905     -9.416   0.560  1.23467E-01  4.65370E-01 -3.41903E-01
    8990.082     -9.239   0.600  1.30402E-01  4.83220E-01 -3.52818E-01
    8990.271     -9.050   0.640  1.37977E-01  5.00717E-01 -3.62740E-01
    8990.472     -8.849   0.680  1.45664E-01  5.17958E-01 -3.72295E-01
    8990.686     -8.635   0.720  1.52683E-01  5.34986E-01 -3.82303E-01
    8990.911     -8.410   0.760  1.58611E-01  5.51882E-01 -3.93272E-01
    8991.149     -8.172   0.800  1.63705E-01  5.68702E-01 -4.04996E-01
    8991.399     -7.922   0.840  1.68987E-01  5.85465E-01 -4.16477E-01
    8991.661     -7.660   0.880  1.75800E-01  6.02222E-01 -4.26422E-01
    8991.935     -7.386   0.920  1.85130E-01  6.18991E-01 -4.33861E-01
    8992.222     -7.099   0.960  1.97606E-01  6.35759E-01 -4.38153E-01
    8992.520     -6.800   1.000  2.13575E-01  6.52504E-01 -4.38929E-01
    8992.831     -6.489   1.040  2.33717E-01  6.69256E-01 -4.35539E-01
    8993.154     -6.166   1.080  2.60205E-01  6.85939E-01 -4.25733E-01
    8993.490     -5.831   1.120  2.97559E-01  7.02570E-01 -4.05010E-01
    8993.837     -5.484   1.160  3.50257E-01  7.19082E-01 -3.68825E-01
    8994.197     -5.124   1.200  4.17223E-01  7.35467E-01 -3.18244E-01
    8994.569     -4.752   1.240  4.90998E-01  7.51651E-01 -2.60653E-01
    8994.953     -4.368   1.280  5.63871E-01  7.67618E-01 -2.03748E-01
    8995.349     -3.972   1.320  6.19549E-01  7.83314E-01 -1.63765E-01
    8995.757     -3.563   1.360  6.37554E-01  7.98682E-01 -1.61128E-01
    8996.178     -3.143   1.400  6.29715E-01  8.13725E-01 -1.84010E-01
    8996.611     -2.710   1.440  6.29880E-01  8.28366E-01 -1.98486E-01
    8997.056     -2.265   1.480  6.47113E-01  8.42570E-01 -1.95457E-01
    8997.513     -1.808   1.520  6.61822E-01  8.56322E-01 -1.94500E-01
    8997.982     -1.338   1.560  6.63273E-01  8.69590E-01 -2.06317E-01
    8998.464     -0.857   1.600  6.61238E-01  8.82340E-01 -2.21102E-01
    8998.958     -0.363   1.640  6.65169E-01  8.94541E-01 -2.29371E-01
    8999.464      0.143   1.680  6.83161E-01  9.06164E-01 -2.23003E-01
    8999.982      0.661   1.720  7.18203E-01  9.17225E-01 -1.99022E-01
    9000.512      1.191   1.760  7.68609E-01  9.27696E-01 -1.59087E-01
    9001.055      1.734   1.800  8.35171E-01  9.37575E-01 -1.02405E-01
    9001.610      2.289   1.840  9.17188E-01  9.46841E-01 -2.96529E-02
    9002.177      2.856   1.880  1.01442E+00  9.55492E-01  5.89301E-02
    9002.756      3.435   1.920  1.12833E+00  9.63550E-01  1.64779E-01
    9003.347      4.026   1.960  1.25748E+00  9.71000E-01  2.86477E-01
    9003.950      4.630   2.000  1.39857E+00  9.77866E-01  4.20707E-01
    9004.566      5.245   2.040  1.54625E+00  9.84177E-01  5.62072E-01
    9005.194      5.873   2.080  1.67043E+00  9.89897E-01  6.80533E-01
    9005.834      6.513   2.120  1.71726E+00  9.95097E-01  7.22160E-01
    9006.486      7.166   2.160  1.66227E+00  9.99745E-01  6.62523E-01
    9007.151      7.830   2.200  1.52776E+00  1.00391E+00  5.23851E-01
    9007.827      8.507   2.240  1.36202E+00  1.00757E+00  3.54452E-01
    9008.516      9.196   2.280  1.20988E+00  1.01077E+00  1.99109E-01
    9009.217      9.897   2.320  1.08725E+00  1.01354E+00  7.37076E-02
    9009.931     10.610   2.360  9.99730E-01  1.01588E+00 -1.61457E-02
    9010.656     11.335   2.400  9.50470E-01  1.01783E+00 -6.73599E-02
    9011.394     12.073   2.440  9.35373E-01  1.01942E+00 -8.40425E-02
    9012.143     12.823   2.480  9.42664E-01  1.02064E+00 -7.79792E-02
    9012.905     13.585   2.520  9.59541E-01  1.02156E+00 -6.20237E-02
    9013.680     14.359   2.560  9.85418E-01  1.02217E+00 -3.67559E-02
    9014.466     15.145   2.600  1.02381E+00  1.02252E+00  1.28597E-03
    9015.265     15.944   2.640  1.05988E+00  1.02262E+00  3.72602E-02
    9016.075     16.755   2.680  1.08929E+00  1.02248E+00  6.68041E-02
    9016.898     17.577   2.720  1.11129E+00  1.02214E+00  8.91502E-02
    9017.733     18.413   2.760  1.12649E+00  1.02159E+00  1.04893E-01
    9018.581     19.260   2.800  1.13527E+00  1.02091E+00  1.14362E-01
    9019.440     20.119   2.840  1.13778E+00  1.02006E+00  1.17722E-01
    9020.312     20.991   2.880  1.13418E+00  1.01907E+00  1.15112E-01
    9021.196     21.875   2.920  1.12432E+00  1.01800E+00  1.06326E-01
    9022.092     22.771   2.960  1.10788E+00  1.01679E+00  9.10821E-02
    9023.000     23.680   3.000  1.08497E+00  1.01553E+00  6.94370E-02
    9023.921     24.600   3.040  1.05611E+00  1.01422E+00  4.18960E-02
    9024.854     25.533   3.080  1.02342E+00  1.01283E+00  1.05844E-02
    9025.798     26.478   3.120  9.90312E-01  1.01141E+00 -2.10973E-02
    9026.755     27.435   3.160  9.59442E-01  1.00997E+00 -5.05299E-02
    9027.725     28.404   3.200  9.32478E-01  1.00851E+00 -7.60279E-02
    9028.706     29.385   3.240  9.10148E-01  1.00706E+00 -9.69082E-02
    9029.700     30.379   3.280  8.92294E-01  1.00559E+00 -1.13294E-01
    9030.706     31.385   3.320  8.78454E-01  1.00415E+00 -1.25694E-01
    9031.724     32.403   3.360  8.68218E-01  1.00274E+00 -1.34520E-01
    9032.754     33.433   3.400  8.60814E-01  1.00134E+00 -1.40527E-01
    9033.796     34.476   3.440  8.55585E-01  9.99983E-01 -1.44399E-01
    9034.851     35.530   3.480  8.52086E-01  9.98687E-01 -1.46601E-01
    9035.918     36.597   3.520  8.50083E-01  9.97413E-01 -1.47330E-01
    9036.997     37.676   3.560  8.49482E-01  9.96206E-01 -1.46724E-01
    9038.088     38.767   3.600  8.50374E-01  9.95071E-01 -1.44697E-01
    9039.191     39.870   3.640  8.52888E-01  9.93987E-01 -1.41099E-01
    9040.307     40.986   3.680  8.57182E-01  9.92974E-01 -1.35792E-01
    9041.435     42.114   3.720  8.63443E-01  9.92013E-01 -1.28571E-01
    9042.575     43.254   3.760  8.72069E-01  9.91129E-01 -1.19059E-01
    9043.727     44.406   3.800  8.83537E-01  9.90321E-01 -1.06783E-01
    9044.891     45.570   3.840  8.98208E-01  9.89591E-01 -9.13832E-02
    9046.068     46.747   3.880  9.16193E-01  9.88940E-01 -7.27466E-02
    9047.256     47.935   3.920  9.37170E-01  9.88368E-01 -5.11980E-02
    9048.457     49.136   3.960  9.60232E-01  9.87874E-01 -2.76423E-02
    9049.670     50.349   4.000  9.83932E-01  9.87436E-01 -3.50352E-03
    9050.896     51.575   4.040  1.00661E+00  9.87097E-01  1.95085E-02
    9052.133     52.812   4.080  1.02651E+00  9.86814E-01  3.96931E-02
    9053.383     54.062   4.120  1.04253E+00  9.86609E-01  5.59231E-02
    9054.645     55.324   4.160  1.05439E+00  9.86479E-01  6.79108E-02
    9055.919     56.598   4.200  1.06237E+00  9.86426E-01  7.59412E-02
    9057.205     57.884   4.240  1.06685E+00  9.86428E-01  8.04255E-02
    9058.503     59.182   4.280  1.06822E+00  9.86524E-01  8.16987E-02
    9059.814     60.493   4.320  1.06667E+00  9.86651E-01  8.00174E-02
    9061.137     61.816   4.360  1.06268E+00  9.86870E-01  7.58128E-02
    9062.472     63.151   4.400  1.05698E+00  9.87116E-01  6.98621E-02
    9063.819     64.498   4.440  1.05064E+00  9.87454E-01  6.31841E-02
    9065.178     65.858   4.480  1.04449E+00  9.87816E-01  5.66760E-02
    9066.550     67.229   4.520  1.03910E+00  9.88243E-01  5.08578E-02
    9067.934     68.613   4.560  1.03460E+00  9.88714E-01  4.58850E-02
    9069.330     70.009   4.600  1.03094E+00  9.89225E-01  4.17109E-02
    9070.738     71.417   4.640  1.02801E+00  9.89775E-01  3.82301E-02
    9072.158     72.837   4.680  1.02596E+00  9.90363E-01  3.55962E-02
    9073.591     74.270   4.720  1.02509E+00  9.90964E-01  3.41266E-02
    9075.036     75.715   4.760  1.02574E+00  9.91620E-01  3.41206E-02
    9076.493     77.172   4.800  1.02793E+00  9.92265E-01  3.56630E-02
    9077.962     78.641   4.840  1.03154E+00  9.92961E-01  3.85829E-02
    9079.443     80.122   4.880  1.03614E+00  9.93641E-01  4.24991E-02
    9080.937     81.616   4.920  1.04124E+00  9.94348E-01  4.68917E-02
    9082.442     83.121   4.960  1.04600E+00  9.95059E-01  5.09437E-02
    9083.960     84.639   5.000  1.04955E+00  9.95792E-01  5.37586E-02
    9085.490     86.169   5.040  1.05115E+00  9.96503E-01  5.46476E-02
    9087.032     87.712   5.080  1.05036E+00  9.97207E-01  5.31569E-02
    9088.587     89.266   5.120  1.04680E+00  9.97885E-01  4.89116E-02
    9090.154     90.833   5.160  1.04017E+00  9.98578E-01  4.15948E-02
    9091.732     92.412   5.200  1.03061E+00  9.99240E-01  3.13712E-02
    9093.324     94.003   5.240  1.01904E+00  9.99869E-01  1.91757E-02
    9094.927     95.606   5.280  1.00688E+00  1.00049E+00  6.39474E-03
    9096.542     97.221   5.320  9.95298E-01  1.00107E+00 -5.76917E-03
    9098.170     98.849   5.360  9.85105E-01  1.00161E+00 -1.65058E-02
    9099.810    100.489   5.400  9.76787E-01  1.00212E+00 -2.53279E-02
    9101.462    102.141   5.440  9.70606E-01  1.00260E+00 -3.19969E-02
    9103.126    103.805   5.480  9.66461E-01  1.00303E+00 -3.65675E-02
    9104.802    105.481   5.520  9.64043E-01  1.00343E+00 -3.93919E-02
    9106.491    107.170   5.560  9.62631E-01  1.00378E+00 -4.11443E-02
    9108.192    108.871   5.600  9.61488E-01  1.00407E+00 -4.25834E-02
    9109.905    110.584   5.640  9.60055E-01  1.00432E+00 -4.42692E-02
    9111.630    112.309   5.680  9.58122E-01  1.00453E+00 -4.64105E-02
    9113.367    114.046   5.720  9.55573E-01  1.00467E+00 -4.90974E-02
    9115.117    115.796   5.760  9.52198E-01  1.00476E+00 -5.25662E-02
    9116.878    117.558   5.800  9.47711E-01  1.00481E+00 -5.71030E-02
    9118.652    119.331   5.840  9.42328E-01  1.00482E+00 -6.24926E-02
    9120.438    121.118   5.880  9.36888E-01  1.00476E+00 -6.78677E-02
    9122.237    122.916   5.920  9.32569E-01  1.00464E+00 -7.20752E-02
    9124.047    124.726   5.960  9.30464E-01  1.00446E+00 -7.39920E-02
    9125.870    126.549   6.000  9.31943E-01  1.00421E+00 -7.22704E-02
