# # comment:                                                     FEFF 9.9.1  
# # Source:
# # Structure
# # Reduced
# # space
# # abc:
# # angles:
# # sites:
# # POT  SCF 100  7.0000   0, screened core-hole, AFOLP (folp(0)= 1.150)
# # Abs   Z=29 Rmt= 1.231 Rnm= 1.309 K  shell
# # Pot 1 Z= 3 Rmt= 1.552 Rnm= 1.595
# # Pot 2 Z=29 Rmt= 1.292 Rnm= 1.360
# # Pot 3 Z=15 Rmt= 0.946 Rnm= 1.159
# # Pot 4 Z= 8 Rmt= 0.926 Rnm= 1.041
# # Gam_ch=1.729E+00 H-L exch Vi= 0.000E+00 Vr= 0.000E+00
# # Mu=-6.297E+00eV kf=2.435E+00 Vint=-1.698E+01eV Rs_int= 1.490
# FMS rfms= 9.0000
# # PATH  Rmax=-1.000,  Keep_limit= 0.00, Heap_limit 0.00  Pwcrit= 2.50%
#  S02=0.950  Temp=   0.00  Debye_temp=   0.00  Global_sig2= 0.00000
#  Energy zero shift, vr, vi    0.00000E+00   0.00000E+00
#  Curved wave amplitude ratio filter   4.000%
#     file         sig2 tot  cw amp ratio   deg  nlegs   reff  inp sig2
#     0/   0 paths used
#  xsedge+ 50, used to normalize mu           2.4840E-04
#  -----------------------------------------------------------------------
#  omega    e    k    mu    mu0     chi     @#
    8983.377    -10.107  -1.000  3.51619E-02  5.19767E-02 -1.68148E-02
    8983.675     -9.809  -0.960  3.68928E-02  5.57598E-02 -1.88671E-02
    8983.962     -9.522  -0.920  3.87450E-02  5.99674E-02 -2.12224E-02
    8984.236     -9.248  -0.880  4.07307E-02  6.46625E-02 -2.39319E-02
    8984.498     -8.986  -0.840  4.28631E-02  6.99186E-02 -2.70555E-02
    8984.748     -8.736  -0.800  4.51575E-02  7.58209E-02 -3.06635E-02
    8984.986     -8.498  -0.760  4.76302E-02  8.24675E-02 -3.48373E-02
    8985.212     -8.272  -0.720  5.02990E-02  8.99690E-02 -3.96700E-02
    8985.425     -8.059  -0.680  5.31826E-02  9.84477E-02 -4.52650E-02
    8985.626     -7.858  -0.640  5.62994E-02  1.08033E-01 -5.17331E-02
    8985.815     -7.669  -0.600  5.96657E-02  1.18851E-01 -5.91849E-02
    8985.992     -7.492  -0.560  6.32930E-02  1.31010E-01 -6.77174E-02
    8986.156     -7.328  -0.520  6.71838E-02  1.44577E-01 -7.73932E-02
    8986.309     -7.175  -0.480  7.13255E-02  1.59537E-01 -8.82115E-02
    8986.449     -7.035  -0.440  7.56844E-02  1.75759E-01 -1.00074E-01
    8986.577     -6.907  -0.400  8.02000E-02  1.92958E-01 -1.12758E-01
    8986.693     -6.791  -0.360  8.47829E-02  2.10687E-01 -1.25905E-01
    8986.797     -6.688  -0.320  8.93190E-02  2.28367E-01 -1.39048E-01
    8986.888     -6.596  -0.280  9.36796E-02  2.45351E-01 -1.51672E-01
    8986.967     -6.517  -0.240  9.77351E-02  2.61022E-01 -1.63287E-01
    8987.034     -6.450  -0.200  1.01366E-01  2.74864E-01 -1.73498E-01
    8987.089     -6.395  -0.160  1.04472E-01  2.86501E-01 -1.82030E-01
    8987.132     -6.352  -0.120  1.06967E-01  2.95695E-01 -1.88728E-01
    8987.162     -6.322  -0.080  1.08794E-01  3.02315E-01 -1.93521E-01
    8987.187     -6.297   0.000  1.10300E-01  3.07632E-01 -1.97331E-01
    8987.242     -6.243   0.120  1.14050E-01  3.19605E-01 -2.05555E-01
    8987.284     -6.200   0.160  1.16912E-01  3.28912E-01 -2.12000E-01
    8987.339     -6.145   0.200  1.20616E-01  3.40771E-01 -2.20155E-01
    8987.406     -6.078   0.240  1.25201E-01  3.55029E-01 -2.29828E-01
    8987.485     -5.999   0.280  1.30672E-01  3.71343E-01 -2.40672E-01
    8987.577     -5.907   0.320  1.37116E-01  3.89318E-01 -2.52202E-01
    8987.680     -5.804   0.360  1.44591E-01  4.08395E-01 -2.63804E-01
    8987.796     -5.688   0.400  1.53146E-01  4.27978E-01 -2.74832E-01
    8987.924     -5.560   0.440  1.62879E-01  4.47548E-01 -2.84668E-01
    8988.064     -5.420   0.480  1.73840E-01  4.66699E-01 -2.92859E-01
    8988.217     -5.267   0.520  1.85908E-01  4.85177E-01 -2.99269E-01
    8988.381     -5.103   0.560  1.98643E-01  5.02847E-01 -3.04203E-01
    8988.558     -4.926   0.600  2.11296E-01  5.19699E-01 -3.08403E-01
    8988.747     -4.737   0.640  2.22796E-01  5.35772E-01 -3.12976E-01
    8988.948     -4.536   0.680  2.32281E-01  5.51167E-01 -3.18885E-01
    8989.162     -4.322   0.720  2.39722E-01  5.65994E-01 -3.26272E-01
    8989.387     -4.097   0.760  2.46155E-01  5.80326E-01 -3.34172E-01
    8989.625     -3.859   0.800  2.53305E-01  5.94266E-01 -3.40961E-01
    8989.875     -3.609   0.840  2.62722E-01  6.07923E-01 -3.45201E-01
    8990.137     -3.347   0.880  2.75455E-01  6.21314E-01 -3.45859E-01
    8990.411     -3.073   0.920  2.92560E-01  6.34504E-01 -3.41945E-01
    8990.698     -2.786   0.960  3.15298E-01  6.47546E-01 -3.32248E-01
    8990.997     -2.487   1.000  3.44903E-01  6.60460E-01 -3.15557E-01
    8991.308     -2.176   1.040  3.81889E-01  6.73258E-01 -2.91369E-01
    8991.631     -1.853   1.080  4.25147E-01  6.85946E-01 -2.60799E-01
    8991.966     -1.518   1.120  4.72223E-01  6.98542E-01 -2.26318E-01
    8992.313     -1.171   1.160  5.20270E-01  7.11038E-01 -1.90768E-01
    8992.673     -0.811   1.200  5.64394E-01  7.23425E-01 -1.59031E-01
    8993.045     -0.439   1.240  5.99629E-01  7.35707E-01 -1.36077E-01
    8993.429     -0.055   1.280  6.28751E-01  7.47846E-01 -1.19095E-01
    8993.825      0.341   1.320  6.57402E-01  7.59841E-01 -1.02439E-01
    8994.234      0.750   1.360  6.84520E-01  7.71670E-01 -8.71503E-02
    8994.654      1.170   1.400  7.06157E-01  7.83332E-01 -7.71752E-02
    8995.087      1.603   1.440  7.20700E-01  7.94780E-01 -7.40797E-02
    8995.532      2.048   1.480  7.29250E-01  8.06010E-01 -7.67595E-02
    8995.989      2.505   1.520  7.33695E-01  8.17014E-01 -8.33193E-02
    8996.459      2.975   1.560  7.41054E-01  8.27769E-01 -8.67150E-02
    8996.940      3.456   1.600  7.57913E-01  8.38248E-01 -8.03347E-02
    8997.434      3.950   1.640  7.85226E-01  8.48444E-01 -6.32188E-02
    8997.940      4.456   1.680  8.23777E-01  8.58334E-01 -3.45568E-02
    8998.458      4.974   1.720  8.74135E-01  8.67910E-01  6.22516E-03
    8998.988      5.504   1.760  9.39577E-01  8.77170E-01  6.24072E-02
    8999.531      6.047   1.800  1.02186E+00  8.86088E-01  1.35776E-01
    9000.086      6.602   1.840  1.11055E+00  8.94661E-01  2.15889E-01
    9000.653      7.169   1.880  1.19153E+00  9.02866E-01  2.88662E-01
    9001.232      7.748   1.920  1.25420E+00  9.10721E-01  3.43480E-01
    9001.823      8.339   1.960  1.28147E+00  9.18225E-01  3.63244E-01
    9002.427      8.943   2.000  1.26095E+00  9.25336E-01  3.35619E-01
    9003.042      9.558   2.040  1.21067E+00  9.32096E-01  2.78573E-01
    9003.670     10.186   2.080  1.16375E+00  9.38483E-01  2.25267E-01
    9004.310     10.826   2.120  1.13866E+00  9.44501E-01  1.94154E-01
    9004.963     11.478   2.160  1.13817E+00  9.50151E-01  1.88020E-01
    9005.627     12.143   2.200  1.15910E+00  9.55456E-01  2.03649E-01
    9006.304     12.820   2.240  1.19631E+00  9.60399E-01  2.35911E-01
    9006.992     13.508   2.280  1.24122E+00  9.65004E-01  2.76213E-01
    9007.694     14.209   2.320  1.27070E+00  9.69254E-01  3.01449E-01
    9008.407     14.923   2.360  1.26399E+00  9.73195E-01  2.90793E-01
    9009.132     15.648   2.400  1.23127E+00  9.76790E-01  2.54480E-01
    9009.870     16.386   2.440  1.19173E+00  9.80086E-01  2.11640E-01
    9010.620     17.136   2.480  1.15552E+00  9.83090E-01  1.72428E-01
    9011.382     17.898   2.520  1.12687E+00  9.85806E-01  1.41066E-01
    9012.156     18.672   2.560  1.10284E+00  9.88241E-01  1.14603E-01
    9012.942     19.458   2.600  1.07874E+00  9.90422E-01  8.83208E-02
    9013.741     20.257   2.640  1.05612E+00  9.92352E-01  6.37659E-02
    9014.551     21.067   2.680  1.03899E+00  9.94019E-01  4.49682E-02
    9015.374     21.890   2.720  1.02915E+00  9.95471E-01  3.36771E-02
    9016.210     22.726   2.760  1.02073E+00  9.96715E-01  2.40193E-02
    9017.057     23.573   2.800  9.96930E-01  9.97777E-01 -8.47218E-04
    9017.916     24.432   2.840  9.56662E-01  9.98622E-01 -4.19604E-02
    9018.788     25.304   2.880  9.21267E-01  9.99317E-01 -7.80500E-02
    9019.672     26.188   2.920  8.95605E-01  9.99828E-01 -1.04223E-01
    9020.568     27.084   2.960  8.77668E-01  1.00020E+00 -1.22535E-01
    9021.477     27.992   3.000  8.65156E-01  1.00043E+00 -1.35269E-01
    9022.397     28.913   3.040  8.56919E-01  1.00052E+00 -1.43602E-01
    9023.330     29.846   3.080  8.52362E-01  1.00052E+00 -1.48158E-01
    9024.275     30.791   3.120  8.50975E-01  1.00040E+00 -1.49429E-01
    9025.232     31.748   3.160  8.52321E-01  1.00020E+00 -1.47879E-01
    9026.201     32.717   3.200  8.55489E-01  9.99891E-01 -1.44402E-01
    9027.182     33.698   3.240  8.60060E-01  9.99523E-01 -1.39463E-01
    9028.176     34.692   3.280  8.65805E-01  9.99103E-01 -1.33298E-01
    9029.182     35.698   3.320  8.72339E-01  9.98612E-01 -1.26273E-01
    9030.200     36.716   3.360  8.79264E-01  9.98054E-01 -1.18790E-01
    9031.230     37.746   3.400  8.86138E-01  9.97478E-01 -1.11340E-01
    9032.272     38.788   3.440  8.92651E-01  9.96883E-01 -1.04232E-01
    9033.327     39.843   3.480  8.98735E-01  9.96233E-01 -9.74982E-02
    9034.394     40.910   3.520  9.04877E-01  9.95574E-01 -9.06978E-02
    9035.473     41.989   3.560  9.11602E-01  9.94909E-01 -8.33074E-02
    9036.564     43.080   3.600  9.19296E-01  9.94241E-01 -7.49448E-02
    9037.667     44.183   3.640  9.28201E-01  9.93571E-01 -6.53698E-02
    9038.783     45.299   3.680  9.38382E-01  9.92902E-01 -5.45207E-02
    9039.911     46.427   3.720  9.49760E-01  9.92258E-01 -4.24980E-02
    9041.051     47.567   3.760  9.62045E-01  9.91598E-01 -2.95524E-02
    9042.203     48.719   3.800  9.75033E-01  9.90966E-01 -1.59333E-02
    9043.367     49.883   3.840  9.88313E-01  9.90366E-01 -2.05265E-03
    9044.544     51.060   3.880  1.00142E+00  9.89797E-01  1.16242E-02
    9045.732     52.248   3.920  1.01397E+00  9.89241E-01  2.47311E-02
    9046.933     53.449   3.960  1.02571E+00  9.88718E-01  3.69973E-02
    9048.146     54.662   4.000  1.03627E+00  9.88206E-01  4.80647E-02
    9049.372     55.888   4.040  1.04523E+00  9.87753E-01  5.74772E-02
    9050.609     57.125   4.080  1.05198E+00  9.87316E-01  6.46649E-02
    9051.859     58.375   4.120  1.05601E+00  9.86917E-01  6.90896E-02
    9053.121     59.637   4.160  1.05709E+00  9.86578E-01  7.05125E-02
    9054.395     60.911   4.200  1.05532E+00  9.86256E-01  6.90669E-02
    9055.681     62.197   4.240  1.05113E+00  9.85973E-01  6.51557E-02
    9056.979     63.495   4.280  1.04517E+00  9.85749E-01  5.94207E-02
    9058.290     64.806   4.320  1.03824E+00  9.85544E-01  5.27009E-02
    9059.613     66.129   4.360  1.03127E+00  9.85376E-01  4.58900E-02
    9060.948     67.464   4.400  1.02507E+00  9.85245E-01  3.98259E-02
    9062.295     68.811   4.440  1.02037E+00  9.85153E-01  3.52163E-02
    9063.655     70.171   4.480  1.01759E+00  9.85099E-01  3.24916E-02
    9065.026     71.542   4.520  1.01678E+00  9.85083E-01  3.16978E-02
    9066.410     72.926   4.560  1.01765E+00  9.85105E-01  3.25436E-02
    9067.806     74.322   4.600  1.01969E+00  9.85162E-01  3.45325E-02
    9069.214     75.730   4.640  1.02233E+00  9.85231E-01  3.70941E-02
    9070.634     77.150   4.680  1.02504E+00  9.85335E-01  3.97088E-02
    9072.067     78.583   4.720  1.02747E+00  9.85472E-01  4.20016E-02
    9073.512     80.028   4.760  1.02920E+00  9.85620E-01  4.35782E-02
    9074.969     81.485   4.800  1.02984E+00  9.85801E-01  4.40362E-02
    9076.438     82.954   4.840  1.02899E+00  9.86013E-01  4.29784E-02
    9077.919     84.435   4.880  1.02639E+00  9.86235E-01  4.01504E-02
    9079.413     85.929   4.920  1.02211E+00  9.86484E-01  3.56250E-02
    9080.918     87.434   4.960  1.01655E+00  9.86718E-01  2.98313E-02
    9082.436     88.952   5.000  1.01043E+00  9.86999E-01  2.34340E-02
    9083.966     90.482   5.040  1.00438E+00  9.87264E-01  1.71108E-02
    9085.509     92.025   5.080  9.98829E-01  9.87553E-01  1.12754E-02
    9087.063     93.579   5.120  9.93831E-01  9.87843E-01  5.98857E-03
    9088.630     95.146   5.160  9.89078E-01  9.88110E-01  9.67628E-04
    9090.209     96.725   5.200  9.84196E-01  9.88399E-01 -4.20363E-03
    9091.800     98.316   5.240  9.78769E-01  9.88689E-01 -9.91948E-03
    9093.403     99.919   5.280  9.72525E-01  9.88975E-01 -1.64504E-02
    9095.018    101.534   5.320  9.65392E-01  9.89234E-01 -2.38424E-02
    9096.646    103.162   5.360  9.57619E-01  9.89488E-01 -3.18682E-02
    9098.286    104.802   5.400  9.49769E-01  9.89737E-01 -3.99678E-02
    9099.938    106.454   5.440  9.42605E-01  9.89981E-01 -4.73759E-02
    9101.602    108.118   5.480  9.36832E-01  9.90195E-01 -5.33622E-02
    9103.278    109.794   5.520  9.32882E-01  9.90400E-01 -5.75178E-02
    9104.967    111.483   5.560  9.30710E-01  9.90574E-01 -5.98640E-02
    9106.668    113.184   5.600  9.29923E-01  9.90737E-01 -6.08140E-02
    9108.381    114.897   5.640  9.30000E-01  9.90869E-01 -6.08691E-02
    9110.106    116.622   5.680  9.30777E-01  9.90990E-01 -6.02129E-02
    9111.843    118.359   5.720  9.32528E-01  9.91076E-01 -5.85485E-02
    9113.593    120.109   5.760  9.35755E-01  9.91128E-01 -5.53728E-02
    9115.355    121.870   5.800  9.40709E-01  9.91166E-01 -5.04573E-02
    9117.128    123.644   5.840  9.47076E-01  9.91146E-01 -4.40698E-02
    9118.915    125.431   5.880  9.54335E-01  9.91112E-01 -3.67769E-02
    9120.713    127.229   5.920  9.61892E-01  9.91045E-01 -2.91523E-02
    9122.523    129.039   5.960  9.69312E-01  9.90966E-01 -2.16540E-02
    9124.346    130.862   6.000  9.76332E-01  9.90834E-01 -1.45021E-02
