# # comment:                                                     FEFF 9.9.1  
# # Source:
# # Structure
# # Reduced
# # space
# # abc:
# # angles:
# # sites:
# # POT  SCF 100  7.0000   0, screened core-hole, AFOLP (folp(0)= 1.150)
# # Abs   Z=29 Rmt= 1.224 Rnm= 1.300 K  shell
# # Pot 1 Z=64 Rmt= 1.683 Rnm= 1.729
# # Pot 2 Z=22 Rmt= 1.268 Rnm= 1.403
# # Pot 3 Z=29 Rmt= 1.224 Rnm= 1.300
# # Pot 4 Z= 8 Rmt= 0.987 Rnm= 1.098
# # Gam_ch=1.729E+00 H-L exch Vi= 0.000E+00 Vr= 0.000E+00
# # Mu=-1.000E+01eV kf=2.185E+00 Vint=-1.879E+01eV Rs_int= 1.660
# FMS rfms= 9.0000
# # PATH  Rmax=-1.000,  Keep_limit= 0.00, Heap_limit 0.00  Pwcrit= 2.50%
#  S02=0.950  Temp=   0.00  Debye_temp=   0.00  Global_sig2= 0.00000
#  Energy zero shift, vr, vi    0.00000E+00   0.00000E+00
#  Curved wave amplitude ratio filter   4.000%
#     file         sig2 tot  cw amp ratio   deg  nlegs   reff  inp sig2
#     0/   0 paths used
#  xsedge+ 50, used to normalize mu           2.4785E-04
#  -----------------------------------------------------------------------
#  omega    e    k    mu    mu0     chi     @#
    8985.042    -13.810  -1.000  3.69213E-02  5.06595E-02 -1.37382E-02
    8985.341    -13.511  -0.960  3.88156E-02  5.42660E-02 -1.54504E-02
    8985.627    -13.225  -0.920  4.08433E-02  5.82686E-02 -1.74253E-02
    8985.902    -12.951  -0.880  4.30165E-02  6.27250E-02 -1.97084E-02
    8986.164    -12.689  -0.840  4.53491E-02  6.77027E-02 -2.23536E-02
    8986.414    -12.439  -0.800  4.78559E-02  7.32798E-02 -2.54239E-02
    8986.651    -12.201  -0.760  5.05534E-02  7.95460E-02 -2.89926E-02
    8986.877    -11.975  -0.720  5.34591E-02  8.66022E-02 -3.31431E-02
    8987.090    -11.762  -0.680  5.65911E-02  9.45600E-02 -3.79689E-02
    8987.291    -11.561  -0.640  5.99673E-02  1.03537E-01 -4.35695E-02
    8987.480    -11.372  -0.600  6.36032E-02  1.13648E-01 -5.00446E-02
    8987.657    -11.195  -0.560  6.75097E-02  1.24991E-01 -5.74816E-02
    8987.822    -11.030  -0.520  7.16886E-02  1.37625E-01 -6.59368E-02
    8987.974    -10.878  -0.480  7.61272E-02  1.51537E-01 -7.54093E-02
    8988.114    -10.738  -0.440  8.07922E-02  1.66603E-01 -8.58104E-02
    8988.242    -10.610  -0.400  8.56239E-02  1.82562E-01 -9.69385E-02
    8988.358    -10.494  -0.360  9.05334E-02  1.99005E-01 -1.08472E-01
    8988.462    -10.390  -0.320  9.54055E-02  2.15399E-01 -1.19993E-01
    8988.553    -10.299  -0.280  1.00107E-01  2.31150E-01 -1.31044E-01
    8988.633    -10.220  -0.240  1.04497E-01  2.45690E-01 -1.41193E-01
    8988.700    -10.153  -0.200  1.08446E-01  2.58541E-01 -1.50095E-01
    8988.754    -10.098  -0.160  1.11838E-01  2.69353E-01 -1.57515E-01
    8988.797    -10.055  -0.120  1.14581E-01  2.77902E-01 -1.63321E-01
    8988.828    -10.025  -0.080  1.16604E-01  2.84061E-01 -1.67457E-01
    8988.852    -10.000   0.000  1.18291E-01  2.89011E-01 -1.70720E-01
    8988.907     -9.945   0.120  1.22025E-01  3.00164E-01 -1.78139E-01
    8988.950     -9.903   0.160  1.24973E-01  3.08857E-01 -1.83884E-01
    8989.004     -9.848   0.200  1.28779E-01  3.19938E-01 -1.91159E-01
    8989.071     -9.781   0.240  1.33522E-01  3.33279E-01 -1.99757E-01
    8989.151     -9.701   0.280  1.39176E-01  3.48600E-01 -2.09424E-01
    8989.242     -9.610   0.320  1.45769E-01  3.65539E-01 -2.19770E-01
    8989.346     -9.506   0.360  1.53220E-01  3.83622E-01 -2.30402E-01
    8989.462     -9.391   0.400  1.61352E-01  4.02299E-01 -2.40948E-01
    8989.590     -9.263   0.440  1.69960E-01  4.21131E-01 -2.51170E-01
    8989.730     -9.122   0.480  1.78706E-01  4.39737E-01 -2.61031E-01
    8989.882     -8.970   0.520  1.87312E-01  4.57891E-01 -2.70579E-01
    8990.047     -8.805   0.560  1.95631E-01  4.75492E-01 -2.79861E-01
    8990.224     -8.629   0.600  2.03897E-01  4.92488E-01 -2.88591E-01
    8990.413     -8.440   0.640  2.13111E-01  5.08951E-01 -2.95840E-01
    8990.614     -8.238   0.680  2.25098E-01  5.24949E-01 -2.99850E-01
    8990.827     -8.025   0.720  2.42513E-01  5.40557E-01 -2.98044E-01
    8991.053     -7.800   0.760  2.68299E-01  5.55871E-01 -2.87572E-01
    8991.290     -7.562   0.800  3.04821E-01  5.70958E-01 -2.66137E-01
    8991.540     -7.312   0.840  3.51816E-01  5.85873E-01 -2.34057E-01
    8991.802     -7.050   0.880  4.03380E-01  6.00659E-01 -1.97280E-01
    8992.077     -6.775   0.920  4.48838E-01  6.15350E-01 -1.66511E-01
    8992.363     -6.489   0.960  4.82394E-01  6.29982E-01 -1.47588E-01
    8992.662     -6.190   1.000  5.09640E-01  6.44546E-01 -1.34906E-01
    8992.973     -5.879   1.040  5.41137E-01  6.59086E-01 -1.17949E-01
    8993.296     -5.556   1.080  5.84801E-01  6.73535E-01 -8.87337E-02
    8993.631     -5.221   1.120  6.44254E-01  6.87944E-01 -4.36899E-02
    8993.979     -4.873   1.160  7.17092E-01  7.02256E-01  1.48361E-02
    8994.338     -4.514   1.200  7.78846E-01  7.16471E-01  6.23751E-02
    8994.710     -4.142   1.240  7.77974E-01  7.30547E-01  4.74266E-02
    8995.094     -3.758   1.280  7.03549E-01  7.44479E-01 -4.09303E-02
    8995.491     -3.362   1.320  6.12380E-01  7.58240E-01 -1.45860E-01
    8995.899     -2.953   1.360  5.51899E-01  7.71780E-01 -2.19881E-01
    8996.320     -2.533   1.400  5.36663E-01  7.85092E-01 -2.48429E-01
    8996.752     -2.100   1.440  5.68340E-01  7.98164E-01 -2.29825E-01
    8997.197     -1.655   1.480  6.41658E-01  8.10928E-01 -1.69270E-01
    8997.655     -1.198   1.520  7.35566E-01  8.23372E-01 -8.78051E-02
    8998.124     -0.728   1.560  8.14412E-01  8.35486E-01 -2.10737E-02
    8998.606     -0.247   1.600  8.66920E-01  8.47262E-01  1.96577E-02
    8999.099      0.247   1.640  9.03217E-01  8.58630E-01  4.45867E-02
    8999.605      0.753   1.680  9.12861E-01  8.69604E-01  4.32569E-02
    9000.123      1.271   1.720  8.74877E-01  8.80156E-01 -5.27849E-03
    9000.654      1.802   1.760  8.21348E-01  8.90280E-01 -6.89323E-02
    9001.196      2.344   1.800  8.06644E-01  8.99973E-01 -9.33286E-02
    9001.751      2.899   1.840  8.33301E-01  9.09209E-01 -7.59083E-02
    9002.318      3.466   1.880  8.79357E-01  9.17987E-01 -3.86305E-02
    9002.897      4.045   1.920  9.44908E-01  9.26306E-01  1.86013E-02
    9003.488      4.636   1.960  1.03103E+00  9.34164E-01  9.68668E-02
    9004.092      5.240   2.000  1.12144E+00  9.41563E-01  1.79873E-01
    9004.708      5.855   2.040  1.18885E+00  9.48484E-01  2.40367E-01
    9005.336      6.483   2.080  1.23040E+00  9.54969E-01  2.75429E-01
    9005.976      7.123   2.120  1.26384E+00  9.60983E-01  3.02853E-01
    9006.628      7.776   2.160  1.29519E+00  9.66570E-01  3.28615E-01
    9007.292      8.440   2.200  1.32315E+00  9.71716E-01  3.51436E-01
    9007.969      9.117   2.240  1.33537E+00  9.76445E-01  3.58922E-01
    9008.658      9.806   2.280  1.32402E+00  9.80766E-01  3.43255E-01
    9009.359     10.507   2.320  1.31428E+00  9.84706E-01  3.29575E-01
    9010.072     11.220   2.360  1.32698E+00  9.88249E-01  3.38734E-01
    9010.798     11.945   2.400  1.34117E+00  9.91424E-01  3.49746E-01
    9011.535     12.683   2.440  1.31194E+00  9.94261E-01  3.17681E-01
    9012.285     13.433   2.480  1.22485E+00  9.96746E-01  2.28105E-01
    9013.047     14.195   2.520  1.11856E+00  9.98931E-01  1.19627E-01
    9013.821     14.969   2.560  1.03150E+00  1.00082E+00  3.06736E-02
    9014.607     15.755   2.600  9.84933E-01  1.00241E+00 -1.74740E-02
    9015.406     16.554   2.640  9.65785E-01  1.00374E+00 -3.79517E-02
    9016.217     17.365   2.680  9.52895E-01  1.00482E+00 -5.19257E-02
    9017.040     18.188   2.720  9.42705E-01  1.00569E+00 -6.29816E-02
    9017.875     19.023   2.760  9.36129E-01  1.00632E+00 -7.01917E-02
    9018.722     19.870   2.800  9.32992E-01  1.00675E+00 -7.37613E-02
    9019.582     20.730   2.840  9.31728E-01  1.00701E+00 -7.52840E-02
    9020.454     21.601   2.880  9.29621E-01  1.00711E+00 -7.74849E-02
    9021.337     22.485   2.920  9.24400E-01  1.00704E+00 -8.26414E-02
    9022.234     23.381   2.960  9.15371E-01  1.00685E+00 -9.14757E-02
    9023.142     24.290   3.000  9.03289E-01  1.00653E+00 -1.03238E-01
    9024.062     25.210   3.040  8.89517E-01  1.00609E+00 -1.16574E-01
    9024.995     26.143   3.080  8.75557E-01  1.00556E+00 -1.30006E-01
    9025.940     27.088   3.120  8.62978E-01  1.00493E+00 -1.41951E-01
    9026.897     28.045   3.160  8.53149E-01  1.00424E+00 -1.51091E-01
    9027.866     29.014   3.200  8.47198E-01  1.00350E+00 -1.56300E-01
    9028.848     29.996   3.240  8.46063E-01  1.00269E+00 -1.56625E-01
    9029.841     30.989   3.280  8.49534E-01  1.00184E+00 -1.52302E-01
    9030.847     31.995   3.320  8.56915E-01  1.00097E+00 -1.44053E-01
    9031.865     33.013   3.360  8.67341E-01  1.00007E+00 -1.32725E-01
    9032.895     34.043   3.400  8.79773E-01  9.99133E-01 -1.19360E-01
    9033.938     35.086   3.440  8.93114E-01  9.98217E-01 -1.05103E-01
    9034.992     36.140   3.480  9.06570E-01  9.97278E-01 -9.07080E-02
    9036.059     37.207   3.520  9.20003E-01  9.96361E-01 -7.63587E-02
    9037.138     38.286   3.560  9.33662E-01  9.95449E-01 -6.17877E-02
    9038.229     39.377   3.600  9.48278E-01  9.94544E-01 -4.62659E-02
    9039.333     40.481   3.640  9.64627E-01  9.93670E-01 -2.90435E-02
    9040.448     41.596   3.680  9.82902E-01  9.92829E-01 -9.92708E-03
    9041.576     42.724   3.720  1.00242E+00  9.92001E-01  1.04198E-02
    9042.716     43.864   3.760  1.02172E+00  9.91233E-01  3.04879E-02
    9043.868     45.016   3.800  1.03857E+00  9.90483E-01  4.80871E-02
    9045.033     46.180   3.840  1.05062E+00  9.89791E-01  6.08344E-02
    9046.209     47.357   3.880  1.05605E+00  9.89119E-01  6.69256E-02
    9047.398     48.546   3.920  1.05398E+00  9.88511E-01  6.54658E-02
    9048.599     49.746   3.960  1.04477E+00  9.87945E-01  5.68213E-02
    9049.812     50.960   4.000  1.03030E+00  9.87422E-01  4.28742E-02
    9051.037     52.185   4.040  1.01360E+00  9.86942E-01  2.66588E-02
    9052.275     53.422   4.080  9.98214E-01  9.86526E-01  1.16873E-02
    9053.524     54.672   4.120  9.87319E-01  9.86136E-01  1.18286E-03
    9054.786     55.934   4.160  9.83299E-01  9.85832E-01 -2.53232E-03
    9056.060     57.208   4.200  9.87122E-01  9.85550E-01  1.57181E-03
    9057.346     58.494   4.240  9.98270E-01  9.85333E-01  1.29373E-02
    9058.645     59.793   4.280  1.01461E+00  9.85139E-01  2.94681E-02
    9059.955     61.103   4.320  1.03305E+00  9.85032E-01  4.80161E-02
    9061.278     62.426   4.360  1.05009E+00  9.84945E-01  6.51485E-02
    9062.613     63.761   4.400  1.06282E+00  9.84899E-01  7.79169E-02
    9063.961     65.108   4.440  1.06921E+00  9.84917E-01  8.42977E-02
    9065.320     66.468   4.480  1.06846E+00  9.84953E-01  8.35027E-02
    9066.692     67.839   4.520  1.06126E+00  9.85050E-01  7.62060E-02
    9068.075     69.223   4.560  1.04986E+00  9.85165E-01  6.46943E-02
    9069.471     70.619   4.600  1.03748E+00  9.85339E-01  5.21361E-02
    9070.879     72.027   4.640  1.02720E+00  9.85529E-01  4.16680E-02
    9072.300     73.448   4.680  1.02121E+00  9.85753E-01  3.54590E-02
    9073.732     74.880   4.720  1.02009E+00  9.86011E-01  3.40796E-02
    9075.177     76.325   4.760  1.02278E+00  9.86281E-01  3.65015E-02
    9076.634     77.782   4.800  1.02726E+00  9.86583E-01  4.06798E-02
    9078.103     79.251   4.840  1.03132E+00  9.86916E-01  4.44046E-02
    9079.584     80.732   4.880  1.03334E+00  9.87257E-01  4.60836E-02
    9081.078     82.226   4.920  1.03249E+00  9.87603E-01  4.48878E-02
    9082.584     83.732   4.960  1.02853E+00  9.87977E-01  4.05489E-02
    9084.102     85.249   5.000  1.02157E+00  9.88354E-01  3.32126E-02
    9085.632     86.780   5.040  1.01185E+00  9.88733E-01  2.31161E-02
    9087.174     88.322   5.080  9.99557E-01  9.89111E-01  1.04465E-02
    9088.728     89.876   5.120  9.84847E-01  9.89489E-01 -4.64247E-03
    9090.295     91.443   5.160  9.68083E-01  9.89867E-01 -2.17838E-02
    9091.874     93.022   5.200  9.49996E-01  9.90242E-01 -4.02463E-02
    9093.465     94.613   5.240  9.31626E-01  9.90614E-01 -5.89877E-02
    9095.068     96.216   5.280  9.14217E-01  9.90981E-01 -7.67644E-02
    9096.684     97.832   5.320  8.99006E-01  9.91319E-01 -9.23132E-02
    9098.311     99.459   5.360  8.87080E-01  9.91649E-01 -1.04569E-01
    9099.951    101.099   5.400  8.79166E-01  9.91947E-01 -1.12781E-01
    9101.603    102.751   5.440  8.75748E-01  9.92237E-01 -1.16488E-01
    9103.267    104.415   5.480  8.76989E-01  9.92516E-01 -1.15527E-01
    9104.944    106.092   5.520  8.82736E-01  9.92739E-01 -1.10004E-01
    9106.632    107.780   5.560  8.92797E-01  9.92951E-01 -1.00154E-01
    9108.333    109.481   5.600  9.06975E-01  9.93151E-01 -8.61755E-02
    9110.046    111.194   5.640  9.25046E-01  9.93315E-01 -6.82686E-02
    9111.771    112.919   5.680  9.46577E-01  9.93420E-01 -4.68424E-02
    9113.509    114.656   5.720  9.70648E-01  9.93532E-01 -2.28843E-02
    9115.258    116.406   5.760  9.95547E-01  9.93585E-01  1.96253E-03
    9117.020    118.168   5.800  1.01940E+00  9.93599E-01  2.58045E-02
    9118.794    119.942   5.840  1.04071E+00  9.93599E-01  4.71121E-02
    9120.580    121.728   5.880  1.05837E+00  9.93539E-01  6.48313E-02
    9122.378    123.526   5.920  1.07135E+00  9.93464E-01  7.78880E-02
    9124.189    125.337   5.960  1.07797E+00  9.93352E-01  8.46188E-02
    9126.011    127.159   6.000  1.07609E+00  9.93180E-01  8.29087E-02
