# # comment:                                                     FEFF 9.9.1  
# # Source:
# # Structure
# # Reduced
# # space
# # abc:
# # angles:
# # sites:
# # POT  SCF 100  7.0000   0, screened core-hole, AFOLP (folp(0)= 1.150)
# # Abs   Z=29 Rmt= 1.200 Rnm= 1.310 K  shell
# # Pot 1 Z=49 Rmt= 1.495 Rnm= 1.563
# # Pot 2 Z=29 Rmt= 1.200 Rnm= 1.310
# # Pot 3 Z=17 Rmt= 1.684 Rnm= 1.684
# # Pot 4 Z= 8 Rmt= 1.024 Rnm= 1.104
# # Gam_ch=1.729E+00 H-L exch Vi= 0.000E+00 Vr= 0.000E+00
# # Mu=-6.900E+00eV kf=2.158E+00 Vint=-1.458E+01eV Rs_int= 1.681
# FMS rfms= 9.0000
# # PATH  Rmax=-1.000,  Keep_limit= 0.00, Heap_limit 0.00  Pwcrit= 2.50%
#  S02=0.950  Temp=   0.00  Debye_temp=   0.00  Global_sig2= 0.00000
#  Energy zero shift, vr, vi    0.00000E+00   0.00000E+00
#  Curved wave amplitude ratio filter   4.000%
#     file         sig2 tot  cw amp ratio   deg  nlegs   reff  inp sig2
#     0/   0 paths used
#  xsedge+ 50, used to normalize mu           2.4395E-04
#  -----------------------------------------------------------------------
#  omega    e    k    mu    mu0     chi     @#
    8983.491    -10.710  -1.000  3.63520E-02  5.48959E-02 -1.85439E-02
    8983.790    -10.411  -0.960  3.81499E-02  5.88651E-02 -2.07152E-02
    8984.076    -10.124  -0.920  4.00705E-02  6.32713E-02 -2.32008E-02
    8984.351     -9.850  -0.880  4.21254E-02  6.81783E-02 -2.60530E-02
    8984.613     -9.588  -0.840  4.43273E-02  7.36601E-02 -2.93329E-02
    8984.863     -9.338  -0.800  4.66907E-02  7.98025E-02 -3.31118E-02
    8985.100     -9.100  -0.760  4.92318E-02  8.67035E-02 -3.74718E-02
    8985.326     -8.875  -0.720  5.19680E-02  9.44742E-02 -4.25062E-02
    8985.539     -8.661  -0.680  5.49183E-02  1.03236E-01 -4.83182E-02
    8985.740     -8.460  -0.640  5.81012E-02  1.13119E-01 -5.50176E-02
    8985.929     -8.271  -0.600  6.15340E-02  1.24247E-01 -6.27131E-02
    8986.106     -8.094  -0.560  6.52286E-02  1.36729E-01 -7.15002E-02
    8986.271     -7.930  -0.520  6.91865E-02  1.50627E-01 -8.14405E-02
    8986.423     -7.777  -0.480  7.33920E-02  1.65926E-01 -9.25344E-02
    8986.563     -7.637  -0.440  7.78038E-02  1.82493E-01 -1.04689E-01
    8986.691     -7.509  -0.400  8.23489E-02  2.00041E-01 -1.17692E-01
    8986.807     -7.393  -0.360  8.69210E-02  2.18120E-01 -1.31199E-01
    8986.911     -7.290  -0.320  9.13883E-02  2.36147E-01 -1.44758E-01
    8987.002     -7.198  -0.280  9.56095E-02  2.53472E-01 -1.57862E-01
    8987.082     -7.119  -0.240  9.94538E-02  2.69470E-01 -1.70016E-01
    8987.149     -7.052  -0.200  1.02816E-01  2.83616E-01 -1.80799E-01
    8987.203     -6.997  -0.160  1.05625E-01  2.95522E-01 -1.89897E-01
    8987.246     -6.954  -0.120  1.07836E-01  3.04940E-01 -1.97104E-01
    8987.277     -6.924  -0.080  1.09428E-01  3.11728E-01 -2.02301E-01
    8987.301     -6.900   0.000  1.10714E-01  3.17185E-01 -2.06471E-01
    8987.356     -6.845   0.120  1.13671E-01  3.29482E-01 -2.15811E-01
    8987.398     -6.802   0.160  1.15907E-01  3.39065E-01 -2.23158E-01
    8987.453     -6.747   0.200  1.18714E-01  3.51303E-01 -2.32590E-01
    8987.520     -6.680   0.240  1.22066E-01  3.66067E-01 -2.44001E-01
    8987.600     -6.601   0.280  1.25851E-01  3.83038E-01 -2.57187E-01
    8987.691     -6.509   0.320  1.30029E-01  4.01830E-01 -2.71800E-01
    8987.795     -6.406   0.360  1.34532E-01  4.21912E-01 -2.87380E-01
    8987.911     -6.290   0.400  1.39397E-01  4.42741E-01 -3.03344E-01
    8988.039     -6.162   0.440  1.44779E-01  4.63819E-01 -3.19040E-01
    8988.179     -6.022   0.480  1.50983E-01  4.84718E-01 -3.33736E-01
    8988.331     -5.869   0.520  1.58548E-01  5.05193E-01 -3.46644E-01
    8988.496     -5.705   0.560  1.68189E-01  5.25126E-01 -3.56937E-01
    8988.673     -5.528   0.600  1.80716E-01  5.44485E-01 -3.63769E-01
    8988.862     -5.339   0.640  1.97076E-01  5.63299E-01 -3.66223E-01
    8989.063     -5.138   0.680  2.18163E-01  5.81612E-01 -3.63449E-01
    8989.276     -4.925   0.720  2.44700E-01  5.99523E-01 -3.54823E-01
    8989.502     -4.699   0.760  2.76559E-01  6.17127E-01 -3.40568E-01
    8989.739     -4.461   0.800  3.12062E-01  6.34426E-01 -3.22364E-01
    8989.989     -4.211   0.840  3.49237E-01  6.51536E-01 -3.02298E-01
    8990.251     -3.949   0.880  3.88971E-01  6.68432E-01 -2.79461E-01
    8990.526     -3.675   0.920  4.36570E-01  6.85160E-01 -2.48590E-01
    8990.812     -3.388   0.960  4.96471E-01  7.01734E-01 -2.05263E-01
    8991.111     -3.090   1.000  5.65427E-01  7.18116E-01 -1.52689E-01
    8991.422     -2.779   1.040  6.29362E-01  7.34320E-01 -1.04958E-01
    8991.745     -2.456   1.080  6.64506E-01  7.50334E-01 -8.58279E-02
    8992.080     -2.120   1.120  6.48251E-01  7.66097E-01 -1.17846E-01
    8992.428     -1.773   1.160  5.85850E-01  7.81588E-01 -1.95738E-01
    8992.787     -1.413   1.200  5.15917E-01  7.96781E-01 -2.80864E-01
    8993.159     -1.041   1.240  4.72917E-01  8.11646E-01 -3.38729E-01
    8993.543     -0.657   1.280  4.67268E-01  8.26152E-01 -3.58884E-01
    8993.939     -0.261   1.320  4.95255E-01  8.40227E-01 -3.44973E-01
    8994.348      0.147   1.360  5.45580E-01  8.53882E-01 -3.08302E-01
    8994.769      0.568   1.400  5.96622E-01  8.67063E-01 -2.70440E-01
    8995.201      1.001   1.440  6.22737E-01  8.79740E-01 -2.57004E-01
    8995.646      1.446   1.480  6.15760E-01  8.91905E-01 -2.76145E-01
    8996.104      1.903   1.520  5.93911E-01  9.03507E-01 -3.09597E-01
    8996.573      2.372   1.560  5.85292E-01  9.14540E-01 -3.29248E-01
    8997.055      2.854   1.600  6.09371E-01  9.24999E-01 -3.15628E-01
    8997.548      3.348   1.640  6.73088E-01  9.34881E-01 -2.61794E-01
    8998.054      3.854   1.680  7.68222E-01  9.44144E-01 -1.75922E-01
    8998.572      4.372   1.720  8.68639E-01  9.52828E-01 -8.41892E-02
    8999.103      4.902   1.760  9.54434E-01  9.60894E-01 -6.45917E-03
    8999.645      5.445   1.800  1.04409E+00  9.68386E-01  7.57051E-02
    9000.200      5.999   1.840  1.17002E+00  9.75268E-01  1.94755E-01
    9000.767      6.566   1.880  1.32238E+00  9.81589E-01  3.40792E-01
    9001.346      7.145   1.920  1.44773E+00  9.87333E-01  4.60400E-01
    9001.937      7.737   1.960  1.51902E+00  9.92552E-01  5.26470E-01
    9002.541      8.340   2.000  1.54634E+00  9.97236E-01  5.49104E-01
    9003.157      8.956   2.040  1.53069E+00  1.00141E+00  5.29274E-01
    9003.784      9.584   2.080  1.45206E+00  1.00510E+00  4.46968E-01
    9004.425     10.224   2.120  1.32620E+00  1.00831E+00  3.17887E-01
    9005.077     10.876   2.160  1.21739E+00  1.01108E+00  2.06309E-01
    9005.741     11.541   2.200  1.15228E+00  1.01346E+00  1.38824E-01
    9006.418     12.217   2.240  1.12464E+00  1.01543E+00  1.09214E-01
    9007.107     12.906   2.280  1.12842E+00  1.01703E+00  1.11391E-01
    9007.808     13.607   2.320  1.15055E+00  1.01831E+00  1.32239E-01
    9008.521     14.320   2.360  1.17157E+00  1.01924E+00  1.52327E-01
    9009.246     15.046   2.400  1.18686E+00  1.01991E+00  1.66950E-01
    9009.984     15.783   2.440  1.20426E+00  1.02032E+00  1.83939E-01
    9010.734     16.533   2.480  1.22337E+00  1.02045E+00  2.02918E-01
    9011.496     17.295   2.520  1.23281E+00  1.02038E+00  2.12434E-01
    9012.270     18.069   2.560  1.21503E+00  1.02012E+00  1.94905E-01
    9013.056     18.856   2.600  1.16394E+00  1.01967E+00  1.44269E-01
    9013.855     19.654   2.640  1.10775E+00  1.01907E+00  8.86760E-02
    9014.666     20.465   2.680  1.06183E+00  1.01833E+00  4.34992E-02
    9015.489     21.288   2.720  1.02803E+00  1.01748E+00  1.05508E-02
    9016.324     22.123   2.760  1.00372E+00  1.01652E+00 -1.27984E-02
    9017.171     22.971   2.800  9.86881E-01  1.01547E+00 -2.85903E-02
    9018.031     23.830   2.840  9.75448E-01  1.01437E+00 -3.89208E-02
    9018.902     24.702   2.880  9.65771E-01  1.01320E+00 -4.74257E-02
    9019.786     25.586   2.920  9.54845E-01  1.01198E+00 -5.71360E-02
    9020.683     26.482   2.960  9.41549E-01  1.01075E+00 -6.92038E-02
    9021.591     27.390   3.000  9.26468E-01  1.00952E+00 -8.30484E-02
    9022.511     28.311   3.040  9.11331E-01  1.00826E+00 -9.69252E-02
    9023.444     29.243   3.080  8.98456E-01  1.00702E+00 -1.08563E-01
    9024.389     30.188   3.120  8.89418E-01  1.00579E+00 -1.16371E-01
    9025.346     31.145   3.160  8.84010E-01  1.00459E+00 -1.20581E-01
    9026.315     32.115   3.200  8.80679E-01  1.00343E+00 -1.22750E-01
    9027.297     33.096   3.240  8.77787E-01  1.00231E+00 -1.24521E-01
    9028.290     34.090   3.280  8.74457E-01  1.00123E+00 -1.26771E-01
    9029.296     35.096   3.320  8.70950E-01  1.00019E+00 -1.29241E-01
    9030.314     36.114   3.360  8.68236E-01  9.99203E-01 -1.30967E-01
    9031.344     37.144   3.400  8.67326E-01  9.98306E-01 -1.30980E-01
    9032.387     38.186   3.440  8.68657E-01  9.97439E-01 -1.28782E-01
    9033.441     39.241   3.480  8.72876E-01  9.96669E-01 -1.23793E-01
    9034.508     40.308   3.520  8.80615E-01  9.95953E-01 -1.15339E-01
    9035.587     41.387   3.560  8.92216E-01  9.95313E-01 -1.03098E-01
    9036.678     42.478   3.600  9.07337E-01  9.94751E-01 -8.74139E-02
    9037.782     43.581   3.640  9.24614E-01  9.94267E-01 -6.96523E-02
    9038.897     44.697   3.680  9.41842E-01  9.93840E-01 -5.19978E-02
    9040.025     45.824   3.720  9.56932E-01  9.93513E-01 -3.65807E-02
    9041.165     46.964   3.760  9.68931E-01  9.93244E-01 -2.43127E-02
    9042.317     48.117   3.800  9.77867E-01  9.93074E-01 -1.52070E-02
    9043.481     49.281   3.840  9.83998E-01  9.92960E-01 -8.96175E-03
    9044.658     50.457   3.880  9.87860E-01  9.92923E-01 -5.06329E-03
    9045.847     51.646   3.920  9.90256E-01  9.92962E-01 -2.70606E-03
    9047.048     52.847   3.960  9.92118E-01  9.93055E-01 -9.36937E-04
    9048.261     54.060   4.000  9.94388E-01  9.93222E-01  1.16565E-03
    9049.486     55.285   4.040  9.97772E-01  9.93462E-01  4.31060E-03
    9050.723     56.523   4.080  1.00266E+00  9.93753E-01  8.90897E-03
    9051.973     57.773   4.120  1.00919E+00  9.94115E-01  1.50727E-02
    9053.235     59.034   4.160  1.01731E+00  9.94526E-01  2.27800E-02
    9054.509     60.308   4.200  1.02671E+00  9.95003E-01  3.17048E-02
    9055.795     61.595   4.240  1.03665E+00  9.95526E-01  4.11242E-02
    9057.094     62.893   4.280  1.04611E+00  9.96068E-01  5.00381E-02
    9058.404     64.204   4.320  1.05429E+00  9.96671E-01  5.76172E-02
    9059.727     65.527   4.360  1.06095E+00  9.97315E-01  6.36391E-02
    9061.062     66.862   4.400  1.06652E+00  9.97996E-01  6.85250E-02
    9062.409     68.209   4.440  1.07171E+00  9.98690E-01  7.30241E-02
    9063.769     69.568   4.480  1.07687E+00  9.99416E-01  7.74529E-02
    9065.140     70.940   4.520  1.08190E+00  1.00017E+00  8.17278E-02
    9066.524     72.324   4.560  1.08662E+00  1.00094E+00  8.56761E-02
    9067.920     73.720   4.600  1.09080E+00  1.00171E+00  8.90919E-02
    9069.328     75.128   4.640  1.09418E+00  1.00250E+00  9.16762E-02
    9070.749     76.548   4.680  1.09631E+00  1.00328E+00  9.30373E-02
    9072.181     77.981   4.720  1.09681E+00  1.00407E+00  9.27398E-02
    9073.626     79.425   4.760  1.09511E+00  1.00484E+00  9.02717E-02
    9075.083     80.882   4.800  1.09054E+00  1.00560E+00  8.49371E-02
    9076.552     82.352   4.840  1.08238E+00  1.00636E+00  7.60267E-02
    9078.033     83.833   4.880  1.07035E+00  1.00710E+00  6.32442E-02
    9079.527     85.326   4.920  1.05482E+00  1.00779E+00  4.70228E-02
    9081.033     86.832   4.960  1.03702E+00  1.00850E+00  2.85215E-02
    9082.551     88.350   5.000  1.01851E+00  1.00914E+00  9.37134E-03
    9084.081     89.880   5.040  1.00096E+00  1.00977E+00 -8.80640E-03
    9085.623     91.422   5.080  9.85433E-01  1.01036E+00 -2.49251E-02
    9087.177     92.977   5.120  9.72318E-01  1.01091E+00 -3.85893E-02
    9088.744     94.543   5.160  9.61587E-01  1.01142E+00 -4.98287E-02
    9090.323     96.122   5.200  9.53278E-01  1.01188E+00 -5.86036E-02
    9091.914     97.713   5.240  9.47627E-01  1.01230E+00 -6.46771E-02
    9093.517     99.317   5.280  9.44959E-01  1.01268E+00 -6.77207E-02
    9095.133    100.932   5.320  9.45577E-01  1.01299E+00 -6.74116E-02
    9096.760    102.560   5.360  9.49721E-01  1.01325E+00 -6.35295E-02
    9098.400    104.200   5.400  9.57045E-01  1.01347E+00 -5.64218E-02
    9100.052    105.852   5.440  9.66204E-01  1.01364E+00 -4.74347E-02
    9101.716    107.516   5.480  9.75053E-01  1.01377E+00 -3.87119E-02
    9103.393    109.192   5.520  9.81382E-01  1.01382E+00 -3.24366E-02
    9105.081    110.881   5.560  9.83770E-01  1.01380E+00 -3.00329E-02
    9106.782    112.581   5.600  9.82357E-01  1.01376E+00 -3.14062E-02
    9108.495    114.294   5.640  9.78741E-01  1.01365E+00 -3.49142E-02
    9110.220    116.020   5.680  9.75142E-01  1.01350E+00 -3.83594E-02
    9111.958    117.757   5.720  9.73005E-01  1.01330E+00 -4.02990E-02
    9113.707    119.506   5.760  9.72573E-01  1.01304E+00 -4.04667E-02
    9115.469    121.268   5.800  9.73436E-01  1.01276E+00 -3.93198E-02
    9117.243    123.042   5.840  9.75232E-01  1.01241E+00 -3.71746E-02
    9119.029    124.828   5.880  9.78376E-01  1.01202E+00 -3.36408E-02
    9120.827    126.627   5.920  9.83833E-01  1.01159E+00 -2.77544E-02
    9122.638    128.437   5.960  9.92337E-01  1.01109E+00 -1.87572E-02
    9124.460    130.260   6.000  1.00396E+00  1.01056E+00 -6.60273E-03
