# # comment:                                                     FEFF 9.9.1  
# # Source:
# # Structure
# # Reduced
# # space
# # abc:
# # angles:
# # sites:
# # POT  SCF 100  7.0000   0, screened core-hole, AFOLP (folp(0)= 1.150)
# # Abs   Z=29 Rmt= 1.265 Rnm= 1.333 K  shell
# # Pot 1 Z=29 Rmt= 1.295 Rnm= 1.360
# # Pot 2 Z= 1 Rmt= 0.925 Rnm= 0.985
# # Pot 3 Z= 6 Rmt= 0.724 Rnm= 0.945
# # Pot 4 Z= 8 Rmt= 0.830 Rnm= 1.015
# # Gam_ch=1.729E+00 H-L exch Vi= 0.000E+00 Vr= 0.000E+00
# # Mu=-6.550E+00eV kf=2.670E+00 Vint=-1.726E+01eV Rs_int= 1.358
# FMS rfms= 9.0000
# # PATH  Rmax=-1.000,  Keep_limit= 0.00, Heap_limit 0.00  Pwcrit= 2.50%
#  S02=0.950  Temp=   0.00  Debye_temp=   0.00  Global_sig2= 0.00000
#  Energy zero shift, vr, vi    0.00000E+00   0.00000E+00
#  Curved wave amplitude ratio filter   4.000%
#     file         sig2 tot  cw amp ratio   deg  nlegs   reff  inp sig2
#     0/   0 paths used
#  xsedge+ 50, used to normalize mu           2.4887E-04
#  -----------------------------------------------------------------------
#  omega    e    k    mu    mu0     chi     @#
    8983.273    -10.360  -1.000  4.28573E-02  5.20197E-02 -9.16244E-03
    8983.572    -10.061  -0.960  4.55364E-02  5.57927E-02 -1.02563E-02
    8983.858     -9.774  -0.920  4.84762E-02  5.99875E-02 -1.15113E-02
    8984.133     -9.500  -0.880  5.17116E-02  6.46669E-02 -1.29553E-02
    8984.395     -9.238  -0.840  5.52827E-02  6.99037E-02 -1.46211E-02
    8984.645     -8.988  -0.800  5.92349E-02  7.57825E-02 -1.65476E-02
    8984.883     -8.750  -0.760  6.36199E-02  8.24005E-02 -1.87807E-02
    8985.108     -8.525  -0.720  6.84947E-02  8.98676E-02 -2.13728E-02
    8985.322     -8.311  -0.680  7.39214E-02  9.83047E-02 -2.43834E-02
    8985.523     -8.110  -0.640  7.99637E-02  1.07840E-01 -2.78763E-02
    8985.712     -7.921  -0.600  8.66834E-02  1.18599E-01 -3.19159E-02
    8985.888     -7.744  -0.560  9.41314E-02  1.30690E-01 -3.65588E-02
    8986.053     -7.580  -0.520  1.02337E-01  1.44177E-01 -4.18405E-02
    8986.205     -7.428  -0.480  1.11289E-01  1.59046E-01 -4.77570E-02
    8986.346     -7.287  -0.440  1.20923E-01  1.75167E-01 -5.42442E-02
    8986.474     -7.159  -0.400  1.31098E-01  1.92258E-01 -6.11601E-02
    8986.589     -7.043  -0.360  1.41592E-01  2.09874E-01 -6.82820E-02
    8986.693     -6.940  -0.320  1.52112E-01  2.27439E-01 -7.53269E-02
    8986.785     -6.848  -0.280  1.62321E-01  2.44314E-01 -8.19933E-02
    8986.864     -6.769  -0.240  1.71872E-01  2.59885E-01 -8.80128E-02
    8986.931     -6.702  -0.200  1.80449E-01  2.73638E-01 -9.31891E-02
    8986.986     -6.647  -0.160  1.87790E-01  2.85201E-01 -9.74114E-02
    8987.028     -6.605  -0.120  1.93695E-01  2.94337E-01 -1.00641E-01
    8987.059     -6.574  -0.080  1.98025E-01  3.00914E-01 -1.02889E-01
    8987.083     -6.550   0.000  2.01594E-01  3.06197E-01 -1.04602E-01
    8987.138     -6.495   0.120  2.09450E-01  3.18099E-01 -1.08649E-01
    8987.181     -6.452   0.160  2.15664E-01  3.27357E-01 -1.11693E-01
    8987.236     -6.397   0.200  2.23742E-01  3.39149E-01 -1.15407E-01
    8987.303     -6.330   0.240  2.33720E-01  3.53306E-01 -1.19585E-01
    8987.382     -6.251   0.280  2.45629E-01  3.69548E-01 -1.23918E-01
    8987.473     -6.160   0.320  2.59387E-01  3.87423E-01 -1.28036E-01
    8987.577     -6.056   0.360  2.74835E-01  4.06397E-01 -1.31562E-01
    8987.693     -5.940   0.400  2.91691E-01  4.25903E-01 -1.34211E-01
    8987.821     -5.812   0.440  3.09511E-01  4.45424E-01 -1.35913E-01
    8987.961     -5.672   0.480  3.27575E-01  4.64542E-01 -1.36968E-01
    8988.113     -5.519   0.520  3.44964E-01  4.82985E-01 -1.38021E-01
    8988.278     -5.355   0.560  3.60730E-01  5.00678E-01 -1.39947E-01
    8988.455     -5.178   0.600  3.74033E-01  5.17551E-01 -1.43518E-01
    8988.644     -4.989   0.640  3.84793E-01  5.33706E-01 -1.48913E-01
    8988.845     -4.788   0.680  3.93683E-01  5.49180E-01 -1.55497E-01
    8989.058     -4.575   0.720  4.02027E-01  5.64105E-01 -1.62078E-01
    8989.284     -4.349   0.760  4.11141E-01  5.78592E-01 -1.67450E-01
    8989.522     -4.111   0.800  4.21834E-01  5.92723E-01 -1.70889E-01
    8989.772     -3.861   0.840  4.34101E-01  6.06548E-01 -1.72448E-01
    8990.034     -3.599   0.880  4.47445E-01  6.20164E-01 -1.72719E-01
    8990.308     -3.325   0.920  4.61708E-01  6.33612E-01 -1.71904E-01
    8990.595     -3.038   0.960  4.77556E-01  6.46927E-01 -1.69371E-01
    8990.893     -2.740   1.000  4.95473E-01  6.60129E-01 -1.64656E-01
    8991.204     -2.429   1.040  5.14412E-01  6.73249E-01 -1.58837E-01
    8991.527     -2.106   1.080  5.31655E-01  6.86312E-01 -1.54657E-01
    8991.863     -1.770   1.120  5.44683E-01  6.99275E-01 -1.54593E-01
    8992.210     -1.423   1.160  5.53676E-01  7.12174E-01 -1.58498E-01
    8992.570     -1.063   1.200  5.61298E-01  7.24972E-01 -1.63673E-01
    8992.941     -0.691   1.240  5.69337E-01  7.37676E-01 -1.68339E-01
    8993.326     -0.307   1.280  5.75927E-01  7.50267E-01 -1.74340E-01
    8993.722      0.089   1.320  5.79133E-01  7.62744E-01 -1.83610E-01
    8994.130      0.497   1.360  5.81754E-01  7.75063E-01 -1.93309E-01
    8994.551      0.918   1.400  5.89162E-01  7.87220E-01 -1.98058E-01
    8994.984      1.351   1.440  6.05919E-01  7.99171E-01 -1.93252E-01
    8995.429      1.796   1.480  6.34238E-01  8.10927E-01 -1.76689E-01
    8995.886      2.253   1.520  6.72462E-01  8.22462E-01 -1.50000E-01
    8996.355      2.722   1.560  7.17314E-01  8.33728E-01 -1.16414E-01
    8996.837      3.204   1.600  7.69122E-01  8.44738E-01 -7.56159E-02
    8997.331      3.698   1.640  8.31370E-01  8.55444E-01 -2.40749E-02
    8997.837      4.204   1.680  9.04171E-01  8.65860E-01  3.83113E-02
    8998.355      4.722   1.720  9.79255E-01  8.75937E-01  1.03318E-01
    8998.885      5.252   1.760  1.04341E+00  8.85691E-01  1.57723E-01
    8999.428      5.795   1.800  1.08959E+00  8.95077E-01  1.94514E-01
    8999.982      6.349   1.840  1.12343E+00  9.04087E-01  2.19346E-01
    9000.549      6.916   1.880  1.15373E+00  9.12738E-01  2.40997E-01
    9001.128      7.495   1.920  1.18139E+00  9.20987E-01  2.60407E-01
    9001.720      8.087   1.960  1.20714E+00  9.28871E-01  2.78264E-01
    9002.323      8.690   2.000  1.23227E+00  9.36327E-01  2.95945E-01
    9002.939      9.306   2.040  1.25055E+00  9.43396E-01  3.07150E-01
    9003.567      9.934   2.080  1.25142E+00  9.50056E-01  3.01366E-01
    9004.207     10.574   2.120  1.23184E+00  9.56329E-01  2.75510E-01
    9004.859     11.226   2.160  1.20224E+00  9.62175E-01  2.40062E-01
    9005.524     11.891   2.200  1.17729E+00  9.67638E-01  2.09649E-01
    9006.200     12.567   2.240  1.15956E+00  9.72718E-01  1.86845E-01
    9006.889     13.256   2.280  1.14606E+00  9.77400E-01  1.68658E-01
    9007.590     13.957   2.320  1.13944E+00  9.81709E-01  1.57730E-01
    9008.303     14.670   2.360  1.13986E+00  9.85649E-01  1.54212E-01
    9009.029     15.396   2.400  1.14107E+00  9.89223E-01  1.51846E-01
    9009.766     16.133   2.440  1.14155E+00  9.92439E-01  1.49112E-01
    9010.516     16.883   2.480  1.14583E+00  9.95343E-01  1.50488E-01
    9011.278     17.645   2.520  1.15247E+00  9.97899E-01  1.54568E-01
    9012.052     18.419   2.560  1.15543E+00  1.00014E+00  1.55290E-01
    9012.839     19.206   2.600  1.15196E+00  1.00210E+00  1.49856E-01
    9013.637     20.004   2.640  1.14147E+00  1.00376E+00  1.37706E-01
    9014.448     20.815   2.680  1.12166E+00  1.00516E+00  1.16499E-01
    9015.271     21.638   2.720  1.09242E+00  1.00629E+00  8.61278E-02
    9016.106     22.473   2.760  1.05973E+00  1.00720E+00  5.25306E-02
    9016.954     23.321   2.800  1.02934E+00  1.00787E+00  2.14633E-02
    9017.813     24.180   2.840  1.00094E+00  1.00833E+00 -7.39495E-03
    9018.685     25.052   2.880  9.71643E-01  1.00860E+00 -3.69543E-02
    9019.569     25.936   2.920  9.40166E-01  1.00867E+00 -6.85011E-02
    9020.465     26.832   2.960  9.08328E-01  1.00859E+00 -1.00261E-01
    9021.373     27.740   3.000  8.79591E-01  1.00833E+00 -1.28741E-01
    9022.294     28.661   3.040  8.59870E-01  1.00796E+00 -1.48095E-01
    9023.226     29.593   3.080  8.50473E-01  1.00745E+00 -1.56978E-01
    9024.171     30.538   3.120  8.46667E-01  1.00682E+00 -1.60152E-01
    9025.128     31.495   3.160  8.45908E-01  1.00609E+00 -1.60186E-01
    9026.098     32.465   3.200  8.46974E-01  1.00528E+00 -1.58310E-01
    9027.079     33.446   3.240  8.49412E-01  1.00439E+00 -1.54982E-01
    9028.073     34.440   3.280  8.53318E-01  1.00343E+00 -1.50113E-01
    9029.078     35.445   3.320  8.58553E-01  1.00244E+00 -1.43888E-01
    9030.096     36.464   3.360  8.64889E-01  1.00138E+00 -1.36495E-01
    9031.127     37.494   3.400  8.72454E-01  1.00029E+00 -1.27835E-01
    9032.169     38.536   3.440  8.81331E-01  9.99158E-01 -1.17827E-01
    9033.224     39.591   3.480  8.91483E-01  9.98040E-01 -1.06557E-01
    9034.290     40.658   3.520  9.02718E-01  9.96896E-01 -9.41782E-02
    9035.369     41.737   3.560  9.14780E-01  9.95750E-01 -8.09696E-02
    9036.461     42.828   3.600  9.27168E-01  9.94605E-01 -6.74372E-02
    9037.564     43.931   3.640  9.39583E-01  9.93487E-01 -5.39037E-02
    9038.680     45.047   3.680  9.51780E-01  9.92376E-01 -4.05963E-02
    9039.807     46.174   3.720  9.63599E-01  9.91297E-01 -2.76980E-02
    9040.947     47.314   3.760  9.74882E-01  9.90232E-01 -1.53502E-02
    9042.099     48.466   3.800  9.85608E-01  9.89224E-01 -3.61622E-03
    9043.264     49.631   3.840  9.95624E-01  9.88236E-01  7.38842E-03
    9044.440     50.807   3.880  1.00494E+00  9.87309E-01  1.76270E-02
    9045.629     51.996   3.920  1.01360E+00  9.86424E-01  2.71724E-02
    9046.830     53.197   3.960  1.02166E+00  9.85585E-01  3.60781E-02
    9048.043     54.410   4.000  1.02913E+00  9.84811E-01  4.43212E-02
    9049.268     55.635   4.040  1.03585E+00  9.84062E-01  5.17912E-02
    9050.506     56.873   4.080  1.04164E+00  9.83400E-01  5.82363E-02
    9051.755     58.123   4.120  1.04605E+00  9.82768E-01  6.32797E-02
    9053.017     59.384   4.160  1.04887E+00  9.82224E-01  6.66458E-02
    9054.291     60.658   4.200  1.04996E+00  9.81708E-01  6.82522E-02
    9055.578     61.945   4.240  1.04955E+00  9.81285E-01  6.82649E-02
    9056.876     63.243   4.280  1.04799E+00  9.80890E-01  6.70979E-02
    9058.187     64.554   4.320  1.04596E+00  9.80585E-01  6.53786E-02
    9059.510     65.877   4.360  1.04402E+00  9.80330E-01  6.36911E-02
    9060.845     67.212   4.400  1.04254E+00  9.80123E-01  6.24205E-02
    9062.192     68.559   4.440  1.04167E+00  9.79983E-01  6.16904E-02
    9063.551     69.918   4.480  1.04116E+00  9.79890E-01  6.12691E-02
    9064.923     71.290   4.520  1.04050E+00  9.79844E-01  6.06552E-02
    9066.307     72.674   4.560  1.03912E+00  9.79866E-01  5.92570E-02
    9067.703     74.070   4.600  1.03649E+00  9.79955E-01  5.65331E-02
    9069.111     75.478   4.640  1.03218E+00  9.80066E-01  5.21134E-02
    9070.531     76.898   4.680  1.02616E+00  9.80238E-01  4.59178E-02
    9071.964     78.331   4.720  1.01859E+00  9.80430E-01  3.81619E-02
    9073.408     79.775   4.760  1.00996E+00  9.80682E-01  2.92764E-02
    9074.865     81.232   4.800  1.00082E+00  9.80953E-01  1.98621E-02
    9076.334     82.701   4.840  9.91820E-01  9.81282E-01  1.05372E-02
    9077.816     84.183   4.880  9.83416E-01  9.81626E-01  1.78952E-03
    9079.309     85.676   4.920  9.75921E-01  9.82003E-01 -6.08248E-03
    9080.815     87.182   4.960  9.69412E-01  9.82413E-01 -1.30012E-02
    9082.333     88.700   5.000  9.63804E-01  9.82832E-01 -1.90274E-02
    9083.863     90.230   5.040  9.58949E-01  9.83256E-01 -2.43069E-02
    9085.405     91.772   5.080  9.54688E-01  9.83708E-01 -2.90204E-02
    9086.960     93.327   5.120  9.50843E-01  9.84167E-01 -3.33242E-02
    9088.526     94.893   5.160  9.47331E-01  9.84650E-01 -3.73196E-02
    9090.105     96.472   5.200  9.44136E-01  9.85113E-01 -4.09777E-02
    9091.696     98.063   5.240  9.41449E-01  9.85596E-01 -4.41475E-02
    9093.300     99.667   5.280  9.39478E-01  9.86054E-01 -4.65762E-02
    9094.915    101.282   5.320  9.38493E-01  9.86508E-01 -4.80149E-02
    9096.543    102.910   5.360  9.38633E-01  9.86955E-01 -4.83224E-02
    9098.182    104.549   5.400  9.39843E-01  9.87374E-01 -4.75304E-02
    9099.834    106.201   5.440  9.41966E-01  9.87783E-01 -4.58172E-02
    9101.499    107.866   5.480  9.44790E-01  9.88183E-01 -4.33931E-02
    9103.175    109.542   5.520  9.48121E-01  9.88529E-01 -4.04080E-02
    9104.864    111.231   5.560  9.51971E-01  9.88883E-01 -3.69125E-02
    9106.564    112.931   5.600  9.56287E-01  9.89181E-01 -3.28935E-02
    9108.277    114.644   5.640  9.61084E-01  9.89461E-01 -2.83767E-02
    9110.002    116.370   5.680  9.66199E-01  9.89682E-01 -2.34836E-02
    9111.740    118.107   5.720  9.71466E-01  9.89887E-01 -1.84210E-02
    9113.489    119.856   5.760  9.76670E-01  9.90054E-01 -1.33840E-02
    9115.251    121.618   5.800  9.81662E-01  9.90181E-01 -8.51818E-03
    9117.025    123.392   5.840  9.86345E-01  9.90265E-01 -3.92055E-03
    9118.811    125.178   5.880  9.90587E-01  9.90287E-01  3.00019E-04
    9120.609    126.977   5.920  9.94271E-01  9.90290E-01  3.98062E-03
    9122.420    128.787   5.960  9.97140E-01  9.90248E-01  6.89119E-03
    9124.243    130.610   6.000  9.98899E-01  9.90111E-01  8.78764E-03
