# # comment:                                                     FEFF 9.9.1  
# # Source:
# # Structure
# # Reduced
# # space
# # abc:
# # angles:
# # sites:
# # POT  SCF 100  7.0000   0, screened core-hole, AFOLP (folp(0)= 1.150)
# # Abs   Z=29 Rmt= 1.337 Rnm= 1.391 K  shell
# # Pot 1 Z= 3 Rmt= 1.160 Rnm= 1.252
# # Pot 2 Z=29 Rmt= 1.301 Rnm= 1.366
# # Pot 3 Z= 5 Rmt= 0.781 Rnm= 0.996
# # Pot 4 Z= 8 Rmt= 0.923 Rnm= 1.056
# # Gam_ch=1.729E+00 H-L exch Vi= 0.000E+00 Vr= 0.000E+00
# # Mu=-6.716E+00eV kf=2.277E+00 Vint=-1.803E+01eV Rs_int= 1.593
# FMS rfms= 9.0000
# # PATH  Rmax=-1.000,  Keep_limit= 0.00, Heap_limit 0.00  Pwcrit= 2.50%
#  S02=0.950  Temp=   0.00  Debye_temp=   0.00  Global_sig2= 0.00000
#  Energy zero shift, vr, vi    0.00000E+00   0.00000E+00
#  Curved wave amplitude ratio filter   4.000%
#     file         sig2 tot  cw amp ratio   deg  nlegs   reff  inp sig2
#     0/   0 paths used
#  xsedge+ 50, used to normalize mu           2.4685E-04
#  -----------------------------------------------------------------------
#  omega    e    k    mu    mu0     chi     @#
    8983.834    -10.526  -1.000  5.15333E-02  5.58389E-02 -4.30564E-03
    8984.133    -10.227  -0.960  5.48052E-02  5.99565E-02 -5.15128E-03
    8984.419     -9.940  -0.920  5.83731E-02  6.45389E-02 -6.16576E-03
    8984.693     -9.666  -0.880  6.22715E-02  6.96552E-02 -7.38379E-03
    8984.955     -9.404  -0.840  6.65390E-02  7.53863E-02 -8.84732E-03
    8985.205     -9.154  -0.800  7.12190E-02  8.18257E-02 -1.06067E-02
    8985.443     -8.916  -0.760  7.63590E-02  8.90808E-02 -1.27218E-02
    8985.669     -8.691  -0.720  8.20107E-02  9.72735E-02 -1.52628E-02
    8985.882     -8.477  -0.680  8.82281E-02  1.06538E-01 -1.83097E-02
    8986.083     -8.276  -0.640  9.50656E-02  1.17016E-01 -2.19502E-02
    8986.272     -8.087  -0.600  1.02573E-01  1.28847E-01 -2.62739E-02
    8986.449     -7.910  -0.560  1.10788E-01  1.42150E-01 -3.13618E-02
    8986.614     -7.746  -0.520  1.19729E-01  1.56998E-01 -3.72687E-02
    8986.766     -7.593  -0.480  1.29376E-01  1.73375E-01 -4.39983E-02
    8986.906     -7.453  -0.440  1.39662E-01  1.91137E-01 -5.14750E-02
    8987.034     -7.325  -0.400  1.50453E-01  2.09973E-01 -5.95205E-02
    8987.150     -7.209  -0.360  1.61543E-01  2.29392E-01 -6.78496E-02
    8987.254     -7.106  -0.320  1.72660E-01  2.48758E-01 -7.60980E-02
    8987.345     -7.014  -0.280  1.83482E-01  2.67362E-01 -8.38798E-02
    8987.424     -6.935  -0.240  1.93670E-01  2.84527E-01 -9.08573E-02
    8987.491     -6.868  -0.200  2.02893E-01  2.99687E-01 -9.67941E-02
    8987.546     -6.813  -0.160  2.10858E-01  3.12431E-01 -1.01573E-01
    8987.589     -6.770  -0.120  2.17321E-01  3.22498E-01 -1.05177E-01
    8987.619     -6.740  -0.080  2.22095E-01  3.29746E-01 -1.07651E-01
    8987.644     -6.716   0.000  2.26064E-01  3.35567E-01 -1.09503E-01
    8987.699     -6.661   0.120  2.34968E-01  3.48681E-01 -1.13714E-01
    8987.741     -6.618   0.160  2.42042E-01  3.58865E-01 -1.16823E-01
    8987.796     -6.563   0.200  2.51342E-01  3.71848E-01 -1.20505E-01
    8987.863     -6.496   0.240  2.63043E-01  3.87439E-01 -1.24396E-01
    8987.943     -6.417   0.280  2.77273E-01  4.05284E-01 -1.28011E-01
    8988.034     -6.325   0.320  2.94173E-01  4.24920E-01 -1.30748E-01
    8988.138     -6.222   0.360  3.13785E-01  4.45752E-01 -1.31967E-01
    8988.253     -6.106   0.400  3.35933E-01  4.67107E-01 -1.31174E-01
    8988.381     -5.978   0.440  3.60331E-01  4.88452E-01 -1.28121E-01
    8988.522     -5.838   0.480  3.86325E-01  5.09301E-01 -1.22976E-01
    8988.674     -5.685   0.520  4.13104E-01  5.29372E-01 -1.16268E-01
    8988.839     -5.521   0.560  4.39763E-01  5.48537E-01 -1.08774E-01
    8989.015     -5.344   0.600  4.65371E-01  5.66766E-01 -1.01395E-01
    8989.204     -5.155   0.640  4.89094E-01  5.84127E-01 -9.50326E-02
    8989.406     -4.954   0.680  5.10344E-01  6.00707E-01 -9.03626E-02
    8989.619     -4.740   0.720  5.29384E-01  6.16630E-01 -8.72455E-02
    8989.844     -4.515   0.760  5.47480E-01  6.31999E-01 -8.45194E-02
    8990.082     -4.277   0.800  5.66237E-01  6.46929E-01 -8.06916E-02
    8990.332     -4.027   0.840  5.86648E-01  6.61478E-01 -7.48302E-02
    8990.594     -3.765   0.880  6.08829E-01  6.75753E-01 -6.69235E-02
    8990.869     -3.491   0.920  6.31803E-01  6.89781E-01 -5.79780E-02
    8991.155     -3.204   0.960  6.54055E-01  7.03622E-01 -4.95675E-02
    8991.454     -2.906   1.000  6.74538E-01  7.17302E-01 -4.27632E-02
    8991.765     -2.595   1.040  6.93114E-01  7.30834E-01 -3.77200E-02
    8992.088     -2.272   1.080  7.10360E-01  7.44225E-01 -3.38650E-02
    8992.423     -1.936   1.120  7.28159E-01  7.57498E-01 -2.93397E-02
    8992.771     -1.589   1.160  7.49959E-01  7.70624E-01 -2.06656E-02
    8993.130     -1.229   1.200  7.80346E-01  7.83593E-01 -3.24626E-03
    8993.502     -0.857   1.240  8.23252E-01  7.96430E-01  2.68227E-02
    8993.886     -0.473   1.280  8.76878E-01  8.09075E-01  6.78040E-02
    8994.282     -0.077   1.320  9.37435E-01  8.21548E-01  1.15887E-01
    8994.691      0.331   1.360  1.00837E+00  8.33784E-01  1.74586E-01
    8995.111      0.752   1.400  1.09327E+00  8.45800E-01  2.47470E-01
    8995.544      1.185   1.440  1.18502E+00  8.57568E-01  3.27449E-01
    8995.989      1.630   1.480  1.27092E+00  8.69042E-01  4.01879E-01
    8996.446      2.087   1.520  1.33470E+00  8.80216E-01  4.54484E-01
    8996.916      2.556   1.560  1.35903E+00  8.91079E-01  4.67954E-01
    8997.397      3.038   1.600  1.34497E+00  9.01586E-01  4.43381E-01
    8997.891      3.532   1.640  1.31043E+00  9.11728E-01  3.98698E-01
    8998.397      4.038   1.680  1.26603E+00  9.21500E-01  3.44528E-01
    8998.915      4.556   1.720  1.21559E+00  9.30874E-01  2.84714E-01
    8999.446      5.086   1.760  1.16257E+00  9.39824E-01  2.22745E-01
    8999.988      5.629   1.800  1.11405E+00  9.48367E-01  1.65687E-01
    9000.543      6.183   1.840  1.08173E+00  9.56458E-01  1.25271E-01
    9001.110      6.750   1.880  1.06566E+00  9.64114E-01  1.01550E-01
    9001.689      7.330   1.920  1.05715E+00  9.71332E-01  8.58189E-02
    9002.280      7.921   1.960  1.05658E+00  9.78091E-01  7.84889E-02
    9002.884      8.524   2.000  1.06112E+00  9.84372E-01  7.67462E-02
    9003.499      9.140   2.040  1.06696E+00  9.90215E-01  7.67417E-02
    9004.127      9.768   2.080  1.07868E+00  9.95622E-01  8.30613E-02
    9004.767     10.408   2.120  1.10410E+00  1.00056E+00  1.03541E-01
    9005.420     11.060   2.160  1.13922E+00  1.00506E+00  1.34154E-01
    9006.084     11.725   2.200  1.16619E+00  1.00912E+00  1.57069E-01
    9006.761     12.401   2.240  1.17300E+00  1.01276E+00  1.60240E-01
    9007.450     13.090   2.280  1.15911E+00  1.01601E+00  1.43094E-01
    9008.151     13.791   2.320  1.12706E+00  1.01883E+00  1.08231E-01
    9008.864     14.505   2.360  1.08467E+00  1.02127E+00  6.33927E-02
    9009.589     15.230   2.400  1.04264E+00  1.02337E+00  1.92708E-02
    9010.327     15.968   2.440  1.00889E+00  1.02510E+00 -1.62090E-02
    9011.077     16.717   2.480  9.83641E-01  1.02647E+00 -4.28297E-02
    9011.839     17.479   2.520  9.58777E-01  1.02754E+00 -6.87644E-02
    9012.613     18.254   2.560  9.25018E-01  1.02832E+00 -1.03298E-01
    9013.399     19.040   2.600  8.81401E-01  1.02878E+00 -1.47383E-01
    9014.198     19.838   2.640  8.37237E-01  1.02902E+00 -1.91779E-01
    9015.009     20.649   2.680  8.10023E-01  1.02898E+00 -2.18958E-01
    9015.832     21.472   2.720  8.05115E-01  1.02873E+00 -2.23615E-01
    9016.667     22.307   2.760  8.11343E-01  1.02827E+00 -2.16926E-01
    9017.514     23.155   2.800  8.22466E-01  1.02761E+00 -2.05142E-01
    9018.374     24.014   2.840  8.34953E-01  1.02678E+00 -1.91825E-01
    9019.245     24.886   2.880  8.47171E-01  1.02579E+00 -1.78617E-01
    9020.129     25.770   2.920  8.58099E-01  1.02466E+00 -1.66564E-01
    9021.025     26.666   2.960  8.68048E-01  1.02342E+00 -1.55369E-01
    9021.934     27.574   3.000  8.78194E-01  1.02206E+00 -1.43862E-01
    9022.854     28.495   3.040  8.89766E-01  1.02063E+00 -1.30864E-01
    9023.787     29.427   3.080  9.03614E-01  1.01910E+00 -1.15488E-01
    9024.732     30.372   3.120  9.20274E-01  1.01752E+00 -9.72489E-02
    9025.689     31.329   3.160  9.39537E-01  1.01590E+00 -7.63609E-02
    9026.658     32.299   3.200  9.60438E-01  1.01426E+00 -5.38193E-02
    9027.640     33.280   3.240  9.81790E-01  1.01256E+00 -3.07744E-02
    9028.633     34.274   3.280  1.00253E+00  1.01088E+00 -8.35457E-03
    9029.639     35.280   3.320  1.02172E+00  1.00921E+00  1.25178E-02
    9030.657     36.298   3.360  1.03888E+00  1.00753E+00  3.13495E-02
    9031.687     37.328   3.400  1.05375E+00  1.00589E+00  4.78636E-02
    9032.730     38.370   3.440  1.06621E+00  1.00425E+00  6.19580E-02
    9033.784     39.425   3.480  1.07649E+00  1.00266E+00  7.38318E-02
    9034.851     40.492   3.520  1.08485E+00  1.00113E+00  8.37238E-02
    9035.930     41.571   3.560  1.09145E+00  9.99645E-01  9.18053E-02
    9037.021     42.662   3.600  1.09664E+00  9.98230E-01  9.84131E-02
    9038.125     43.765   3.640  1.10070E+00  9.96866E-01  1.03835E-01
    9039.240     44.881   3.680  1.10368E+00  9.95576E-01  1.08103E-01
    9040.368     46.008   3.720  1.10521E+00  9.94342E-01  1.10866E-01
    9041.508     47.148   3.760  1.10483E+00  9.93208E-01  1.11623E-01
    9042.660     48.301   3.800  1.10189E+00  9.92155E-01  1.09740E-01
    9043.824     49.465   3.840  1.09601E+00  9.91183E-01  1.04830E-01
    9045.001     50.641   3.880  1.08733E+00  9.90294E-01  9.70387E-02
    9046.190     51.830   3.920  1.07641E+00  9.89486E-01  8.69238E-02
    9047.390     53.031   3.960  1.06398E+00  9.88762E-01  7.52157E-02
    9048.604     54.244   4.000  1.05081E+00  9.88145E-01  6.26651E-02
    9049.829     55.469   4.040  1.03756E+00  9.87614E-01  4.99437E-02
    9051.066     56.707   4.080  1.02463E+00  9.87166E-01  3.74644E-02
    9052.316     57.957   4.120  1.01227E+00  9.86800E-01  2.54693E-02
    9053.578     59.218   4.160  1.00066E+00  9.86539E-01  1.41221E-02
    9054.852     60.493   4.200  9.89935E-01  9.86341E-01  3.59412E-03
    9056.138     61.779   4.240  9.80371E-01  9.86245E-01 -5.87362E-03
    9057.437     63.077   4.280  9.72233E-01  9.86230E-01 -1.39966E-02
    9058.747     64.388   4.320  9.65682E-01  9.86272E-01 -2.05896E-02
    9060.070     65.711   4.360  9.60758E-01  9.86413E-01 -2.56551E-02
    9061.405     67.046   4.400  9.57219E-01  9.86612E-01 -2.93936E-02
    9062.752     68.393   4.440  9.54738E-01  9.86907E-01 -3.21689E-02
    9064.112     69.752   4.480  9.52820E-01  9.87232E-01 -3.44119E-02
    9065.483     71.124   4.520  9.51197E-01  9.87649E-01 -3.64515E-02
    9066.867     72.508   4.560  9.49607E-01  9.88093E-01 -3.84863E-02
    9068.263     73.904   4.600  9.48016E-01  9.88625E-01 -4.06092E-02
    9069.671     75.312   4.640  9.46389E-01  9.89179E-01 -4.27897E-02
    9071.092     76.732   4.680  9.44933E-01  9.89772E-01 -4.48393E-02
    9072.524     78.165   4.720  9.43906E-01  9.90403E-01 -4.64973E-02
    9073.969     79.610   4.760  9.43699E-01  9.91071E-01 -4.73717E-02
    9075.426     81.066   4.800  9.44733E-01  9.91773E-01 -4.70399E-02
    9076.895     82.536   4.840  9.47309E-01  9.92482E-01 -4.51736E-02
    9078.376     84.017   4.880  9.51560E-01  9.93199E-01 -4.16388E-02
    9079.870     85.510   4.920  9.57367E-01  9.93941E-01 -3.65746E-02
    9081.376     87.016   4.960  9.64269E-01  9.94686E-01 -3.04179E-02
    9082.893     88.534   5.000  9.71637E-01  9.95431E-01 -2.37938E-02
    9084.424     90.064   5.040  9.78676E-01  9.96171E-01 -1.74945E-02
    9085.966     91.606   5.080  9.84514E-01  9.96881E-01 -1.23675E-02
    9087.520     93.161   5.120  9.88472E-01  9.97583E-01 -9.11031E-03
    9089.087     94.728   5.160  9.90239E-01  9.98253E-01 -8.01317E-03
    9090.666     96.306   5.200  9.90078E-01  9.98910E-01 -8.83225E-03
    9092.257     97.897   5.240  9.88597E-01  9.99531E-01 -1.09342E-02
    9093.860     99.501   5.280  9.86532E-01  1.00011E+00 -1.35797E-02
    9095.476    101.116   5.320  9.84521E-01  1.00065E+00 -1.61299E-02
    9097.103    102.744   5.360  9.83115E-01  1.00115E+00 -1.80338E-02
    9098.743    104.384   5.400  9.82861E-01  1.00160E+00 -1.87411E-02
    9100.395    106.036   5.440  9.84282E-01  1.00199E+00 -1.77034E-02
    9102.059    107.700   5.480  9.87828E-01  1.00232E+00 -1.44946E-02
    9103.736    109.376   5.520  9.93656E-01  1.00261E+00 -8.95615E-03
    9105.424    111.065   5.560  1.00152E+00  1.00283E+00 -1.30703E-03
    9107.125    112.766   5.600  1.01093E+00  1.00300E+00  7.93019E-03
    9108.838    114.478   5.640  1.02122E+00  1.00309E+00  1.81242E-02
    9110.563    116.204   5.680  1.03180E+00  1.00311E+00  2.86878E-02
    9112.300    117.941   5.720  1.04216E+00  1.00309E+00  3.90773E-02
    9114.050    119.691   5.760  1.05169E+00  1.00301E+00  4.86793E-02
    9115.812    121.452   5.800  1.05959E+00  1.00286E+00  5.67256E-02
    9117.586    123.226   5.840  1.06504E+00  1.00264E+00  6.24012E-02
    9119.372    125.012   5.880  1.06740E+00  1.00234E+00  6.50591E-02
    9121.170    126.811   5.920  1.06652E+00  1.00203E+00  6.44905E-02
    9122.981    128.621   5.960  1.06248E+00  1.00161E+00  6.08631E-02
    9124.803    130.444   6.000  1.05539E+00  1.00111E+00  5.42749E-02
