# # comment:                                                     FEFF 9.9.1  
# # Source:
# # Structure
# # Reduced
# # space
# # abc:
# # angles:
# # sites:
# # POT  SCF 100  7.0000   0, screened core-hole, AFOLP (folp(0)= 1.150)
# # Abs   Z=29 Rmt= 1.224 Rnm= 1.291 K  shell
# # Pot 1 Z=12 Rmt= 1.285 Rnm= 1.441
# # Pot 2 Z=29 Rmt= 1.224 Rnm= 1.291
# # Pot 3 Z= 8 Rmt= 1.036 Rnm= 1.125
# # Gam_ch=1.729E+00 H-L exch Vi= 0.000E+00 Vr= 0.000E+00
# # Mu=-9.176E+00eV kf=2.088E+00 Vint=-1.614E+01eV Rs_int= 1.737
# FMS rfms= 9.0000
# # PATH  Rmax=-1.000,  Keep_limit= 0.00, Heap_limit 0.00  Pwcrit= 2.50%
#  S02=0.950  Temp=   0.00  Debye_temp=   0.00  Global_sig2= 0.00000
#  Energy zero shift, vr, vi    0.00000E+00   0.00000E+00
#  Curved wave amplitude ratio filter   4.000%
#     file         sig2 tot  cw amp ratio   deg  nlegs   reff  inp sig2
#     0/   0 paths used
#  xsedge+ 50, used to normalize mu           2.4505E-04
#  -----------------------------------------------------------------------
#  omega    e    k    mu    mu0     chi     @#
    8984.022    -12.986  -1.000  2.74007E-02  5.10739E-02 -2.36733E-02
    8984.320    -12.688  -0.960  2.83851E-02  5.46540E-02 -2.62689E-02
    8984.607    -12.401  -0.920  2.94118E-02  5.86187E-02 -2.92068E-02
    8984.881    -12.127  -0.880  3.04845E-02  6.30232E-02 -3.25387E-02
    8985.143    -11.865  -0.840  3.16071E-02  6.79316E-02 -3.63245E-02
    8985.393    -11.615  -0.800  3.27845E-02  7.34180E-02 -4.06334E-02
    8985.631    -11.377  -0.760  3.40227E-02  7.95672E-02 -4.55444E-02
    8985.856    -11.152  -0.720  3.53283E-02  8.64747E-02 -5.11464E-02
    8986.070    -10.938  -0.680  3.67087E-02  9.42456E-02 -5.75369E-02
    8986.271    -10.737  -0.640  3.81718E-02  1.02990E-01 -6.48184E-02
    8986.460    -10.548  -0.600  3.97251E-02  1.12817E-01 -7.30914E-02
    8986.637    -10.371  -0.560  4.13743E-02  1.23816E-01 -8.24419E-02
    8986.801    -10.207  -0.520  4.31207E-02  1.36043E-01 -9.29219E-02
    8986.954    -10.054  -0.480  4.49585E-02  1.49481E-01 -1.04523E-01
    8987.094     -9.914  -0.440  4.68705E-02  1.64015E-01 -1.17144E-01
    8987.222     -9.786  -0.400  4.88259E-02  1.79394E-01 -1.30568E-01
    8987.338     -9.670  -0.360  5.07795E-02  1.95229E-01 -1.44450E-01
    8987.441     -9.567  -0.320  5.26760E-02  2.11015E-01 -1.58339E-01
    8987.533     -9.475  -0.280  5.44571E-02  2.26186E-01 -1.71729E-01
    8987.612     -9.396  -0.240  5.60713E-02  2.40200E-01 -1.84128E-01
    8987.679     -9.329  -0.200  5.74791E-02  2.52597E-01 -1.95118E-01
    8987.734     -9.274  -0.160  5.86557E-02  2.63038E-01 -2.04383E-01
    8987.777     -9.231  -0.120  5.95877E-02  2.71303E-01 -2.11715E-01
    8987.807     -9.201  -0.080  6.02686E-02  2.77265E-01 -2.16996E-01
    8987.832     -9.176   0.000  6.08456E-02  2.82060E-01 -2.21215E-01
    8987.886     -9.122   0.120  6.21335E-02  2.92868E-01 -2.30735E-01
    8987.929     -9.079   0.160  6.30887E-02  3.01298E-01 -2.38209E-01
    8987.984     -9.024   0.200  6.42494E-02  3.12094E-01 -2.47845E-01
    8988.051     -8.957   0.240  6.56054E-02  3.25115E-01 -2.59509E-01
    8988.130     -8.878   0.280  6.71021E-02  3.40132E-01 -2.73030E-01
    8988.222     -8.786   0.320  6.87012E-02  3.56808E-01 -2.88107E-01
    8988.325     -8.683   0.360  7.03664E-02  3.74717E-01 -3.04350E-01
    8988.441     -8.567   0.400  7.20705E-02  3.93381E-01 -3.21311E-01
    8988.569     -8.439   0.440  7.38664E-02  4.12404E-01 -3.38538E-01
    8988.709     -8.299   0.480  7.57295E-02  4.31420E-01 -3.55691E-01
    8988.862     -8.146   0.520  7.77609E-02  4.50244E-01 -3.72483E-01
    8989.026     -7.982   0.560  8.00173E-02  4.68738E-01 -3.88721E-01
    8989.203     -7.805   0.600  8.25594E-02  4.86891E-01 -4.04332E-01
    8989.392     -7.616   0.640  8.54811E-02  5.04728E-01 -4.19247E-01
    8989.593     -7.415   0.680  8.89315E-02  5.22320E-01 -4.33388E-01
    8989.807     -7.201   0.720  9.29932E-02  5.39708E-01 -4.46714E-01
    8990.032     -6.976   0.760  9.79019E-02  5.56971E-01 -4.59069E-01
    8990.270     -6.738   0.800  1.03900E-01  5.74161E-01 -4.70261E-01
    8990.520     -6.488   0.840  1.11322E-01  5.91296E-01 -4.79974E-01
    8990.782     -6.226   0.880  1.20585E-01  6.08401E-01 -4.87817E-01
    8991.056     -5.952   0.920  1.31997E-01  6.25493E-01 -4.93496E-01
    8991.343     -5.665   0.960  1.45603E-01  6.42554E-01 -4.96951E-01
    8991.642     -5.366   1.000  1.61234E-01  6.59600E-01 -4.98366E-01
    8991.952     -5.056   1.040  1.78938E-01  6.76599E-01 -4.97660E-01
    8992.276     -4.732   1.080  1.98453E-01  6.93509E-01 -4.95056E-01
    8992.611     -4.397   1.120  2.17020E-01  7.10287E-01 -4.93266E-01
    8992.958     -4.050   1.160  2.30465E-01  7.26924E-01 -4.96459E-01
    8993.318     -3.690   1.200  2.39164E-01  7.43368E-01 -5.04203E-01
    8993.690     -3.318   1.240  2.51049E-01  7.59584E-01 -5.08535E-01
    8994.074     -2.934   1.280  2.74263E-01  7.75496E-01 -5.01233E-01
    8994.470     -2.538   1.320  3.07990E-01  7.91087E-01 -4.83097E-01
    8994.879     -2.130   1.360  3.42504E-01  8.06320E-01 -4.63816E-01
    8995.299     -1.709   1.400  3.74568E-01  8.21140E-01 -4.46572E-01
    8995.732     -1.276   1.440  4.12884E-01  8.35508E-01 -4.22624E-01
    8996.177     -0.831   1.480  4.61149E-01  8.49392E-01 -3.88242E-01
    8996.634     -0.374   1.520  5.13750E-01  8.62776E-01 -3.49026E-01
    8997.104      0.096   1.560  5.68084E-01  8.75609E-01 -3.07525E-01
    8997.585      0.577   1.600  6.28346E-01  8.87880E-01 -2.59534E-01
    8998.079      1.071   1.640  6.93522E-01  8.99561E-01 -2.06039E-01
    8998.585      1.577   1.680  7.70277E-01  9.10646E-01 -1.40368E-01
    8999.103      2.095   1.720  8.79764E-01  9.21129E-01 -4.13654E-02
    8999.633      2.625   1.760  1.02141E+00  9.30989E-01  9.04166E-02
    9000.176      3.168   1.800  1.17568E+00  9.40224E-01  2.35451E-01
    9000.731      3.723   1.840  1.33690E+00  9.48838E-01  3.88066E-01
    9001.298      4.290   1.880  1.50989E+00  9.56853E-01  5.53035E-01
    9001.877      4.869   1.920  1.71206E+00  9.64252E-01  7.47807E-01
    9002.468      5.460   1.960  1.91484E+00  9.71043E-01  9.43793E-01
    9003.072      6.063   2.000  2.02239E+00  9.77273E-01  1.04512E+00
    9003.687      6.679   2.040  2.00706E+00  9.82932E-01  1.02413E+00
    9004.315      7.307   2.080  1.90869E+00  9.88050E-01  9.20645E-01
    9004.955      7.947   2.120  1.73853E+00  9.92656E-01  7.45871E-01
    9005.607      8.599   2.160  1.50776E+00  9.96743E-01  5.11016E-01
    9006.272      9.264   2.200  1.28562E+00  1.00034E+00  2.85281E-01
    9006.949      9.941   2.240  1.12611E+00  1.00351E+00  1.22607E-01
    9007.637     10.629   2.280  1.02109E+00  1.00623E+00  1.48595E-02
    9008.338     11.330   2.320  9.48523E-01  1.00856E+00 -6.00400E-02
    9009.052     12.044   2.360  8.99129E-01  1.01050E+00 -1.11372E-01
    9009.777     12.769   2.400  8.76594E-01  1.01210E+00 -1.35503E-01
    9010.515     13.507   2.440  8.84453E-01  1.01336E+00 -1.28911E-01
    9011.265     14.256   2.480  9.19331E-01  1.01431E+00 -9.49824E-02
    9012.027     15.018   2.520  9.76863E-01  1.01500E+00 -3.81362E-02
    9012.801     15.793   2.560  1.02963E+00  1.01543E+00  1.41926E-02
    9013.587     16.579   2.600  1.07039E+00  1.01563E+00  5.47613E-02
    9014.386     17.378   2.640  1.09966E+00  1.01561E+00  8.40411E-02
    9015.196     18.188   2.680  1.11754E+00  1.01540E+00  1.02138E-01
    9016.019     19.011   2.720  1.12050E+00  1.01504E+00  1.05453E-01
    9016.855     19.846   2.760  1.10646E+00  1.01453E+00  9.19298E-02
    9017.702     20.694   2.800  1.07755E+00  1.01389E+00  6.36611E-02
    9018.561     21.553   2.840  1.03929E+00  1.01313E+00  2.61587E-02
    9019.433     22.425   2.880  9.96813E-01  1.01228E+00 -1.54678E-02
    9020.317     23.309   2.920  9.53919E-01  1.01135E+00 -5.74315E-02
    9021.213     24.205   2.960  9.13732E-01  1.01037E+00 -9.66353E-02
    9022.121     25.113   3.000  8.78268E-01  1.00932E+00 -1.31050E-01
    9023.042     26.034   3.040  8.48361E-01  1.00825E+00 -1.59888E-01
    9023.975     26.967   3.080  8.24352E-01  1.00715E+00 -1.82794E-01
    9024.919     27.911   3.120  8.06036E-01  1.00604E+00 -2.00001E-01
    9025.877     28.869   3.160  7.93128E-01  1.00493E+00 -2.11797E-01
    9026.846     29.838   3.200  7.85475E-01  1.00382E+00 -2.18340E-01
    9027.827     30.819   3.240  7.82695E-01  1.00271E+00 -2.20019E-01
    9028.821     31.813   3.280  7.83929E-01  1.00166E+00 -2.17735E-01
    9029.827     32.819   3.320  7.88273E-01  1.00063E+00 -2.12353E-01
    9030.845     33.837   3.360  7.95183E-01  9.99606E-01 -2.04423E-01
    9031.875     34.867   3.400  8.04072E-01  9.98649E-01 -1.94576E-01
    9032.917     35.909   3.440  8.14687E-01  9.97757E-01 -1.83070E-01
    9033.972     36.964   3.480  8.27116E-01  9.96889E-01 -1.69773E-01
    9035.039     38.031   3.520  8.41680E-01  9.96091E-01 -1.54411E-01
    9036.118     39.110   3.560  8.58622E-01  9.95364E-01 -1.36742E-01
    9037.209     40.201   3.600  8.78417E-01  9.94687E-01 -1.16270E-01
    9038.312     41.304   3.640  9.01496E-01  9.94082E-01 -9.25863E-02
    9039.428     42.420   3.680  9.27950E-01  9.93530E-01 -6.55806E-02
    9040.556     43.548   3.720  9.57513E-01  9.93053E-01 -3.55396E-02
    9041.696     44.688   3.760  9.89501E-01  9.92650E-01 -3.14885E-03
    9042.848     45.840   3.800  1.02254E+00  9.92322E-01  3.02132E-02
    9044.012     47.004   3.840  1.05466E+00  9.92049E-01  6.26105E-02
    9045.189     48.181   3.880  1.08393E+00  9.91850E-01  9.20759E-02
    9046.377     49.369   3.920  1.10877E+00  9.91725E-01  1.17043E-01
    9047.578     50.570   3.960  1.12838E+00  9.91653E-01  1.36723E-01
    9048.791     51.783   4.000  1.14299E+00  9.91653E-01  1.51336E-01
    9050.017     53.009   4.040  1.15344E+00  9.91728E-01  1.61711E-01
    9051.254     54.246   4.080  1.16046E+00  9.91853E-01  1.68603E-01
    9052.504     55.496   4.120  1.16407E+00  9.92048E-01  1.72026E-01
    9053.766     56.758   4.160  1.16341E+00  9.92291E-01  1.71120E-01
    9055.040     58.032   4.200  1.15705E+00  9.92579E-01  1.64466E-01
    9056.326     59.318   4.240  1.14404E+00  9.92934E-01  1.51108E-01
    9057.624     60.616   4.280  1.12486E+00  9.93334E-01  1.31523E-01
    9058.935     61.927   4.320  1.10138E+00  9.93775E-01  1.07609E-01
    9060.258     63.250   4.360  1.07638E+00  9.94256E-01  8.21240E-02
    9061.593     64.585   4.400  1.05280E+00  9.94775E-01  5.80218E-02
    9062.940     65.932   4.440  1.03311E+00  9.95331E-01  3.77742E-02
    9064.299     67.291   4.480  1.01864E+00  9.95900E-01  2.27388E-02
    9065.671     68.663   4.520  1.00944E+00  9.96503E-01  1.29323E-02
    9067.055     70.047   4.560  1.00424E+00  9.97138E-01  7.10078E-03
    9068.451     71.443   4.600  1.00111E+00  9.97804E-01  3.30586E-03
    9069.859     72.851   4.640  9.98241E-01  9.98453E-01 -2.11768E-04
    9071.279     74.271   4.680  9.94736E-01  9.99127E-01 -4.39108E-03
    9072.712     75.704   4.720  9.90556E-01  9.99803E-01 -9.24744E-03
    9074.157     77.149   4.760  9.86263E-01  1.00048E+00 -1.42170E-02
    9075.614     78.606   4.800  9.82517E-01  1.00116E+00 -1.86381E-02
    9077.083     80.075   4.840  9.79748E-01  1.00183E+00 -2.20795E-02
    9078.564     81.556   4.880  9.78137E-01  1.00249E+00 -2.43578E-02
    9080.058     83.050   4.920  9.77546E-01  1.00313E+00 -2.55856E-02
    9081.563     84.555   4.960  9.77675E-01  1.00376E+00 -2.60825E-02
    9083.081     86.073   5.000  9.78210E-01  1.00435E+00 -2.61440E-02
    9084.611     87.603   5.040  9.79024E-01  1.00494E+00 -2.59139E-02
    9086.154     89.146   5.080  9.79990E-01  1.00549E+00 -2.54953E-02
    9087.708     90.700   5.120  9.80842E-01  1.00600E+00 -2.51541E-02
    9089.275     92.267   5.160  9.81346E-01  1.00649E+00 -2.51457E-02
    9090.854     93.846   5.200  9.81554E-01  1.00693E+00 -2.53724E-02
    9092.445     95.437   5.240  9.81877E-01  1.00734E+00 -2.54650E-02
    9094.048     97.040   5.280  9.82511E-01  1.00772E+00 -2.52059E-02
    9095.663     98.655   5.320  9.83069E-01  1.00803E+00 -2.49588E-02
    9097.291    100.283   5.360  9.82904E-01  1.00832E+00 -2.54133E-02
    9098.931    101.923   5.400  9.81324E-01  1.00854E+00 -2.72189E-02
    9100.583    103.575   5.440  9.78197E-01  1.00875E+00 -3.05489E-02
    9102.247    105.239   5.480  9.73829E-01  1.00888E+00 -3.50537E-02
    9103.923    106.915   5.520  9.68890E-01  1.00897E+00 -4.00825E-02
    9105.612    108.604   5.560  9.63883E-01  1.00900E+00 -4.51127E-02
    9107.313    110.305   5.600  9.59253E-01  1.00900E+00 -4.97424E-02
    9109.026    112.018   5.640  9.55384E-01  1.00893E+00 -5.35458E-02
    9110.751    113.743   5.680  9.52543E-01  1.00882E+00 -5.62767E-02
    9112.488    115.480   5.720  9.50439E-01  1.00867E+00 -5.82267E-02
    9114.238    117.230   5.760  9.48347E-01  1.00847E+00 -6.01213E-02
    9115.999    118.991   5.800  9.45819E-01  1.00820E+00 -6.23848E-02
    9117.773    120.765   5.840  9.43567E-01  1.00790E+00 -6.43316E-02
    9119.559    122.551   5.880  9.43366E-01  1.00758E+00 -6.42135E-02
    9121.358    124.350   5.920  9.47190E-01  1.00720E+00 -6.00096E-02
    9123.168    126.160   5.960  9.56447E-01  1.00678E+00 -5.03318E-02
    9124.991    127.983   6.000  9.71703E-01  1.00629E+00 -3.45859E-02
