# # comment:                                                     FEFF 9.9.1  
# # Source:
# # Structure
# # Reduced
# # space
# # abc:
# # angles:
# # sites:
# # POT  SCF 100  7.0000   0, screened core-hole, AFOLP (folp(0)= 1.150)
# # Abs   Z=29 Rmt= 1.282 Rnm= 1.339 K  shell
# # Pot 1 Z=31 Rmt= 1.291 Rnm= 1.381
# # Pot 2 Z=29 Rmt= 1.275 Rnm= 1.334
# # Pot 3 Z= 8 Rmt= 1.008 Rnm= 1.093
# # Gam_ch=1.729E+00 H-L exch Vi= 0.000E+00 Vr= 0.000E+00
# # Mu=-7.088E+00eV kf=2.207E+00 Vint=-1.634E+01eV Rs_int= 1.643
# FMS rfms= 9.0000
# # PATH  Rmax=-1.000,  Keep_limit= 0.00, Heap_limit 0.00  Pwcrit= 2.50%
#  S02=0.950  Temp=   0.00  Debye_temp=   0.00  Global_sig2= 0.00000
#  Energy zero shift, vr, vi    0.00000E+00   0.00000E+00
#  Curved wave amplitude ratio filter   4.000%
#     file         sig2 tot  cw amp ratio   deg  nlegs   reff  inp sig2
#     0/   0 paths used
#  xsedge+ 50, used to normalize mu           2.4709E-04
#  -----------------------------------------------------------------------
#  omega    e    k    mu    mu0     chi     @#
    8983.681    -10.898  -1.000  3.19513E-02  4.88235E-02 -1.68722E-02
    8983.980    -10.600  -0.960  3.33064E-02  5.22822E-02 -1.89757E-02
    8984.267    -10.313  -0.920  3.47312E-02  5.61209E-02 -2.13897E-02
    8984.541    -10.039  -0.880  3.62302E-02  6.03954E-02 -2.41652E-02
    8984.803     -9.777  -0.840  3.78084E-02  6.51706E-02 -2.73622E-02
    8985.053     -9.527  -0.800  3.94711E-02  7.05216E-02 -3.10505E-02
    8985.291     -9.289  -0.760  4.12242E-02  7.65349E-02 -3.53107E-02
    8985.516     -9.064  -0.720  4.30737E-02  8.33079E-02 -4.02342E-02
    8985.730     -8.850  -0.680  4.50255E-02  9.09480E-02 -4.59225E-02
    8985.931     -8.649  -0.640  4.70852E-02  9.95684E-02 -5.24832E-02
    8986.120     -8.460  -0.600  4.92571E-02  1.09281E-01 -6.00235E-02
    8986.297     -8.283  -0.560  5.15427E-02  1.20179E-01 -6.86366E-02
    8986.461     -8.119  -0.520  5.39390E-02  1.32321E-01 -7.83818E-02
    8986.614     -7.966  -0.480  5.64356E-02  1.45692E-01 -8.92566E-02
    8986.754     -7.826  -0.440  5.90123E-02  1.60176E-01 -1.01164E-01
    8986.882     -7.698  -0.400  6.16359E-02  1.75521E-01 -1.13885E-01
    8986.998     -7.582  -0.360  6.42600E-02  1.91331E-01 -1.27071E-01
    8987.101     -7.479  -0.320  6.68265E-02  2.07094E-01 -1.40267E-01
    8987.193     -7.387  -0.280  6.92708E-02  2.22238E-01 -1.52967E-01
    8987.272     -7.308  -0.240  7.15283E-02  2.36215E-01 -1.64686E-01
    8987.339     -7.241  -0.200  7.35399E-02  2.48566E-01 -1.75026E-01
    8987.394     -7.186  -0.160  7.52557E-02  2.58956E-01 -1.83700E-01
    8987.437     -7.143  -0.120  7.66359E-02  2.67169E-01 -1.90533E-01
    8987.467     -7.113  -0.080  7.76502E-02  2.73085E-01 -1.95435E-01
    8987.491     -7.088   0.000  7.84938E-02  2.77839E-01 -1.99345E-01
    8987.546     -7.034   0.120  8.04141E-02  2.88547E-01 -2.08133E-01
    8987.589     -6.991   0.160  8.19152E-02  2.96879E-01 -2.14964E-01
    8987.644     -6.936   0.200  8.38415E-02  3.07529E-01 -2.23688E-01
    8987.711     -6.869   0.240  8.61922E-02  3.20313E-01 -2.34121E-01
    8987.790     -6.790   0.280  8.90231E-02  3.35016E-01 -2.45992E-01
    8987.882     -6.698   0.320  9.23294E-02  3.51244E-01 -2.58914E-01
    8987.985     -6.595   0.360  9.61100E-02  3.68514E-01 -2.72404E-01
    8988.101     -6.479   0.400  1.00415E-01  3.86354E-01 -2.85939E-01
    8988.229     -6.351   0.440  1.05329E-01  4.04315E-01 -2.98985E-01
    8988.369     -6.211   0.480  1.10874E-01  4.22010E-01 -3.11136E-01
    8988.522     -6.058   0.520  1.17262E-01  4.39259E-01 -3.21997E-01
    8988.686     -5.894   0.560  1.24644E-01  4.55901E-01 -3.31257E-01
    8988.863     -5.717   0.600  1.33337E-01  4.71969E-01 -3.38632E-01
    8989.052     -5.528   0.640  1.43629E-01  4.87474E-01 -3.43845E-01
    8989.253     -5.327   0.680  1.55730E-01  5.02502E-01 -3.46772E-01
    8989.467     -5.113   0.720  1.69716E-01  5.17147E-01 -3.47431E-01
    8989.692     -4.888   0.760  1.85219E-01  5.31465E-01 -3.46246E-01
    8989.930     -4.650   0.800  2.01567E-01  5.45563E-01 -3.43996E-01
    8990.180     -4.400   0.840  2.18021E-01  5.59496E-01 -3.41476E-01
    8990.442     -4.138   0.880  2.34265E-01  5.73311E-01 -3.39045E-01
    8990.716     -3.864   0.920  2.50434E-01  5.87056E-01 -3.36623E-01
    8991.003     -3.577   0.960  2.66472E-01  6.00735E-01 -3.34263E-01
    8991.301     -3.278   1.000  2.81700E-01  6.14360E-01 -3.32660E-01
    8991.612     -2.968   1.040  2.95633E-01  6.27995E-01 -3.32361E-01
    8991.935     -2.644   1.080  3.09524E-01  6.41577E-01 -3.32052E-01
    8992.271     -2.309   1.120  3.26515E-01  6.55138E-01 -3.28623E-01
    8992.618     -1.962   1.160  3.49580E-01  6.68646E-01 -3.19066E-01
    8992.978     -1.602   1.200  3.80524E-01  6.82124E-01 -3.01601E-01
    8993.350     -1.230   1.240  4.19220E-01  6.95512E-01 -2.76292E-01
    8993.734     -0.846   1.280  4.63452E-01  7.08807E-01 -2.45354E-01
    8994.130     -0.450   1.320  5.11222E-01  7.22004E-01 -2.10782E-01
    8994.538     -0.041   1.360  5.64315E-01  7.35057E-01 -1.70741E-01
    8994.959      0.379   1.400  6.25812E-01  7.47958E-01 -1.22146E-01
    8995.392      0.812   1.440  6.95151E-01  7.60661E-01 -6.55100E-02
    8995.837      1.257   1.480  7.68097E-01  7.73175E-01 -5.07852E-03
    8996.294      1.714   1.520  8.29814E-01  7.85451E-01  4.43628E-02
    8996.763      2.184   1.560  8.66481E-01  7.97482E-01  6.89991E-02
    8997.245      2.665   1.600  8.93671E-01  8.09216E-01  8.44545E-02
    8997.739      3.159   1.640  9.42830E-01  8.20687E-01  1.22144E-01
    8998.245      3.665   1.680  1.03924E+00  8.31825E-01  2.07412E-01
    8998.763      4.183   1.720  1.18207E+00  8.42624E-01  3.39447E-01
    8999.293      4.713   1.760  1.34616E+00  8.53098E-01  4.93065E-01
    8999.836      5.256   1.800  1.50182E+00  8.63199E-01  6.38619E-01
    9000.391      5.811   1.840  1.63545E+00  8.72921E-01  7.62524E-01
    9000.957      6.378   1.880  1.73194E+00  8.82261E-01  8.49675E-01
    9001.537      6.957   1.920  1.74312E+00  8.91216E-01  8.51904E-01
    9002.128      7.548   1.960  1.65241E+00  8.99763E-01  7.52649E-01
    9002.731      8.152   2.000  1.50191E+00  9.07899E-01  5.94015E-01
    9003.347      8.767   2.040  1.35510E+00  9.15646E-01  4.39451E-01
    9003.975      9.395   2.080  1.24335E+00  9.22982E-01  3.20366E-01
    9004.615     10.035   2.120  1.15708E+00  9.29908E-01  2.27167E-01
    9005.267     10.687   2.160  1.08021E+00  9.36447E-01  1.43765E-01
    9005.932     11.352   2.200  1.00692E+00  9.42561E-01  6.43599E-02
    9006.608     12.029   2.240  9.41411E-01  9.48312E-01 -6.90131E-03
    9007.297     12.717   2.280  8.87089E-01  9.53665E-01 -6.65755E-02
    9007.998     13.418   2.320  8.41784E-01  9.58623E-01 -1.16840E-01
    9008.712     14.132   2.360  8.04581E-01  9.63234E-01 -1.58653E-01
    9009.437     14.857   2.400  7.81141E-01  9.67481E-01 -1.86340E-01
    9010.175     15.595   2.440  7.84313E-01  9.71391E-01 -1.87078E-01
    9010.924     16.344   2.480  8.25715E-01  9.74971E-01 -1.49256E-01
    9011.686     17.106   2.520  9.00967E-01  9.78227E-01 -7.72593E-02
    9012.461     17.881   2.560  9.89825E-01  9.81163E-01  8.66200E-03
    9013.247     18.667   2.600  1.06127E+00  9.83809E-01  7.74643E-02
    9014.046     19.466   2.640  1.07474E+00  9.86193E-01  8.85498E-02
    9014.856     20.276   2.680  1.04310E+00  9.88301E-01  5.48019E-02
    9015.679     21.099   2.720  9.90907E-01  9.90159E-01  7.47706E-04
    9016.514     21.935   2.760  9.37770E-01  9.91775E-01 -5.40057E-02
    9017.362     22.782   2.800  8.94266E-01  9.93178E-01 -9.89115E-02
    9018.221     23.641   2.840  8.63101E-01  9.94352E-01 -1.31251E-01
    9019.093     24.513   2.880  8.42907E-01  9.95348E-01 -1.52441E-01
    9019.977     25.397   2.920  8.30358E-01  9.96172E-01 -1.65814E-01
    9020.873     26.293   2.960  8.22440E-01  9.96830E-01 -1.74390E-01
    9021.781     27.201   3.000  8.16655E-01  9.97308E-01 -1.80653E-01
    9022.702     28.122   3.040  8.11676E-01  9.97674E-01 -1.85998E-01
    9023.634     29.055   3.080  8.07813E-01  9.97894E-01 -1.90082E-01
    9024.579     29.999   3.120  8.06545E-01  9.98016E-01 -1.91471E-01
    9025.536     30.957   3.160  8.09214E-01  9.98023E-01 -1.88809E-01
    9026.506     31.926   3.200  8.16801E-01  9.97942E-01 -1.81142E-01
    9027.487     32.907   3.240  8.29542E-01  9.97778E-01 -1.68236E-01
    9028.481     33.901   3.280  8.46230E-01  9.97537E-01 -1.51307E-01
    9029.487     34.907   3.320  8.65421E-01  9.97242E-01 -1.31820E-01
    9030.505     35.925   3.360  8.85780E-01  9.96877E-01 -1.11098E-01
    9031.535     36.955   3.400  9.06359E-01  9.96471E-01 -9.01113E-02
    9032.577     37.997   3.440  9.26735E-01  9.96047E-01 -6.93116E-02
    9033.632     39.052   3.480  9.47076E-01  9.95586E-01 -4.85107E-02
    9034.699     40.119   3.520  9.67891E-01  9.95095E-01 -2.72042E-02
    9035.778     41.198   3.560  9.89707E-01  9.94618E-01 -4.91049E-03
    9036.869     42.289   3.600  1.01276E+00  9.94114E-01  1.86459E-02
    9037.972     43.392   3.640  1.03668E+00  9.93607E-01  4.30718E-02
    9039.088     44.508   3.680  1.06014E+00  9.93101E-01  6.70358E-02
    9040.216     45.636   3.720  1.08126E+00  9.92597E-01  8.86583E-02
    9041.355     46.776   3.760  1.09803E+00  9.92121E-01  1.05908E-01
    9042.508     47.928   3.800  1.10905E+00  9.91653E-01  1.17397E-01
    9043.672     49.092   3.840  1.11451E+00  9.91215E-01  1.23293E-01
    9044.848     50.269   3.880  1.11641E+00  9.90810E-01  1.25599E-01
    9046.037     51.457   3.920  1.11740E+00  9.90417E-01  1.26985E-01
    9047.238     52.658   3.960  1.11965E+00  9.90055E-01  1.29594E-01
    9048.451     53.871   4.000  1.12402E+00  9.89709E-01  1.34313E-01
    9049.676     55.097   4.040  1.12980E+00  9.89421E-01  1.40380E-01
    9050.914     56.334   4.080  1.13483E+00  9.89170E-01  1.45659E-01
    9052.164     57.584   4.120  1.13631E+00  9.88935E-01  1.47377E-01
    9053.425     58.846   4.160  1.13204E+00  9.88738E-01  1.43305E-01
    9054.700     60.120   4.200  1.12107E+00  9.88600E-01  1.32468E-01
    9055.986     61.406   4.240  1.10397E+00  9.88479E-01  1.15492E-01
    9057.284     62.704   4.280  1.08274E+00  9.88396E-01  9.43453E-02
    9058.595     64.015   4.320  1.05978E+00  9.88350E-01  7.14313E-02
    9059.918     65.338   4.360  1.03703E+00  9.88343E-01  4.86844E-02
    9061.253     66.673   4.400  1.01539E+00  9.88375E-01  2.70190E-02
    9062.600     68.020   4.440  9.94797E-01  9.88443E-01  6.35359E-03
    9063.959     69.379   4.480  9.74833E-01  9.88549E-01 -1.37160E-02
    9065.331     70.751   4.520  9.55570E-01  9.88669E-01 -3.30988E-02
    9066.715     72.135   4.560  9.37795E-01  9.88846E-01 -5.10506E-02
    9068.111     73.531   4.600  9.22465E-01  9.89035E-01 -6.65696E-02
    9069.519     74.939   4.640  9.10296E-01  9.89235E-01 -7.89392E-02
    9070.939     76.359   4.680  9.01515E-01  9.89489E-01 -8.79740E-02
    9072.372     77.792   4.720  8.95882E-01  9.89754E-01 -9.38723E-02
    9073.817     79.237   4.760  8.93026E-01  9.90027E-01 -9.70010E-02
    9075.273     80.694   4.800  8.92529E-01  9.90328E-01 -9.77990E-02
    9076.743     82.163   4.840  8.93922E-01  9.90638E-01 -9.67158E-02
    9078.224     83.644   4.880  8.96964E-01  9.90975E-01 -9.40111E-02
    9079.717     85.138   4.920  9.01759E-01  9.91316E-01 -8.95577E-02
    9081.223     86.643   4.960  9.08729E-01  9.91660E-01 -8.29309E-02
    9082.741     88.161   5.000  9.18342E-01  9.92007E-01 -7.36646E-02
    9084.271     89.691   5.040  9.30679E-01  9.92375E-01 -6.16963E-02
    9085.813     91.234   5.080  9.45311E-01  9.92721E-01 -4.74099E-02
    9087.368     92.788   5.120  9.61468E-01  9.93063E-01 -3.15949E-02
    9088.935     94.355   5.160  9.78153E-01  9.93402E-01 -1.52492E-02
    9090.513     95.934   5.200  9.94213E-01  9.93740E-01  4.73380E-04
    9092.104     97.525   5.240  1.00836E+00  9.94074E-01  1.42836E-02
    9093.708     99.128   5.280  1.01947E+00  9.94402E-01  2.50701E-02
    9095.323    100.743   5.320  1.02689E+00  9.94699E-01  3.21883E-02
    9096.951    102.371   5.360  1.03050E+00  9.94964E-01  3.55327E-02
    9098.591    104.011   5.400  1.03060E+00  9.95243E-01  3.53553E-02
    9100.243    105.663   5.440  1.02757E+00  9.95468E-01  3.21030E-02
    9101.907    107.327   5.480  1.02215E+00  9.95682E-01  2.64689E-02
    9103.583    109.003   5.520  1.01536E+00  9.95886E-01  1.94727E-02
    9105.272    110.692   5.560  1.00811E+00  9.96054E-01  1.20551E-02
    9106.973    112.393   5.600  1.00058E+00  9.96186E-01  4.39255E-03
    9108.686    114.106   5.640  9.92122E-01  9.96283E-01 -4.16171E-03
    9110.411    115.831   5.680  9.82122E-01  9.96367E-01 -1.42449E-02
    9112.148    117.568   5.720  9.70926E-01  9.96414E-01 -2.54879E-02
    9113.898    119.318   5.760  9.60229E-01  9.96424E-01 -3.61951E-02
    9115.659    121.079   5.800  9.52357E-01  9.96395E-01 -4.40381E-02
    9117.433    122.853   5.840  9.49073E-01  9.96329E-01 -4.72566E-02
    9119.219    124.639   5.880  9.50816E-01  9.96251E-01 -4.54343E-02
    9121.018    126.438   5.920  9.56920E-01  9.96113E-01 -3.91924E-02
    9122.828    128.248   5.960  9.66792E-01  9.95962E-01 -2.91702E-02
    9124.651    130.071   6.000  9.80711E-01  9.95757E-01 -1.50461E-02
