# # comment:                                                     FEFF 9.9.1  
# # Source:
# # Structure
# # Reduced
# # space
# # abc:
# # angles:
# # sites:
# # POT  SCF 100  7.0000   0, screened core-hole, AFOLP (folp(0)= 1.150)
# # Abs   Z=29 Rmt= 1.155 Rnm= 1.273 K  shell
# # Pot 1 Z=29 Rmt= 1.155 Rnm= 1.273
# # Pot 2 Z= 1 Rmt= 0.552 Rnm= 0.713
# # Pot 3 Z= 8 Rmt= 0.938 Rnm= 1.085
# # Gam_ch=1.729E+00 H-L exch Vi= 0.000E+00 Vr= 0.000E+00
# # Mu=-6.960E+00eV kf=2.290E+00 Vint=-1.574E+01eV Rs_int= 1.583
# FMS rfms= 9.0000
# # PATH  Rmax=-1.000,  Keep_limit= 0.00, Heap_limit 0.00  Pwcrit= 2.50%
#  S02=0.950  Temp=   0.00  Debye_temp=   0.00  Global_sig2= 0.00000
#  Energy zero shift, vr, vi    0.00000E+00   0.00000E+00
#  Curved wave amplitude ratio filter   4.000%
#     file         sig2 tot  cw amp ratio   deg  nlegs   reff  inp sig2
#     0/   0 paths used
#  xsedge+ 50, used to normalize mu           2.4526E-04
#  -----------------------------------------------------------------------
#  omega    e    k    mu    mu0     chi     @#
    8983.445    -10.770  -1.000  3.43574E-02  5.32618E-02 -1.89044E-02
    8983.743    -10.471  -0.960  3.60437E-02  5.71087E-02 -2.10650E-02
    8984.030    -10.184  -0.920  3.78448E-02  6.13815E-02 -2.35367E-02
    8984.304     -9.910  -0.880  3.97708E-02  6.61427E-02 -2.63718E-02
    8984.566     -9.648  -0.840  4.18331E-02  7.14650E-02 -2.96320E-02
    8984.816     -9.398  -0.800  4.40438E-02  7.74329E-02 -3.33891E-02
    8985.054     -9.160  -0.760  4.64162E-02  8.41429E-02 -3.77267E-02
    8985.280     -8.935  -0.720  4.89643E-02  9.17043E-02 -4.27400E-02
    8985.493     -8.721  -0.680  5.17025E-02  1.00237E-01 -4.85349E-02
    8985.694     -8.520  -0.640  5.46445E-02  1.09869E-01 -5.52245E-02
    8985.883     -8.331  -0.600  5.78020E-02  1.20724E-01 -6.29218E-02
    8986.060     -8.154  -0.560  6.11818E-02  1.32908E-01 -7.17262E-02
    8986.224     -7.990  -0.520  6.47819E-02  1.46484E-01 -8.17026E-02
    8986.377     -7.837  -0.480  6.85865E-02  1.61439E-01 -9.28525E-02
    8986.517     -7.697  -0.440  7.25599E-02  1.77640E-01 -1.05080E-01
    8986.645     -7.569  -0.400  7.66420E-02  1.94807E-01 -1.18165E-01
    8986.761     -7.453  -0.360  8.07470E-02  2.12497E-01 -1.31750E-01
    8986.865     -7.350  -0.320  8.47693E-02  2.30135E-01 -1.45365E-01
    8986.956     -7.258  -0.280  8.85940E-02  2.47083E-01 -1.58489E-01
    8987.035     -7.179  -0.240  9.21111E-02  2.62728E-01 -1.70617E-01
    8987.102     -7.112  -0.200  9.52264E-02  2.76555E-01 -1.81329E-01
    8987.157     -7.057  -0.160  9.78663E-02  2.88188E-01 -1.90321E-01
    8987.200     -7.014  -0.120  9.99775E-02  2.97384E-01 -1.97407E-01
    8987.230     -6.984  -0.080  1.01522E-01  3.04010E-01 -2.02488E-01
    8987.255     -6.960   0.000  1.02801E-01  3.09334E-01 -2.06533E-01
    8987.310     -6.905   0.120  1.05680E-01  3.21338E-01 -2.15658E-01
    8987.352     -6.862   0.160  1.07907E-01  3.30670E-01 -2.22763E-01
    8987.407     -6.807   0.200  1.10772E-01  3.42594E-01 -2.31822E-01
    8987.474     -6.740   0.240  1.14278E-01  3.56930E-01 -2.42652E-01
    8987.553     -6.661   0.280  1.18466E-01  3.73418E-01 -2.54952E-01
    8987.645     -6.569   0.320  1.23339E-01  3.91602E-01 -2.68263E-01
    8987.748     -6.466   0.360  1.29003E-01  4.11007E-01 -2.82004E-01
    8987.864     -6.350   0.400  1.35503E-01  4.31025E-01 -2.95522E-01
    8987.992     -6.222   0.440  1.43079E-01  4.51195E-01 -3.08116E-01
    8988.133     -6.082   0.480  1.51926E-01  4.71109E-01 -3.19183E-01
    8988.285     -5.929   0.520  1.62368E-01  4.90502E-01 -3.28134E-01
    8988.450     -5.765   0.560  1.74821E-01  5.09239E-01 -3.34418E-01
    8988.626     -5.588   0.600  1.89836E-01  5.27309E-01 -3.37472E-01
    8988.815     -5.399   0.640  2.08125E-01  5.44766E-01 -3.36641E-01
    8989.016     -5.198   0.680  2.30384E-01  5.61682E-01 -3.31298E-01
    8989.230     -4.984   0.720  2.57105E-01  5.78139E-01 -3.21033E-01
    8989.455     -4.759   0.760  2.88093E-01  5.94219E-01 -3.06126E-01
    8989.693     -4.521   0.800  3.22170E-01  6.09995E-01 -2.87825E-01
    8989.943     -4.271   0.840  3.57380E-01  6.25525E-01 -2.68144E-01
    8990.205     -4.009   0.880  3.91731E-01  6.40876E-01 -2.49145E-01
    8990.479     -3.735   0.920  4.23559E-01  6.56083E-01 -2.32525E-01
    8990.766     -3.448   0.960  4.51822E-01  6.71147E-01 -2.19325E-01
    8991.065     -3.150   1.000  4.76780E-01  6.86098E-01 -2.09318E-01
    8991.376     -2.839   1.040  4.97254E-01  7.00898E-01 -2.03644E-01
    8991.699     -2.516   1.080  5.06279E-01  7.15583E-01 -2.09304E-01
    8992.034     -2.180   1.120  4.99241E-01  7.30143E-01 -2.30902E-01
    8992.381     -1.833   1.160  4.86222E-01  7.44521E-01 -2.58299E-01
    8992.741     -1.473   1.200  4.81482E-01  7.58716E-01 -2.77234E-01
    8993.113     -1.101   1.240  4.85225E-01  7.72706E-01 -2.87481E-01
    8993.497     -0.717   1.280  4.88163E-01  7.86466E-01 -2.98303E-01
    8993.893     -0.321   1.320  4.90236E-01  7.99947E-01 -3.09711E-01
    8994.302      0.087   1.360  5.00803E-01  8.13164E-01 -3.12360E-01
    8994.722      0.508   1.400  5.24176E-01  8.26044E-01 -3.01868E-01
    8995.155      0.941   1.440  5.55218E-01  8.38600E-01 -2.83381E-01
    8995.600      1.386   1.480  5.86864E-01  8.50781E-01 -2.63917E-01
    8996.057      1.843   1.520  6.15408E-01  8.62560E-01 -2.47152E-01
    8996.527      2.312   1.560  6.38798E-01  8.73927E-01 -2.35129E-01
    8997.008      2.794   1.600  6.56299E-01  8.84877E-01 -2.28578E-01
    8997.502      3.288   1.640  6.72061E-01  8.95361E-01 -2.23300E-01
    8998.008      3.794   1.680  6.94955E-01  9.05375E-01 -2.10420E-01
    8998.526      4.312   1.720  7.31144E-01  9.14934E-01 -1.83789E-01
    8999.057      4.842   1.760  7.78484E-01  9.23994E-01 -1.45510E-01
    8999.599      5.385   1.800  8.26270E-01  9.32576E-01 -1.06306E-01
    9000.154      5.939   1.840  8.67292E-01  9.40656E-01 -7.33645E-02
    9000.721      6.506   1.880  9.13226E-01  9.48257E-01 -3.50310E-02
    9001.300      7.086   1.920  9.89069E-01  9.55340E-01  3.37287E-02
    9001.891      7.677   1.960  1.10165E+00  9.61968E-01  1.39677E-01
    9002.495      8.280   2.000  1.22067E+00  9.68084E-01  2.52583E-01
    9003.110      8.896   2.040  1.31060E+00  9.73755E-01  3.36850E-01
    9003.738      9.524   2.080  1.34232E+00  9.78946E-01  3.63377E-01
    9004.378     10.164   2.120  1.31559E+00  9.83703E-01  3.31888E-01
    9005.031     10.816   2.160  1.27597E+00  9.88013E-01  2.87960E-01
    9005.695     11.481   2.200  1.24894E+00  9.91903E-01  2.57032E-01
    9006.372     12.157   2.240  1.22981E+00  9.95383E-01  2.34426E-01
    9007.061     12.846   2.280  1.21745E+00  9.98482E-01  2.18967E-01
    9007.762     13.547   2.320  1.21470E+00  1.00121E+00  2.13486E-01
    9008.475     14.260   2.360  1.22315E+00  1.00360E+00  2.19556E-01
    9009.200     14.986   2.400  1.24959E+00  1.00563E+00  2.43965E-01
    9009.938     15.724   2.440  1.29700E+00  1.00736E+00  2.89638E-01
    9010.688     16.473   2.480  1.35419E+00  1.00879E+00  3.45397E-01
    9011.450     17.235   2.520  1.39155E+00  1.00995E+00  3.81607E-01
    9012.224     18.010   2.560  1.37167E+00  1.01085E+00  3.60828E-01
    9013.010     18.796   2.600  1.30351E+00  1.01150E+00  2.92005E-01
    9013.809     19.594   2.640  1.23781E+00  1.01194E+00  2.25868E-01
    9014.620     20.405   2.680  1.20183E+00  1.01218E+00  1.89651E-01
    9015.442     21.228   2.720  1.17452E+00  1.01225E+00  1.62276E-01
    9016.278     22.063   2.760  1.13828E+00  1.01214E+00  1.26138E-01
    9017.125     22.911   2.800  1.09230E+00  1.01188E+00  8.04236E-02
    9017.985     23.770   2.840  1.04486E+00  1.01149E+00  3.33716E-02
    9018.856     24.642   2.880  1.00238E+00  1.01097E+00 -8.58764E-03
    9019.740     25.526   2.920  9.67274E-01  1.01034E+00 -4.30646E-02
    9020.636     26.422   2.960  9.40148E-01  1.00962E+00 -6.94726E-02
    9021.545     27.330   3.000  9.20638E-01  1.00884E+00 -8.82043E-02
    9022.465     28.251   3.040  9.07613E-01  1.00799E+00 -1.00377E-01
    9023.398     29.183   3.080  8.99695E-01  1.00709E+00 -1.07396E-01
    9024.343     30.128   3.120  8.95480E-01  1.00615E+00 -1.10669E-01
    9025.300     31.085   3.160  8.93398E-01  1.00517E+00 -1.11772E-01
    9026.269     32.055   3.200  8.92150E-01  1.00418E+00 -1.12029E-01
    9027.250     33.036   3.240  8.90911E-01  1.00316E+00 -1.12249E-01
    9028.244     34.030   3.280  8.88905E-01  1.00216E+00 -1.13255E-01
    9029.250     35.036   3.320  8.85327E-01  1.00114E+00 -1.15814E-01
    9030.268     36.054   3.360  8.79835E-01  1.00015E+00 -1.20313E-01
    9031.298     37.084   3.400  8.72806E-01  9.99186E-01 -1.26380E-01
    9032.341     38.126   3.440  8.65244E-01  9.98237E-01 -1.32994E-01
    9033.395     39.181   3.480  8.58645E-01  9.97345E-01 -1.38700E-01
    9034.462     40.248   3.520  8.54355E-01  9.96470E-01 -1.42115E-01
    9035.541     41.327   3.560  8.53184E-01  9.95633E-01 -1.42449E-01
    9036.632     42.418   3.600  8.55374E-01  9.94840E-01 -1.39466E-01
    9037.735     43.521   3.640  8.60672E-01  9.94113E-01 -1.33441E-01
    9038.851     44.637   3.680  8.68412E-01  9.93434E-01 -1.25022E-01
    9039.979     45.764   3.720  8.77703E-01  9.92821E-01 -1.15118E-01
    9041.119     46.904   3.760  8.88033E-01  9.92235E-01 -1.04202E-01
    9042.271     48.057   3.800  8.99356E-01  9.91741E-01 -9.23857E-02
    9043.435     49.221   3.840  9.11752E-01  9.91298E-01 -7.95452E-02
    9044.612     50.397   3.880  9.25354E-01  9.90905E-01 -6.55508E-02
    9045.800     51.586   3.920  9.40083E-01  9.90605E-01 -5.05229E-02
    9047.001     52.787   3.960  9.55349E-01  9.90336E-01 -3.49872E-02
    9048.214     54.000   4.000  9.70440E-01  9.90159E-01 -1.97191E-02
    9049.440     55.225   4.040  9.84658E-01  9.90013E-01 -5.35467E-03
    9050.677     56.463   4.080  9.97807E-01  9.89960E-01  7.84711E-03
    9051.927     57.713   4.120  1.01007E+00  9.89958E-01  2.01158E-02
    9053.189     58.974   4.160  1.02206E+00  9.90027E-01  3.20323E-02
    9054.463     60.249   4.200  1.03421E+00  9.90144E-01  4.40627E-02
    9055.749     61.535   4.240  1.04654E+00  9.90309E-01  5.62319E-02
    9057.048     62.833   4.280  1.05863E+00  9.90542E-01  6.80852E-02
    9058.358     64.144   4.320  1.06953E+00  9.90822E-01  7.87127E-02
    9059.681     65.467   4.360  1.07810E+00  9.91169E-01  8.69290E-02
    9061.016     66.802   4.400  1.08322E+00  9.91537E-01  9.16839E-02
    9062.363     68.149   4.440  1.08451E+00  9.91969E-01  9.25377E-02
    9063.723     69.508   4.480  1.08224E+00  9.92444E-01  8.97969E-02
    9065.094     70.880   4.520  1.07729E+00  9.92958E-01  8.43297E-02
    9066.478     72.264   4.560  1.07069E+00  9.93511E-01  7.71816E-02
    9067.874     73.660   4.600  1.06325E+00  9.94078E-01  6.91723E-02
    9069.282     75.068   4.640  1.05555E+00  9.94702E-01  6.08486E-02
    9070.702     76.488   4.680  1.04799E+00  9.95338E-01  5.26503E-02
    9072.135     77.921   4.720  1.04086E+00  9.95984E-01  4.48790E-02
    9073.580     79.366   4.760  1.03434E+00  9.96682E-01  3.76591E-02
    9075.037     80.822   4.800  1.02829E+00  9.97364E-01  3.09280E-02
    9076.506     82.292   4.840  1.02265E+00  9.98072E-01  2.45826E-02
    9077.987     83.773   4.880  1.01749E+00  9.98783E-01  1.87024E-02
    9079.481     85.266   4.920  1.01313E+00  9.99492E-01  1.36332E-02
    9080.986     86.772   4.960  1.00995E+00  1.00018E+00  9.76936E-03
    9082.504     88.290   5.000  1.00832E+00  1.00088E+00  7.43235E-03
    9084.034     89.820   5.040  1.00841E+00  1.00159E+00  6.82569E-03
    9085.577     91.362   5.080  1.01026E+00  1.00226E+00  7.99573E-03
    9087.131     92.917   5.120  1.01374E+00  1.00293E+00  1.08153E-02
    9088.698     94.484   5.160  1.01852E+00  1.00359E+00  1.49325E-02
    9090.277     96.062   5.200  1.02395E+00  1.00421E+00  1.97399E-02
    9091.868     97.653   5.240  1.02912E+00  1.00481E+00  2.43185E-02
    9093.471     99.257   5.280  1.03281E+00  1.00538E+00  2.74220E-02
    9095.086    100.872   5.320  1.03366E+00  1.00592E+00  2.77358E-02
    9096.714    102.500   5.360  1.03091E+00  1.00643E+00  2.44876E-02
    9098.354    104.140   5.400  1.02481E+00  1.00689E+00  1.79227E-02
    9100.006    105.792   5.440  1.01637E+00  1.00731E+00  9.05956E-03
    9101.670    107.456   5.480  1.00670E+00  1.00768E+00 -9.84675E-04
    9103.346    109.132   5.520  9.96647E-01  1.00802E+00 -1.13700E-02
    9105.035    110.821   5.560  9.86827E-01  1.00828E+00 -2.14577E-02
    9106.736    112.522   5.600  9.77909E-01  1.00853E+00 -3.06219E-02
    9108.449    114.234   5.640  9.70533E-01  1.00871E+00 -3.81766E-02
    9110.174    115.960   5.680  9.65475E-01  1.00884E+00 -4.33694E-02
    9111.911    117.697   5.720  9.63271E-01  1.00893E+00 -4.56633E-02
    9113.661    119.447   5.760  9.63865E-01  1.00898E+00 -4.51150E-02
    9115.423    121.208   5.800  9.66348E-01  1.00896E+00 -4.26084E-02
    9117.196    122.982   5.840  9.69383E-01  1.00889E+00 -3.95063E-02
    9118.983    124.768   5.880  9.71809E-01  1.00878E+00 -3.69671E-02
    9120.781    126.567   5.920  9.73107E-01  1.00859E+00 -3.54858E-02
    9122.591    128.377   5.960  9.73321E-01  1.00836E+00 -3.50385E-02
    9124.414    130.200   6.000  9.72561E-01  1.00804E+00 -3.54832E-02
