# # comment:                                                     FEFF 9.9.1  
# # Source:
# # Structure
# # Reduced
# # space
# # abc:
# # angles:
# # sites:
# # POT  SCF 100  7.0000   0, screened core-hole, AFOLP (folp(0)= 1.150)
# # Abs   Z=29 Rmt= 1.158 Rnm= 1.263 K  shell
# # Pot 1 Z=70 Rmt= 1.573 Rnm= 1.653
# # Pot 2 Z=22 Rmt= 1.250 Rnm= 1.409
# # Pot 3 Z=29 Rmt= 1.158 Rnm= 1.263
# # Pot 4 Z= 8 Rmt= 1.016 Rnm= 1.089
# # Gam_ch=1.729E+00 H-L exch Vi= 0.000E+00 Vr= 0.000E+00
# # Mu=-7.907E+00eV kf=2.151E+00 Vint=-1.773E+01eV Rs_int= 1.686
# FMS rfms= 9.0000
# # PATH  Rmax=-1.000,  Keep_limit= 0.00, Heap_limit 0.00  Pwcrit= 2.50%
#  S02=0.950  Temp=   0.00  Debye_temp=   0.00  Global_sig2= 0.00000
#  Energy zero shift, vr, vi    0.00000E+00   0.00000E+00
#  Curved wave amplitude ratio filter   4.000%
#     file         sig2 tot  cw amp ratio   deg  nlegs   reff  inp sig2
#     0/   0 paths used
#  xsedge+ 50, used to normalize mu           2.4937E-04
#  -----------------------------------------------------------------------
#  omega    e    k    mu    mu0     chi     @#
    8983.749    -11.717  -1.000  3.08872E-02  5.00459E-02 -1.91587E-02
    8984.048    -11.418  -0.960  3.22601E-02  5.36267E-02 -2.13666E-02
    8984.335    -11.132  -0.920  3.37174E-02  5.76038E-02 -2.38864E-02
    8984.609    -10.857  -0.880  3.52667E-02  6.20357E-02 -2.67690E-02
    8984.871    -10.595  -0.840  3.69163E-02  6.69905E-02 -3.00742E-02
    8985.121    -10.345  -0.800  3.86753E-02  7.25470E-02 -3.38717E-02
    8985.359    -10.107  -0.760  4.05537E-02  7.87957E-02 -3.82420E-02
    8985.584     -9.882  -0.720  4.25619E-02  8.58390E-02 -4.32771E-02
    8985.798     -9.669  -0.680  4.47109E-02  9.37896E-02 -4.90787E-02
    8985.999     -9.467  -0.640  4.70109E-02  1.02767E-01 -5.57558E-02
    8986.188     -9.278  -0.600  4.94708E-02  1.12887E-01 -6.34162E-02
    8986.365     -9.102  -0.560  5.20962E-02  1.24251E-01 -7.21545E-02
    8986.529     -8.937  -0.520  5.48866E-02  1.36917E-01 -8.20303E-02
    8986.682     -8.785  -0.480  5.78328E-02  1.50873E-01 -9.30398E-02
    8986.822     -8.644  -0.440  6.09124E-02  1.65995E-01 -1.05083E-01
    8986.950     -8.516  -0.400  6.40869E-02  1.82021E-01 -1.17934E-01
    8987.066     -8.401  -0.360  6.72999E-02  1.98536E-01 -1.31236E-01
    8987.169     -8.297  -0.320  7.04795E-02  2.15002E-01 -1.44522E-01
    8987.261     -8.206  -0.280  7.35427E-02  2.30821E-01 -1.57278E-01
    8987.340     -8.126  -0.240  7.64037E-02  2.45420E-01 -1.69016E-01
    8987.407     -8.059  -0.200  7.89801E-02  2.58318E-01 -1.79338E-01
    8987.462     -8.004  -0.160  8.11987E-02  2.69166E-01 -1.87967E-01
    8987.505     -7.962  -0.120  8.29972E-02  2.77739E-01 -1.94741E-01
    8987.535     -7.931  -0.080  8.43271E-02  2.83914E-01 -1.99586E-01
    8987.559     -7.907   0.000  8.54424E-02  2.88874E-01 -2.03432E-01
    8987.614     -7.852   0.120  8.80714E-02  3.00064E-01 -2.11992E-01
    8987.657     -7.809   0.160  9.00895E-02  3.08746E-01 -2.18656E-01
    8987.712     -7.754   0.200  9.27254E-02  3.19844E-01 -2.27118E-01
    8987.779     -7.687   0.240  9.60029E-02  3.33163E-01 -2.37160E-01
    8987.858     -7.608   0.280  9.99791E-02  3.48472E-01 -2.48493E-01
    8987.950     -7.517   0.320  1.04679E-01  3.65334E-01 -2.60655E-01
    8988.053     -7.413   0.360  1.10148E-01  3.83279E-01 -2.73131E-01
    8988.169     -7.297   0.400  1.16393E-01  4.01764E-01 -2.85372E-01
    8988.297     -7.169   0.440  1.23393E-01  4.20335E-01 -2.96942E-01
    8988.437     -7.029   0.480  1.31067E-01  4.38585E-01 -3.07518E-01
    8988.590     -6.877   0.520  1.39271E-01  4.56279E-01 -3.17009E-01
    8988.754     -6.712   0.560  1.47965E-01  4.73333E-01 -3.25368E-01
    8988.931     -6.535   0.600  1.57251E-01  4.89719E-01 -3.32468E-01
    8989.120     -6.346   0.640  1.67419E-01  5.05452E-01 -3.38032E-01
    8989.321     -6.145   0.680  1.78923E-01  5.20661E-01 -3.41738E-01
    8989.535     -5.932   0.720  1.91831E-01  5.35408E-01 -3.43578E-01
    8989.760     -5.706   0.760  2.05407E-01  5.49775E-01 -3.44368E-01
    8989.998     -5.468   0.800  2.18209E-01  5.63875E-01 -3.45666E-01
    8990.248     -5.218   0.840  2.29175E-01  5.77769E-01 -3.48593E-01
    8990.510     -4.956   0.880  2.39316E-01  5.91485E-01 -3.52168E-01
    8990.784     -4.682   0.920  2.50654E-01  6.05081E-01 -3.54427E-01
    8991.071     -4.396   0.960  2.62917E-01  6.18603E-01 -3.55686E-01
    8991.369     -4.097   1.000  2.73000E-01  6.32044E-01 -3.59044E-01
    8991.680     -3.786   1.040  2.79025E-01  6.45455E-01 -3.66430E-01
    8992.003     -3.463   1.080  2.83361E-01  6.58815E-01 -3.75454E-01
    8992.339     -3.128   1.120  2.91405E-01  6.72117E-01 -3.80712E-01
    8992.686     -2.780   1.160  3.07513E-01  6.85353E-01 -3.77840E-01
    8993.046     -2.420   1.200  3.31623E-01  6.98526E-01 -3.66903E-01
    8993.418     -2.049   1.240  3.57592E-01  7.11638E-01 -3.54046E-01
    8993.802     -1.665   1.280  3.77226E-01  7.24629E-01 -3.47403E-01
    8994.198     -1.268   1.320  3.91280E-01  7.37497E-01 -3.46217E-01
    8994.606     -0.860   1.360  4.09152E-01  7.50235E-01 -3.41083E-01
    8995.027     -0.439   1.400  4.42494E-01  7.62818E-01 -3.20323E-01
    8995.460     -0.006   1.440  5.02830E-01  7.75199E-01 -2.72369E-01
    8995.905      0.439   1.480  5.96347E-01  7.87391E-01 -1.91043E-01
    8996.362      0.896   1.520  7.20292E-01  7.99344E-01 -7.90517E-02
    8996.831      1.365   1.560  8.68097E-01  8.11051E-01  5.70460E-02
    8997.313      1.847   1.600  1.03373E+00  8.22485E-01  2.11249E-01
    8997.807      2.341   1.640  1.18783E+00  8.33617E-01  3.54214E-01
    8998.313      2.846   1.680  1.24954E+00  8.44460E-01  4.05082E-01
    8998.831      3.365   1.720  1.17973E+00  8.54967E-01  3.24759E-01
    8999.361      3.895   1.760  1.04982E+00  8.65131E-01  1.84691E-01
    8999.904      4.438   1.800  9.41777E-01  8.74947E-01  6.68308E-02
    9000.459      4.992   1.840  8.76852E-01  8.84390E-01 -7.53783E-03
    9001.025      5.559   1.880  8.50661E-01  8.93476E-01 -4.28152E-02
    9001.605      6.138   1.920  8.68879E-01  9.02162E-01 -3.32827E-02
    9002.196      6.730   1.960  9.33907E-01  9.10443E-01  2.34637E-02
    9002.799      7.333   2.000  1.02423E+00  9.18339E-01  1.05890E-01
    9003.415      7.949   2.040  1.11306E+00  9.25830E-01  1.87225E-01
    9004.043      8.577   2.080  1.19628E+00  9.32936E-01  2.63347E-01
    9004.683      9.217   2.120  1.27541E+00  9.39636E-01  3.35770E-01
    9005.335      9.869   2.160  1.33830E+00  9.45932E-01  3.92364E-01
    9006.000     10.534   2.200  1.35515E+00  9.51848E-01  4.03297E-01
    9006.676     11.210   2.240  1.30933E+00  9.57366E-01  3.51965E-01
    9007.365     11.899   2.280  1.23150E+00  9.62509E-01  2.68991E-01
    9008.066     12.600   2.320  1.16523E+00  9.67282E-01  1.97950E-01
    9008.780     13.313   2.360  1.13548E+00  9.71687E-01  1.63789E-01
    9009.505     14.039   2.400  1.14500E+00  9.75731E-01  1.69272E-01
    9010.243     14.776   2.440  1.18050E+00  9.79419E-01  2.01085E-01
    9010.992     15.526   2.480  1.21306E+00  9.82799E-01  2.30262E-01
    9011.754     16.288   2.520  1.20748E+00  9.85834E-01  2.21644E-01
    9012.529     17.062   2.560  1.15864E+00  9.88571E-01  1.70071E-01
    9013.315     17.849   2.600  1.11219E+00  9.91020E-01  1.21168E-01
    9014.114     18.647   2.640  1.08603E+00  9.93185E-01  9.28474E-02
    9014.924     19.458   2.680  1.06635E+00  9.95073E-01  7.12761E-02
    9015.747     20.281   2.720  1.04307E+00  9.96711E-01  4.63544E-02
    9016.582     21.116   2.760  1.01357E+00  9.98108E-01  1.54589E-02
    9017.430     21.963   2.800  9.79932E-01  9.99289E-01 -1.93568E-02
    9018.289     22.823   2.840  9.46393E-01  1.00024E+00 -5.38468E-02
    9019.161     23.695   2.880  9.16889E-01  1.00099E+00 -8.41002E-02
    9020.045     24.579   2.920  8.93085E-01  1.00156E+00 -1.08479E-01
    9020.941     25.475   2.960  8.75294E-01  1.00197E+00 -1.26676E-01
    9021.849     26.383   3.000  8.63329E-01  1.00219E+00 -1.38865E-01
    9022.770     27.304   3.040  8.56865E-01  1.00228E+00 -1.45419E-01
    9023.702     28.236   3.080  8.55555E-01  1.00225E+00 -1.46691E-01
    9024.647     29.181   3.120  8.58942E-01  1.00209E+00 -1.43143E-01
    9025.604     30.138   3.160  8.65991E-01  1.00181E+00 -1.35816E-01
    9026.574     31.107   3.200  8.76132E-01  1.00144E+00 -1.25304E-01
    9027.555     32.089   3.240  8.89209E-01  1.00096E+00 -1.11750E-01
    9028.549     33.083   3.280  9.05071E-01  1.00042E+00 -9.53512E-02
    9029.555     34.088   3.320  9.22879E-01  9.99788E-01 -7.69082E-02
    9030.573     35.106   3.360  9.40951E-01  9.99123E-01 -5.81723E-02
    9031.603     36.137   3.400  9.56794E-01  9.98393E-01 -4.15992E-02
    9032.645     37.179   3.440  9.67970E-01  9.97621E-01 -2.96510E-02
    9033.700     38.234   3.480  9.73146E-01  9.96831E-01 -2.36844E-02
    9034.767     39.300   3.520  9.72272E-01  9.96006E-01 -2.37338E-02
    9035.846     40.379   3.560  9.66236E-01  9.95151E-01 -2.89143E-02
    9036.937     41.471   3.600  9.56404E-01  9.94287E-01 -3.78827E-02
    9038.040     42.574   3.640  9.44371E-01  9.93420E-01 -4.90492E-02
    9039.156     43.690   3.680  9.31968E-01  9.92553E-01 -6.05845E-02
    9040.284     44.817   3.720  9.21175E-01  9.91708E-01 -7.05336E-02
    9041.423     45.957   3.760  9.13694E-01  9.90847E-01 -7.71532E-02
    9042.576     47.109   3.800  9.10703E-01  9.90012E-01 -7.93089E-02
    9043.740     48.274   3.840  9.12541E-01  9.89207E-01 -7.66654E-02
    9044.916     49.450   3.880  9.18776E-01  9.88411E-01 -6.96344E-02
    9046.105     50.639   3.920  9.28531E-01  9.87625E-01 -5.90941E-02
    9047.306     51.840   3.960  9.40708E-01  9.86894E-01 -4.61861E-02
    9048.519     53.053   4.000  9.54140E-01  9.86179E-01 -3.20396E-02
    9049.745     54.278   4.040  9.68084E-01  9.85501E-01 -1.74178E-02
    9050.982     55.516   4.080  9.82318E-01  9.84882E-01 -2.56446E-03
    9052.232     56.765   4.120  9.96848E-01  9.84280E-01  1.25679E-02
    9053.494     58.027   4.160  1.01210E+00  9.83716E-01  2.83797E-02
    9054.768     59.301   4.200  1.02838E+00  9.83191E-01  4.51847E-02
    9056.054     60.588   4.240  1.04550E+00  9.82707E-01  6.27918E-02
    9057.352     61.886   4.280  1.06265E+00  9.82285E-01  8.03629E-02
    9058.663     63.197   4.320  1.07844E+00  9.81883E-01  9.65533E-02
    9059.986     64.519   4.360  1.09126E+00  9.81541E-01  1.09722E-01
    9061.321     65.854   4.400  1.09937E+00  9.81220E-01  1.18152E-01
    9062.668     67.202   4.440  1.10145E+00  9.80959E-01  1.20487E-01
    9064.027     68.561   4.480  1.09656E+00  9.80738E-01  1.15821E-01
    9065.399     69.933   4.520  1.08467E+00  9.80536E-01  1.04138E-01
    9066.783     71.316   4.560  1.06682E+00  9.80395E-01  8.64276E-02
    9068.179     72.712   4.600  1.04479E+00  9.80293E-01  6.45016E-02
    9069.587     74.121   4.640  1.02069E+00  9.80230E-01  4.04615E-02
    9071.007     75.541   4.680  9.96574E-01  9.80182E-01  1.63922E-02
    9072.440     76.974   4.720  9.74385E-01  9.80192E-01 -5.80681E-03
    9073.885     78.418   4.760  9.55713E-01  9.80217E-01 -2.45045E-02
    9075.341     79.875   4.800  9.41692E-01  9.80278E-01 -3.85861E-02
    9076.811     81.344   4.840  9.32754E-01  9.80374E-01 -4.76200E-02
    9078.292     82.826   4.880  9.28880E-01  9.80503E-01 -5.16239E-02
    9079.785     84.319   4.920  9.29812E-01  9.80645E-01 -5.08325E-02
    9081.291     85.825   4.960  9.35179E-01  9.80816E-01 -4.56371E-02
    9082.809     87.343   5.000  9.44174E-01  9.80996E-01 -3.68229E-02
    9084.339     88.873   5.040  9.55362E-01  9.81206E-01 -2.58448E-02
    9085.881     90.415   5.080  9.66758E-01  9.81424E-01 -1.46668E-02
    9087.436     91.970   5.120  9.76556E-01  9.81670E-01 -5.11375E-03
    9089.003     93.536   5.160  9.83809E-01  9.81920E-01  1.88890E-03
    9090.581     95.115   5.200  9.88854E-01  9.82172E-01  6.68217E-03
    9092.172     96.706   5.240  9.92940E-01  9.82424E-01  1.05154E-02
    9093.776     98.309   5.280  9.97389E-01  9.82678E-01  1.47104E-02
    9095.391     99.925   5.320  1.00286E+00  9.82933E-01  1.99312E-02
    9097.019    101.553   5.360  1.00920E+00  9.83210E-01  2.59911E-02
    9098.659    103.192   5.400  1.01550E+00  9.83463E-01  3.20413E-02
    9100.311    104.844   5.440  1.02064E+00  9.83712E-01  3.69244E-02
    9101.975    106.509   5.480  1.02347E+00  9.83958E-01  3.95154E-02
    9103.651    108.185   5.520  1.02300E+00  9.84199E-01  3.88015E-02
    9105.340    109.874   5.560  1.01813E+00  9.84410E-01  3.37185E-02
    9107.041    111.574   5.600  1.00784E+00  9.84614E-01  2.32294E-02
    9108.754    113.287   5.640  9.91868E-01  9.84787E-01  7.08128E-03
    9110.479    115.012   5.680  9.71571E-01  9.84953E-01 -1.33818E-02
    9112.216    116.750   5.720  9.49803E-01  9.85111E-01 -3.53085E-02
    9113.966    118.499   5.760  9.29897E-01  9.85236E-01 -5.53395E-02
    9115.727    120.261   5.800  9.14687E-01  9.85329E-01 -7.06420E-02
    9117.501    122.035   5.840  9.05996E-01  9.85411E-01 -7.94151E-02
    9119.287    123.821   5.880  9.04500E-01  9.85461E-01 -8.09603E-02
    9121.086    125.619   5.920  9.09890E-01  9.85500E-01 -7.56109E-02
    9122.896    127.430   5.960  9.20988E-01  9.85504E-01 -6.45164E-02
    9124.719    129.253   6.000  9.36429E-01  9.85459E-01 -4.90293E-02
