# # comment:                                                     FEFF 9.9.1  
# # Source:
# # Structure
# # Reduced
# # space
# # abc:
# # angles:
# # sites:
# # POT  SCF 100  7.0000   0, screened core-hole, AFOLP (folp(0)= 1.150)
# # Abs   Z=29 Rmt= 1.267 Rnm= 1.326 K  shell
# # Pot 1 Z= 3 Rmt= 1.235 Rnm= 1.303
# # Pot 2 Z=25 Rmt= 1.223 Rnm= 1.344
# # Pot 3 Z=29 Rmt= 1.272 Rnm= 1.330
# # Pot 4 Z= 8 Rmt= 1.033 Rnm= 1.104
# # Gam_ch=1.729E+00 H-L exch Vi= 0.000E+00 Vr= 0.000E+00
# # Mu=-1.101E+01eV kf=2.158E+00 Vint=-1.796E+01eV Rs_int= 1.681
# FMS rfms= 9.0000
# # PATH  Rmax=-1.000,  Keep_limit= 0.00, Heap_limit 0.00  Pwcrit= 2.50%
#  S02=0.950  Temp=   0.00  Debye_temp=   0.00  Global_sig2= 0.00000
#  Energy zero shift, vr, vi    0.00000E+00   0.00000E+00
#  Curved wave amplitude ratio filter   4.000%
#     file         sig2 tot  cw amp ratio   deg  nlegs   reff  inp sig2
#     0/   0 paths used
#  xsedge+ 50, used to normalize mu           2.4760E-04
#  -----------------------------------------------------------------------
#  omega    e    k    mu    mu0     chi     @#
    8984.786    -14.816  -1.000  3.05269E-02  4.75002E-02 -1.69733E-02
    8985.085    -14.517  -0.960  3.18397E-02  5.07457E-02 -1.89059E-02
    8985.371    -14.230  -0.920  3.32365E-02  5.43342E-02 -2.10976E-02
    8985.646    -13.956  -0.880  3.47277E-02  5.83146E-02 -2.35869E-02
    8985.908    -13.694  -0.840  3.63254E-02  6.27437E-02 -2.64183E-02
    8986.158    -13.444  -0.800  3.80444E-02  6.76870E-02 -2.96426E-02
    8986.396    -13.206  -0.760  3.99021E-02  7.32197E-02 -3.33176E-02
    8986.621    -12.981  -0.720  4.19185E-02  7.94261E-02 -3.75076E-02
    8986.834    -12.767  -0.680  4.41165E-02  8.63992E-02 -4.22828E-02
    8987.036    -12.566  -0.640  4.65206E-02  9.42365E-02 -4.77159E-02
    8987.225    -12.377  -0.600  4.91555E-02  1.03033E-01 -5.38779E-02
    8987.401    -12.200  -0.560  5.20420E-02  1.12871E-01 -6.08287E-02
    8987.566    -12.036  -0.520  5.51918E-02  1.23795E-01 -6.86033E-02
    8987.718    -11.883  -0.480  5.85988E-02  1.35793E-01 -7.71943E-02
    8987.859    -11.743  -0.440  6.22304E-02  1.48760E-01 -8.65297E-02
    8987.987    -11.615  -0.400  6.60190E-02  1.62475E-01 -9.64560E-02
    8988.102    -11.499  -0.360  6.98602E-02  1.76591E-01 -1.06731E-01
    8988.206    -11.396  -0.320  7.36212E-02  1.90660E-01 -1.17038E-01
    8988.298    -11.304  -0.280  7.71590E-02  2.04179E-01 -1.27020E-01
    8988.377    -11.225  -0.240  8.03445E-02  2.16667E-01 -1.36322E-01
    8988.444    -11.158  -0.200  8.30827E-02  2.27715E-01 -1.44632E-01
    8988.499    -11.103  -0.160  8.53207E-02  2.37021E-01 -1.51700E-01
    8988.541    -11.060  -0.120  8.70423E-02  2.44388E-01 -1.57345E-01
    8988.572    -11.030  -0.080  8.82541E-02  2.49702E-01 -1.61448E-01
    8988.596    -11.006   0.000  8.92055E-02  2.53977E-01 -1.64771E-01
    8988.651    -10.951   0.120  9.12516E-02  2.63617E-01 -1.72365E-01
    8988.694    -10.908   0.160  9.27788E-02  2.71147E-01 -1.78369E-01
    8988.749    -10.853   0.200  9.45958E-02  2.80765E-01 -1.86169E-01
    8988.816    -10.786   0.240  9.66202E-02  2.92380E-01 -1.95760E-01
    8988.895    -10.707   0.280  9.86920E-02  3.05815E-01 -2.07123E-01
    8988.986    -10.615   0.320  1.00633E-01  3.20731E-01 -2.20098E-01
    8989.090    -10.512   0.360  1.02341E-01  3.36754E-01 -2.34414E-01
    8989.206    -10.396   0.400  1.03838E-01  3.53503E-01 -2.49665E-01
    8989.334    -10.268   0.440  1.05269E-01  3.70588E-01 -2.65320E-01
    8989.474    -10.128   0.480  1.06942E-01  3.87707E-01 -2.80765E-01
    8989.626     -9.975   0.520  1.09292E-01  4.04719E-01 -2.95428E-01
    8989.791     -9.811   0.560  1.12634E-01  4.21481E-01 -3.08847E-01
    8989.968     -9.634   0.600  1.17221E-01  4.38008E-01 -3.20786E-01
    8990.157     -9.445   0.640  1.23027E-01  4.54339E-01 -3.31312E-01
    8990.358     -9.244   0.680  1.29566E-01  4.70501E-01 -3.40935E-01
    8990.571     -9.030   0.720  1.35989E-01  4.86548E-01 -3.50559E-01
    8990.797     -8.805   0.760  1.41392E-01  5.02596E-01 -3.61204E-01
    8991.035     -8.567   0.800  1.45329E-01  5.18629E-01 -3.73300E-01
    8991.285     -8.317   0.840  1.48533E-01  5.34723E-01 -3.86190E-01
    8991.547     -8.055   0.880  1.52740E-01  5.50901E-01 -3.98160E-01
    8991.821     -7.781   0.920  1.59858E-01  5.67177E-01 -4.07320E-01
    8992.108     -7.494   0.960  1.71369E-01  5.83536E-01 -4.12168E-01
    8992.406     -7.196   1.000  1.88366E-01  5.99995E-01 -4.11629E-01
    8992.717     -6.885   1.040  2.11635E-01  6.16521E-01 -4.04886E-01
    8993.040     -6.562   1.080  2.41861E-01  6.33095E-01 -3.91234E-01
    8993.375     -6.226   1.120  2.78575E-01  6.49696E-01 -3.71121E-01
    8993.723     -5.879   1.160  3.17633E-01  6.66275E-01 -3.48642E-01
    8994.083     -5.519   1.200  3.52687E-01  6.82825E-01 -3.30138E-01
    8994.454     -5.147   1.240  3.81964E-01  6.99270E-01 -3.17306E-01
    8994.838     -4.763   1.280  4.15289E-01  7.15595E-01 -3.00307E-01
    8995.235     -4.367   1.320  4.69199E-01  7.31766E-01 -2.62567E-01
    8995.643     -3.959   1.360  5.42326E-01  7.47725E-01 -2.05398E-01
    8996.064     -3.538   1.400  6.10879E-01  7.63411E-01 -1.52532E-01
    8996.497     -3.105   1.440  6.66441E-01  7.78808E-01 -1.12368E-01
    8996.942     -2.660   1.480  7.23101E-01  7.93879E-01 -7.07776E-02
    8997.399     -2.203   1.520  7.80754E-01  8.08587E-01 -2.78329E-02
    8997.868     -1.734   1.560  8.21792E-01  8.22855E-01 -1.06296E-03
    8998.350     -1.252   1.600  8.42058E-01  8.36708E-01  5.35059E-03
    8998.844     -0.758   1.640  8.59988E-01  8.50093E-01  9.89514E-03
    8999.350     -0.252   1.680  8.92963E-01  8.62958E-01  3.00049E-02
    8999.868      0.266   1.720  9.48475E-01  8.75311E-01  7.31631E-02
    9000.398      0.796   1.760  1.02405E+00  8.87145E-01  1.36904E-01
    9000.941      1.339   1.800  1.10939E+00  8.98391E-01  2.10998E-01
    9001.495      1.894   1.840  1.21109E+00  9.09106E-01  3.01983E-01
    9002.062      2.460   1.880  1.33935E+00  9.19225E-01  4.20127E-01
    9002.641      3.040   1.920  1.46174E+00  9.28766E-01  5.32976E-01
    9003.233      3.631   1.960  1.52878E+00  9.37727E-01  5.91051E-01
    9003.836      4.234   2.000  1.55517E+00  9.46091E-01  6.09076E-01
    9004.452      4.850   2.040  1.59592E+00  9.53902E-01  6.42020E-01
    9005.080      5.478   2.080  1.65084E+00  9.61142E-01  6.89702E-01
    9005.720      6.118   2.120  1.65833E+00  9.67818E-01  6.90516E-01
    9006.372      6.770   2.160  1.57199E+00  9.73956E-01  5.98032E-01
    9007.037      7.435   2.200  1.39890E+00  9.79565E-01  4.19335E-01
    9007.713      8.111   2.240  1.19915E+00  9.84650E-01  2.14498E-01
    9008.402      8.800   2.280  1.04132E+00  9.89264E-01  5.20591E-02
    9009.103      9.501   2.320  9.41492E-01  9.93373E-01 -5.18817E-02
    9009.816     10.215   2.360  8.83500E-01  9.97050E-01 -1.13550E-01
    9010.542     10.940   2.400  8.54432E-01  1.00027E+00 -1.45834E-01
    9011.279     11.678   2.440  8.48409E-01  1.00309E+00 -1.54681E-01
    9012.029     12.427   2.480  8.50690E-01  1.00551E+00 -1.54824E-01
    9012.791     13.189   2.520  8.43469E-01  1.00757E+00 -1.64101E-01
    9013.565     13.964   2.560  8.37180E-01  1.00927E+00 -1.72088E-01
    9014.352     14.750   2.600  8.53013E-01  1.01064E+00 -1.57630E-01
    9015.150     15.549   2.640  8.77953E-01  1.01174E+00 -1.33791E-01
    9015.961     16.359   2.680  9.00929E-01  1.01254E+00 -1.11612E-01
    9016.784     17.182   2.720  9.17776E-01  1.01309E+00 -9.53109E-02
    9017.619     18.017   2.760  9.28394E-01  1.01339E+00 -8.49967E-02
    9018.466     18.865   2.800  9.34164E-01  1.01349E+00 -7.93212E-02
    9019.326     19.724   2.840  9.36647E-01  1.01338E+00 -7.67329E-02
    9020.198     20.596   2.880  9.36775E-01  1.01310E+00 -7.63280E-02
    9021.082     21.480   2.920  9.34829E-01  1.01266E+00 -7.78353E-02
    9021.978     22.376   2.960  9.30748E-01  1.01207E+00 -8.13244E-02
    9022.886     23.284   3.000  9.24413E-01  1.01138E+00 -8.69634E-02
    9023.807     24.205   3.040  9.15914E-01  1.01055E+00 -9.46311E-02
    9024.739     25.138   3.080  9.06091E-01  1.00965E+00 -1.03555E-01
    9025.684     26.082   3.120  8.95948E-01  1.00867E+00 -1.12719E-01
    9026.641     27.039   3.160  8.86642E-01  1.00761E+00 -1.20972E-01
    9027.610     28.009   3.200  8.79113E-01  1.00651E+00 -1.27401E-01
    9028.592     28.990   3.240  8.73886E-01  1.00537E+00 -1.31484E-01
    9029.586     29.984   3.280  8.71387E-01  1.00419E+00 -1.32803E-01
    9030.591     30.990   3.320  8.72432E-01  1.00300E+00 -1.30568E-01
    9031.609     32.008   3.360  8.77925E-01  1.00178E+00 -1.23859E-01
    9032.640     33.038   3.400  8.87925E-01  1.00059E+00 -1.12663E-01
    9033.682     34.080   3.440  9.01646E-01  9.99394E-01 -9.77485E-02
    9034.737     35.135   3.480  9.17860E-01  9.98208E-01 -8.03475E-02
    9035.803     36.202   3.520  9.35399E-01  9.97054E-01 -6.16547E-02
    9036.882     37.281   3.560  9.53860E-01  9.95933E-01 -4.20732E-02
    9037.974     38.372   3.600  9.73620E-01  9.94849E-01 -2.12291E-02
    9039.077     39.475   3.640  9.95048E-01  9.93782E-01  1.26550E-03
    9040.193     40.591   3.680  1.01785E+00  9.92778E-01  2.50741E-02
    9041.320     41.719   3.720  1.04099E+00  9.91817E-01  4.91763E-02
    9042.460     42.859   3.760  1.06322E+00  9.90902E-01  7.23219E-02
    9043.612     44.011   3.800  1.08344E+00  9.90054E-01  9.33834E-02
    9044.777     45.175   3.840  1.10093E+00  9.89254E-01  1.11676E-01
    9045.953     46.352   3.880  1.11535E+00  9.88523E-01  1.26824E-01
    9047.142     47.540   3.920  1.12644E+00  9.87842E-01  1.38593E-01
    9048.343     48.741   3.960  1.13411E+00  9.87210E-01  1.46905E-01
    9049.556     49.954   4.000  1.13879E+00  9.86670E-01  1.52121E-01
    9050.781     51.180   4.040  1.14090E+00  9.86182E-01  1.54723E-01
    9052.019     52.417   4.080  1.14071E+00  9.85744E-01  1.54965E-01
    9053.268     53.667   4.120  1.13783E+00  9.85377E-01  1.52455E-01
    9054.530     54.929   4.160  1.13115E+00  9.85081E-01  1.46073E-01
    9055.804     56.203   4.200  1.11923E+00  9.84838E-01  1.34387E-01
    9057.091     57.489   4.240  1.10108E+00  9.84663E-01  1.16413E-01
    9058.389     58.787   4.280  1.07693E+00  9.84536E-01  9.23963E-02
    9059.700     60.098   4.320  1.04849E+00  9.84458E-01  6.40355E-02
    9061.022     61.421   4.360  1.01839E+00  9.84468E-01  3.39190E-02
    9062.358     62.756   4.400  9.89159E-01  9.84504E-01  4.65462E-03
    9063.705     64.103   4.440  9.62855E-01  9.84605E-01 -2.17507E-02
    9065.064     65.462   4.480  9.40686E-01  9.84727E-01 -4.40411E-02
    9066.436     66.834   4.520  9.23281E-01  9.84913E-01 -6.16320E-02
    9067.820     68.218   4.560  9.10534E-01  9.85143E-01 -7.46089E-02
    9069.215     69.614   4.600  9.01839E-01  9.85434E-01 -8.35955E-02
    9070.624     71.022   4.640  8.96328E-01  9.85741E-01 -8.94126E-02
    9072.044     72.442   4.680  8.93302E-01  9.86061E-01 -9.27589E-02
    9073.477     73.875   4.720  8.92364E-01  9.86438E-01 -9.40744E-02
    9074.921     75.320   4.760  8.93318E-01  9.86827E-01 -9.35095E-02
    9076.378     76.777   4.800  8.96208E-01  9.87250E-01 -9.10422E-02
    9077.847     78.246   4.840  9.01125E-01  9.87705E-01 -8.65806E-02
    9079.329     79.727   4.880  9.08217E-01  9.88166E-01 -7.99492E-02
    9080.822     81.220   4.920  9.17708E-01  9.88630E-01 -7.09227E-02
    9082.328     82.726   4.960  9.29822E-01  9.89098E-01 -5.92768E-02
    9083.846     84.244   5.000  9.44498E-01  9.89590E-01 -4.50919E-02
    9085.376     85.774   5.040  9.61025E-01  9.90061E-01 -2.90360E-02
    9086.918     87.316   5.080  9.78227E-01  9.90551E-01 -1.23237E-02
    9088.473     88.871   5.120  9.94640E-01  9.91019E-01  3.62109E-03
    9090.039     90.438   5.160  1.00914E+00  9.91505E-01  1.76385E-02
    9091.618     92.016   5.200  1.02098E+00  9.91961E-01  2.90184E-02
    9093.209     93.607   5.240  1.02994E+00  9.92388E-01  3.75513E-02
    9094.812     95.211   5.280  1.03620E+00  9.92807E-01  4.33978E-02
    9096.428     96.826   5.320  1.04000E+00  9.93216E-01  4.67796E-02
    9098.056     98.454   5.360  1.04146E+00  9.93594E-01  4.78664E-02
    9099.695    100.094   5.400  1.04069E+00  9.93961E-01  4.67305E-02
    9101.347    101.746   5.440  1.03747E+00  9.94293E-01  4.31819E-02
    9103.012    103.410   5.480  1.03139E+00  9.94587E-01  3.68024E-02
    9104.688    105.086   5.520  1.02226E+00  9.94841E-01  2.74200E-02
    9106.377    106.775   5.560  1.01060E+00  9.95058E-01  1.55407E-02
    9108.077    108.476   5.600  9.97434E-01  9.95262E-01  2.17159E-03
    9109.790    110.189   5.640  9.83744E-01  9.95427E-01 -1.16825E-02
    9111.515    111.914   5.680  9.70331E-01  9.95528E-01 -2.51977E-02
    9113.253    113.651   5.720  9.58034E-01  9.95612E-01 -3.75783E-02
    9115.002    115.401   5.760  9.47642E-01  9.95656E-01 -4.80139E-02
    9116.764    117.162   5.800  9.39764E-01  9.95636E-01 -5.58718E-02
    9118.538    118.936   5.840  9.34864E-01  9.95599E-01 -6.07353E-02
    9120.324    120.722   5.880  9.33225E-01  9.95498E-01 -6.22734E-02
    9122.122    122.521   5.920  9.35135E-01  9.95382E-01 -6.02471E-02
    9123.933    124.331   5.960  9.40630E-01  9.95201E-01 -5.45712E-02
    9125.756    126.154   6.000  9.50064E-01  9.94981E-01 -4.49163E-02
