# # comment:                                                     FEFF 9.9.1  
# # Source:
# # Structure
# # Reduced
# # space
# # abc:
# # angles:
# # sites:
# # POT  SCF 100  7.0000   0, screened core-hole, AFOLP (folp(0)= 1.150)
# # Abs   Z=29 Rmt= 1.245 Rnm= 1.326 K  shell
# # Pot 1 Z= 3 Rmt= 1.247 Rnm= 1.305
# # Pot 2 Z=29 Rmt= 1.245 Rnm= 1.326
# # Pot 3 Z= 8 Rmt= 1.046 Rnm= 1.105
# # Gam_ch=1.729E+00 H-L exch Vi= 0.000E+00 Vr= 0.000E+00
# # Mu=-6.755E+00eV kf=2.125E+00 Vint=-1.572E+01eV Rs_int= 1.707
# FMS rfms= 9.0000
# # PATH  Rmax=-1.000,  Keep_limit= 0.00, Heap_limit 0.00  Pwcrit= 2.50%
#  S02=0.950  Temp=   0.00  Debye_temp=   0.00  Global_sig2= 0.00000
#  Energy zero shift, vr, vi    0.00000E+00   0.00000E+00
#  Curved wave amplitude ratio filter   4.000%
#     file         sig2 tot  cw amp ratio   deg  nlegs   reff  inp sig2
#     0/   0 paths used
#  xsedge+ 50, used to normalize mu           2.4422E-04
#  -----------------------------------------------------------------------
#  omega    e    k    mu    mu0     chi     @#
    8983.984    -10.565  -1.000  4.41518E-02  5.92707E-02 -1.51188E-02
    8984.282    -10.266  -0.960  4.66046E-02  6.37299E-02 -1.71253E-02
    8984.569     -9.980  -0.920  4.92419E-02  6.86967E-02 -1.94549E-02
    8984.843     -9.705  -0.880  5.20807E-02  7.42468E-02 -2.21662E-02
    8985.105     -9.443  -0.840  5.51396E-02  8.04683E-02 -2.53287E-02
    8985.355     -9.193  -0.800  5.84386E-02  8.74631E-02 -2.90246E-02
    8985.593     -8.956  -0.760  6.19991E-02  9.53488E-02 -3.33496E-02
    8985.818     -8.730  -0.720  6.58434E-02  1.04258E-01 -3.84143E-02
    8986.032     -8.517  -0.680  6.99939E-02  1.14336E-01 -4.43424E-02
    8986.233     -8.315  -0.640  7.44715E-02  1.25739E-01 -5.12673E-02
    8986.422     -8.126  -0.600  7.92934E-02  1.38617E-01 -5.93237E-02
    8986.599     -7.950  -0.560  8.44694E-02  1.53101E-01 -6.86319E-02
    8986.763     -7.785  -0.520  8.99960E-02  1.69269E-01 -7.92733E-02
    8986.916     -7.633  -0.480  9.58494E-02  1.87105E-01 -9.12559E-02
    8987.056     -7.492  -0.440  1.01978E-01  2.06453E-01 -1.04475E-01
    8987.184     -7.364  -0.400  1.08293E-01  2.26972E-01 -1.18679E-01
    8987.300     -7.249  -0.360  1.14673E-01  2.48130E-01 -1.33457E-01
    8987.403     -7.145  -0.320  1.20961E-01  2.69234E-01 -1.48273E-01
    8987.495     -7.054  -0.280  1.26986E-01  2.89514E-01 -1.62528E-01
    8987.574     -6.974  -0.240  1.32575E-01  3.08231E-01 -1.75656E-01
    8987.641     -6.907  -0.200  1.37572E-01  3.24768E-01 -1.87196E-01
    8987.696     -6.852  -0.160  1.41843E-01  3.38674E-01 -1.96831E-01
    8987.739     -6.810  -0.120  1.45279E-01  3.49662E-01 -2.04384E-01
    8987.769     -6.779  -0.080  1.47797E-01  3.57576E-01 -2.09779E-01
    8987.793     -6.755   0.000  1.49868E-01  3.63932E-01 -2.14064E-01
    8987.848     -6.700   0.120  1.54712E-01  3.78244E-01 -2.23532E-01
    8987.891     -6.657   0.160  1.58512E-01  3.89379E-01 -2.30867E-01
    8987.946     -6.602   0.200  1.63474E-01  4.03572E-01 -2.40098E-01
    8988.013     -6.535   0.240  1.69687E-01  4.20622E-01 -2.50935E-01
    8988.092     -6.456   0.280  1.77233E-01  4.40177E-01 -2.62944E-01
    8988.184     -6.365   0.320  1.86256E-01  4.61722E-01 -2.75466E-01
    8988.287     -6.261   0.360  1.96868E-01  4.84578E-01 -2.87710E-01
    8988.403     -6.145   0.400  2.09223E-01  5.08089E-01 -2.98866E-01
    8988.531     -6.017   0.440  2.23492E-01  5.31616E-01 -3.08124E-01
    8988.671     -5.877   0.480  2.39696E-01  5.54636E-01 -3.14939E-01
    8988.824     -5.725   0.520  2.57959E-01  5.76863E-01 -3.18905E-01
    8988.988     -5.560   0.560  2.78540E-01  5.98135E-01 -3.19595E-01
    8989.165     -5.383   0.600  3.02348E-01  6.18392E-01 -3.16043E-01
    8989.354     -5.194   0.640  3.31473E-01  6.37697E-01 -3.06224E-01
    8989.555     -4.993   0.680  3.68779E-01  6.56117E-01 -2.87338E-01
    8989.769     -4.780   0.720  4.16835E-01  6.73755E-01 -2.56920E-01
    8989.994     -4.554   0.760  4.75480E-01  6.90754E-01 -2.15273E-01
    8990.232     -4.316   0.800  5.38668E-01  7.07142E-01 -1.68474E-01
    8990.482     -4.067   0.840  5.94462E-01  7.23018E-01 -1.28556E-01
    8990.744     -3.804   0.880  6.31918E-01  7.38440E-01 -1.06522E-01
    8991.018     -3.530   0.920  6.48986E-01  7.53455E-01 -1.04469E-01
    8991.305     -3.244   0.960  6.50346E-01  7.68074E-01 -1.17729E-01
    8991.603     -2.945   1.000  6.40969E-01  7.82316E-01 -1.41346E-01
    8991.914     -2.634   1.040  6.26228E-01  7.96169E-01 -1.69940E-01
    8992.237     -2.311   1.080  6.13866E-01  8.09678E-01 -1.95812E-01
    8992.573     -1.976   1.120  6.08042E-01  8.22797E-01 -2.14755E-01
    8992.920     -1.628   1.160  6.04762E-01  8.35516E-01 -2.30754E-01
    8993.280     -1.268   1.200  5.99576E-01  8.47821E-01 -2.48246E-01
    8993.652     -0.897   1.240  5.95327E-01  8.59717E-01 -2.64390E-01
    8994.036     -0.513   1.280  5.97833E-01  8.71185E-01 -2.73351E-01
    8994.432     -0.116   1.320  6.11378E-01  8.82185E-01 -2.70808E-01
    8994.840      0.292   1.360  6.41204E-01  8.92717E-01 -2.51513E-01
    8995.261      0.713   1.400  6.93065E-01  9.02780E-01 -2.09716E-01
    8995.694      1.146   1.440  7.63406E-01  9.12334E-01 -1.48928E-01
    8996.139      1.591   1.480  8.40629E-01  9.21400E-01 -8.07710E-02
    8996.596      2.048   1.520  9.26143E-01  9.29957E-01 -3.81306E-03
    8997.065      2.517   1.560  1.02962E+00  9.38008E-01  9.16136E-02
    8997.547      2.999   1.600  1.14905E+00  9.45535E-01  2.03519E-01
    8998.041      3.492   1.640  1.26143E+00  9.52561E-01  3.08864E-01
    8998.547      3.998   1.680  1.34055E+00  9.59094E-01  3.81451E-01
    8999.065      4.517   1.720  1.39303E+00  9.65117E-01  4.27913E-01
    8999.595      5.047   1.760  1.47857E+00  9.70655E-01  5.07916E-01
    9000.138      5.589   1.800  1.60043E+00  9.75720E-01  6.24707E-01
    9000.693      6.144   1.840  1.64194E+00  9.80339E-01  6.61603E-01
    9001.259      6.711   1.880  1.57210E+00  9.84499E-01  5.87602E-01
    9001.839      7.290   1.920  1.46885E+00  9.88254E-01  4.80596E-01
    9002.430      7.882   1.960  1.37027E+00  9.91570E-01  3.78700E-01
    9003.033      8.485   2.000  1.26353E+00  9.94519E-01  2.69013E-01
    9003.649      9.101   2.040  1.13494E+00  9.97093E-01  1.37843E-01
    9004.277      9.729   2.080  1.00678E+00  9.99324E-01  7.45614E-03
    9004.917     10.369   2.120  9.15442E-01  1.00122E+00 -8.57798E-02
    9005.569     11.021   2.160  8.73590E-01  1.00282E+00 -1.29230E-01
    9006.234     11.685   2.200  8.72973E-01  1.00415E+00 -1.31174E-01
    9006.910     12.362   2.240  9.02632E-01  1.00520E+00 -1.02563E-01
    9007.599     13.051   2.280  9.57076E-01  1.00602E+00 -4.89408E-02
    9008.300     13.752   2.320  1.03190E+00  1.00660E+00  2.52955E-02
    9009.014     14.465   2.360  1.10941E+00  1.00700E+00  1.02406E-01
    9009.739     15.191   2.400  1.15776E+00  1.00720E+00  1.50559E-01
    9010.477     15.928   2.440  1.16507E+00  1.00726E+00  1.57812E-01
    9011.226     16.678   2.480  1.15426E+00  1.00716E+00  1.47103E-01
    9011.988     17.440   2.520  1.15607E+00  1.00693E+00  1.49136E-01
    9012.763     18.214   2.560  1.16301E+00  1.00661E+00  1.56398E-01
    9013.549     19.001   2.600  1.15320E+00  1.00619E+00  1.47004E-01
    9014.348     19.799   2.640  1.11833E+00  1.00570E+00  1.12632E-01
    9015.158     20.610   2.680  1.07186E+00  1.00512E+00  6.67392E-02
    9015.981     21.433   2.720  1.02755E+00  1.00450E+00  2.30512E-02
    9016.816     22.268   2.760  9.88622E-01  1.00384E+00 -1.52157E-02
    9017.664     23.115   2.800  9.53290E-01  1.00316E+00 -4.98685E-02
    9018.523     23.975   2.840  9.21298E-01  1.00247E+00 -8.11716E-02
    9019.395     24.847   2.880  8.93757E-01  1.00175E+00 -1.07998E-01
    9020.279     25.731   2.920  8.71848E-01  1.00104E+00 -1.29192E-01
    9021.175     26.627   2.960  8.56686E-01  1.00035E+00 -1.43665E-01
    9022.083     27.535   3.000  8.48732E-01  9.99690E-01 -1.50959E-01
    9023.004     28.455   3.040  8.47696E-01  9.99039E-01 -1.51343E-01
    9023.937     29.388   3.080  8.52478E-01  9.98402E-01 -1.45924E-01
    9024.881     30.333   3.120  8.60943E-01  9.97823E-01 -1.36880E-01
    9025.838     31.290   3.160  8.69953E-01  9.97285E-01 -1.27332E-01
    9026.808     32.259   3.200  8.76671E-01  9.96789E-01 -1.20118E-01
    9027.789     33.241   3.240  8.79475E-01  9.96336E-01 -1.16861E-01
    9028.783     34.234   3.280  8.78411E-01  9.95950E-01 -1.17539E-01
    9029.789     35.240   3.320  8.75012E-01  9.95612E-01 -1.20600E-01
    9030.807     36.258   3.360  8.71572E-01  9.95320E-01 -1.23748E-01
    9031.837     37.289   3.400  8.70379E-01  9.95098E-01 -1.24719E-01
    9032.879     38.331   3.440  8.72757E-01  9.94947E-01 -1.22190E-01
    9033.934     39.386   3.480  8.79364E-01  9.94845E-01 -1.15481E-01
    9035.001     40.452   3.520  8.90184E-01  9.94791E-01 -1.04607E-01
    9036.080     41.531   3.560  9.04657E-01  9.94808E-01 -9.01504E-02
    9037.171     42.623   3.600  9.22024E-01  9.94874E-01 -7.28502E-02
    9038.274     43.726   3.640  9.41550E-01  9.95009E-01 -5.34590E-02
    9039.390     44.841   3.680  9.62340E-01  9.95213E-01 -3.28728E-02
    9040.518     45.969   3.720  9.83239E-01  9.95444E-01 -1.22043E-02
    9041.658     47.109   3.760  1.00305E+00  9.95741E-01  7.31057E-03
    9042.810     48.261   3.800  1.02007E+00  9.96105E-01  2.39654E-02
    9043.974     49.426   3.840  1.03241E+00  9.96491E-01  3.59231E-02
    9045.151     50.602   3.880  1.03941E+00  9.96940E-01  4.24725E-02
    9046.339     51.791   3.920  1.04200E+00  9.97409E-01  4.45927E-02
    9047.540     52.992   3.960  1.04255E+00  9.97938E-01  4.46144E-02
    9048.753     54.205   4.000  1.04382E+00  9.98506E-01  4.53104E-02
    9049.979     55.430   4.040  1.04808E+00  9.99088E-01  4.89930E-02
    9051.216     56.668   4.080  1.05678E+00  9.99704E-01  5.70784E-02
    9052.466     57.917   4.120  1.07017E+00  1.00035E+00  6.98201E-02
    9053.728     59.179   4.160  1.08747E+00  1.00101E+00  8.64604E-02
    9055.002     60.453   4.200  1.10675E+00  1.00170E+00  1.05054E-01
    9056.288     61.739   4.240  1.12524E+00  1.00239E+00  1.22850E-01
    9057.586     63.038   4.280  1.14024E+00  1.00311E+00  1.37128E-01
    9058.897     64.349   4.320  1.14981E+00  1.00382E+00  1.45998E-01
    9060.220     65.671   4.360  1.15316E+00  1.00454E+00  1.48625E-01
    9061.555     67.006   4.400  1.15014E+00  1.00526E+00  1.44877E-01
    9062.902     68.354   4.440  1.14103E+00  1.00595E+00  1.35081E-01
    9064.261     69.713   4.480  1.12659E+00  1.00664E+00  1.19945E-01
    9065.633     71.085   4.520  1.10806E+00  1.00732E+00  1.00735E-01
    9067.017     72.468   4.560  1.08704E+00  1.00800E+00  7.90363E-02
    9068.413     73.864   4.600  1.06486E+00  1.00864E+00  5.62165E-02
    9069.821     75.273   4.640  1.04243E+00  1.00928E+00  3.31509E-02
    9071.241     76.693   4.680  1.02027E+00  1.00987E+00  1.03990E-02
    9072.674     78.125   4.720  9.98989E-01  1.01043E+00 -1.14420E-02
    9074.119     79.570   4.760  9.79493E-01  1.01095E+00 -3.14594E-02
    9075.576     81.027   4.800  9.62957E-01  1.01146E+00 -4.84985E-02
    9077.045     82.496   4.840  9.50267E-01  1.01190E+00 -6.16303E-02
    9078.526     83.978   4.880  9.41727E-01  1.01232E+00 -7.05922E-02
    9080.019     85.471   4.920  9.36698E-01  1.01270E+00 -7.60023E-02
    9081.525     86.977   4.960  9.34056E-01  1.01302E+00 -7.89597E-02
    9083.043     88.495   5.000  9.32930E-01  1.01331E+00 -8.03792E-02
    9084.573     90.025   5.040  9.32831E-01  1.01354E+00 -8.07050E-02
    9086.115     91.567   5.080  9.33782E-01  1.01372E+00 -7.99366E-02
    9087.670     93.122   5.120  9.36096E-01  1.01386E+00 -7.77603E-02
    9089.237     94.688   5.160  9.40112E-01  1.01395E+00 -7.38403E-02
    9090.815     96.267   5.200  9.45725E-01  1.01400E+00 -6.82792E-02
    9092.407     97.858   5.240  9.52140E-01  1.01401E+00 -6.18708E-02
    9094.010     99.461   5.280  9.58248E-01  1.01395E+00 -5.57037E-02
    9095.625    101.077   5.320  9.63430E-01  1.01387E+00 -5.04385E-02
    9097.253    102.704   5.360  9.67853E-01  1.01372E+00 -4.58660E-02
    9098.893    104.344   5.400  9.72377E-01  1.01353E+00 -4.11497E-02
    9100.545    105.996   5.440  9.78039E-01  1.01329E+00 -3.52517E-02
    9102.209    107.660   5.480  9.85826E-01  1.01301E+00 -2.71862E-02
    9103.885    109.337   5.520  9.96502E-01  1.01269E+00 -1.61910E-02
    9105.574    111.025   5.560  1.01024E+00  1.01233E+00 -2.09664E-03
    9107.275    112.726   5.600  1.02624E+00  1.01193E+00  1.43054E-02
    9108.988    114.439   5.640  1.04232E+00  1.01149E+00  3.08325E-02
    9110.713    116.164   5.680  1.05520E+00  1.01102E+00  4.41886E-02
    9112.450    117.902   5.720  1.06200E+00  1.01053E+00  5.14764E-02
    9114.200    119.651   5.760  1.06205E+00  1.01000E+00  5.20463E-02
    9115.961    121.413   5.800  1.05716E+00  1.00945E+00  4.77069E-02
    9117.735    123.187   5.840  1.05023E+00  1.00889E+00  4.13408E-02
    9119.521    124.973   5.880  1.04370E+00  1.00829E+00  3.54112E-02
    9121.320    126.771   5.920  1.03856E+00  1.00768E+00  3.08853E-02
    9123.130    128.582   5.960  1.03390E+00  1.00706E+00  2.68416E-02
    9124.953    130.405   6.000  1.02752E+00  1.00644E+00  2.10826E-02
