# # comment:                                                     FEFF 9.9.1  
# # Source:
# # Structure
# # Reduced
# # space
# # abc:
# # angles:100.010332
# # sites:
# # POT  SCF 100  7.0000   0, screened core-hole, AFOLP (folp(0)= 1.150)
# # Abs   Z=29 Rmt= 1.146 Rnm= 1.243 K  shell
# # Pot 1 Z=57 Rmt= 1.755 Rnm= 1.831
# # Pot 2 Z=29 Rmt= 1.173 Rnm= 1.260
# # Pot 3 Z= 8 Rmt= 1.056 Rnm= 1.105
# # Gam_ch=1.729E+00 H-L exch Vi= 0.000E+00 Vr= 0.000E+00
# # Mu=-8.426E+00eV kf=2.031E+00 Vint=-1.867E+01eV Rs_int= 1.786
# FMS rfms= 9.0000
# # PATH  Rmax=-1.000,  Keep_limit= 0.00, Heap_limit 0.00  Pwcrit= 2.50%
#  S02=0.950  Temp=   0.00  Debye_temp=   0.00  Global_sig2= 0.00000
#  Energy zero shift, vr, vi    0.00000E+00   0.00000E+00
#  Curved wave amplitude ratio filter   4.000%
#     file         sig2 tot  cw amp ratio   deg  nlegs   reff  inp sig2
#     0/   0 paths used
#  xsedge+ 50, used to normalize mu           2.4451E-04
#  -----------------------------------------------------------------------
#  omega    e    k    mu    mu0     chi     @#
    8985.453    -12.236  -1.000  3.81224E-02  5.72316E-02 -1.91092E-02
    8985.752    -11.937  -0.960  4.00991E-02  6.14992E-02 -2.14002E-02
    8986.038    -11.651  -0.920  4.22333E-02  6.62516E-02 -2.40183E-02
    8986.312    -11.377  -0.880  4.45453E-02  7.15609E-02 -2.70156E-02
    8986.575    -11.115  -0.840  4.70589E-02  7.75115E-02 -3.04526E-02
    8986.825    -10.865  -0.800  4.98020E-02  8.42012E-02 -3.43992E-02
    8987.062    -10.627  -0.760  5.28070E-02  9.17422E-02 -3.89353E-02
    8987.288    -10.401  -0.720  5.61107E-02  1.00262E-01 -4.41510E-02
    8987.501    -10.188  -0.680  5.97544E-02  1.09900E-01 -5.01453E-02
    8987.702     -9.987  -0.640  6.37818E-02  1.20804E-01 -5.70227E-02
    8987.891     -9.798  -0.600  6.82362E-02  1.33122E-01 -6.48854E-02
    8988.068     -9.621  -0.560  7.31542E-02  1.46976E-01 -7.38217E-02
    8988.233     -9.456  -0.520  7.85563E-02  1.62442E-01 -8.38859E-02
    8988.385     -9.304  -0.480  8.44341E-02  1.79506E-01 -9.50717E-02
    8988.525     -9.164  -0.440  9.07344E-02  1.98016E-01 -1.07282E-01
    8988.653     -9.036  -0.400  9.73465E-02  2.17649E-01 -1.20302E-01
    8988.769     -8.920  -0.360  1.04099E-01  2.37891E-01 -1.33793E-01
    8988.873     -8.816  -0.320  1.10769E-01  2.58080E-01 -1.47311E-01
    8988.964     -8.725  -0.280  1.17116E-01  2.77478E-01 -1.60363E-01
    8989.043     -8.646  -0.240  1.22910E-01  2.95377E-01 -1.72467E-01
    8989.111     -8.579  -0.200  1.27970E-01  3.11187E-01 -1.83217E-01
    8989.165     -8.524  -0.160  1.32176E-01  3.24478E-01 -1.92301E-01
    8989.208     -8.481  -0.120  1.35466E-01  3.34977E-01 -1.99511E-01
    8989.239     -8.451  -0.080  1.37816E-01  3.42537E-01 -2.04722E-01
    8989.263     -8.426   0.000  1.39691E-01  3.48608E-01 -2.08917E-01
    8989.318     -8.371   0.120  1.43769E-01  3.62288E-01 -2.18519E-01
    8989.360     -8.329   0.160  1.46861E-01  3.72895E-01 -2.26034E-01
    8989.415     -8.274   0.200  1.50736E-01  3.86444E-01 -2.35708E-01
    8989.482     -8.207   0.240  1.55218E-01  4.02695E-01 -2.47477E-01
    8989.562     -8.127   0.280  1.60131E-01  4.21323E-01 -2.61192E-01
    8989.653     -8.036   0.320  1.65263E-01  4.41827E-01 -2.76565E-01
    8989.757     -7.932   0.360  1.70312E-01  4.63548E-01 -2.93236E-01
    8989.872     -7.817   0.400  1.75181E-01  4.85846E-01 -3.10665E-01
    8990.001     -7.689   0.440  1.79911E-01  5.08124E-01 -3.28213E-01
    8990.141     -7.548   0.480  1.84717E-01  5.29877E-01 -3.45160E-01
    8990.293     -7.396   0.520  1.90036E-01  5.50809E-01 -3.60772E-01
    8990.458     -7.231   0.560  1.96260E-01  5.70786E-01 -3.74526E-01
    8990.634     -7.055   0.600  2.03548E-01  5.89775E-01 -3.86227E-01
    8990.823     -6.866   0.640  2.11831E-01  6.07820E-01 -3.95989E-01
    8991.025     -6.664   0.680  2.21176E-01  6.25032E-01 -4.03855E-01
    8991.238     -6.451   0.720  2.32057E-01  6.41513E-01 -4.09456E-01
    8991.464     -6.226   0.760  2.45241E-01  6.57372E-01 -4.12131E-01
    8991.701     -5.988   0.800  2.61373E-01  6.72698E-01 -4.11326E-01
    8991.951     -5.738   0.840  2.80149E-01  6.87573E-01 -4.07424E-01
    8992.213     -5.476   0.880  2.99538E-01  7.02083E-01 -4.02545E-01
    8992.488     -5.201   0.920  3.16166E-01  7.16274E-01 -4.00108E-01
    8992.774     -4.915   0.960  3.28269E-01  7.30165E-01 -4.01896E-01
    8993.073     -4.616   1.000  3.38158E-01  7.43800E-01 -4.05642E-01
    8993.384     -4.305   1.040  3.49805E-01  7.57191E-01 -4.07386E-01
    8993.707     -3.982   1.080  3.65699E-01  7.70325E-01 -4.04625E-01
    8994.042     -3.647   1.120  3.87320E-01  7.83241E-01 -3.95921E-01
    8994.390     -3.299   1.160  4.17074E-01  7.95891E-01 -3.78817E-01
    8994.749     -2.940   1.200  4.59510E-01  8.08285E-01 -3.48775E-01
    8995.121     -2.568   1.240  5.20094E-01  8.20427E-01 -3.00333E-01
    8995.505     -2.184   1.280  6.03390E-01  8.32258E-01 -2.28868E-01
    8995.901     -1.788   1.320  7.11962E-01  8.43799E-01 -1.31837E-01
    8996.310     -1.379   1.360  8.47134E-01  8.55029E-01 -7.89504E-03
    8996.730     -0.959   1.400  1.00800E+00  8.65925E-01  1.42073E-01
    8997.163     -0.526   1.440  1.16437E+00  8.76442E-01  2.87924E-01
    8997.608     -0.081   1.480  1.22894E+00  8.86618E-01  3.42317E-01
    8998.065      0.376   1.520  1.16027E+00  8.96411E-01  2.63859E-01
    8998.535      0.846   1.560  1.03708E+00  9.05795E-01  1.31289E-01
    8999.016      1.327   1.600  9.39693E-01  9.14766E-01  2.49266E-02
    8999.510      1.821   1.640  9.01675E-01  9.23347E-01 -2.16719E-02
    9000.016      2.327   1.680  9.32413E-01  9.31492E-01  9.20358E-04
    9000.534      2.845   1.720  1.02716E+00  9.39202E-01  8.79552E-02
    9001.065      3.376   1.760  1.16126E+00  9.46476E-01  2.14789E-01
    9001.607      3.918   1.800  1.27871E+00  9.53335E-01  3.25372E-01
    9002.162      4.473   1.840  1.32304E+00  9.59742E-01  3.63299E-01
    9002.729      5.040   1.880  1.29736E+00  9.65740E-01  3.31624E-01
    9003.308      5.619   1.920  1.24773E+00  9.71289E-01  2.76442E-01
    9003.899      6.210   1.960  1.19997E+00  9.76437E-01  2.23534E-01
    9004.503      6.814   2.000  1.16101E+00  9.81168E-01  1.79837E-01
    9005.119      7.429   2.040  1.14602E+00  9.85508E-01  1.60510E-01
    9005.746      8.057   2.080  1.15698E+00  9.89463E-01  1.67516E-01
    9006.386      8.697   2.120  1.18297E+00  9.93040E-01  1.89935E-01
    9007.039      9.350   2.160  1.21062E+00  9.96244E-01  2.14380E-01
    9007.703     10.014   2.200  1.22640E+00  9.99105E-01  2.27291E-01
    9008.380     10.691   2.240  1.22302E+00  1.00163E+00  2.21394E-01
    9009.069     11.380   2.280  1.19983E+00  1.00383E+00  1.96004E-01
    9009.770     12.081   2.320  1.15889E+00  1.00573E+00  1.53162E-01
    9010.483     12.794   2.360  1.10950E+00  1.00736E+00  1.02144E-01
    9011.208     13.519   2.400  1.06962E+00  1.00870E+00  6.09131E-02
    9011.946     14.257   2.440  1.05617E+00  1.00980E+00  4.63743E-02
    9012.696     15.007   2.480  1.06633E+00  1.01065E+00  5.56832E-02
    9013.458     15.769   2.520  1.07973E+00  1.01129E+00  6.84459E-02
    9014.232     16.543   2.560  1.09024E+00  1.01173E+00  7.85103E-02
    9015.018     17.329   2.600  1.09655E+00  1.01196E+00  8.45808E-02
    9015.817     18.128   2.640  1.09869E+00  1.01205E+00  8.66447E-02
    9016.628     18.939   2.680  1.09713E+00  1.01197E+00  8.51608E-02
    9017.451     19.762   2.720  1.09240E+00  1.01175E+00  8.06452E-02
    9018.286     20.597   2.760  1.08454E+00  1.01141E+00  7.31245E-02
    9019.133     21.444   2.800  1.07295E+00  1.01095E+00  6.19979E-02
    9019.993     22.304   2.840  1.05710E+00  1.01040E+00  4.67053E-02
    9020.864     23.175   2.880  1.03750E+00  1.00974E+00  2.77660E-02
    9021.748     24.059   2.920  1.01541E+00  1.00902E+00  6.39362E-03
    9022.644     24.955   2.960  9.92153E-01  1.00825E+00 -1.60967E-02
    9023.553     25.864   3.000  9.69313E-01  1.00743E+00 -3.81197E-02
    9024.473     26.784   3.040  9.48466E-01  1.00655E+00 -5.80858E-02
    9025.406     27.717   3.080  9.30584E-01  1.00566E+00 -7.50718E-02
    9026.351     28.662   3.120  9.16079E-01  1.00475E+00 -8.86700E-02
    9027.308     29.619   3.160  9.04666E-01  1.00381E+00 -9.91480E-02
    9028.277     30.588   3.200  8.95874E-01  1.00288E+00 -1.07003E-01
    9029.259     31.570   3.240  8.89601E-01  1.00196E+00 -1.12362E-01
    9030.252     32.563   3.280  8.85856E-01  1.00105E+00 -1.15196E-01
    9031.258     33.569   3.320  8.84642E-01  1.00015E+00 -1.15507E-01
    9032.276     34.587   3.360  8.85761E-01  9.99279E-01 -1.13518E-01
    9033.306     35.617   3.400  8.88631E-01  9.98445E-01 -1.09814E-01
    9034.349     36.660   3.440  8.92085E-01  9.97648E-01 -1.05564E-01
    9035.403     37.714   3.480  8.95181E-01  9.96892E-01 -1.01710E-01
    9036.470     38.781   3.520  8.97467E-01  9.96176E-01 -9.87096E-02
    9037.549     39.860   3.560  8.99147E-01  9.95503E-01 -9.63563E-02
    9038.640     40.951   3.600  9.00824E-01  9.94895E-01 -9.40708E-02
    9039.744     42.055   3.640  9.03288E-01  9.94313E-01 -9.10253E-02
    9040.859     43.170   3.680  9.07198E-01  9.93820E-01 -8.66227E-02
    9041.987     44.298   3.720  9.12466E-01  9.93356E-01 -8.08902E-02
    9043.127     45.438   3.760  9.18823E-01  9.92982E-01 -7.41597E-02
    9044.279     46.590   3.800  9.25941E-01  9.92639E-01 -6.66983E-02
    9045.443     47.754   3.840  9.33768E-01  9.92386E-01 -5.86187E-02
    9046.620     48.931   3.880  9.42269E-01  9.92184E-01 -4.99147E-02
    9047.809     50.120   3.920  9.51636E-01  9.92033E-01 -4.03965E-02
    9049.010     51.320   3.960  9.62012E-01  9.91951E-01 -2.99389E-02
    9050.223     52.534   4.000  9.73285E-01  9.91919E-01 -1.86334E-02
    9051.448     53.759   4.040  9.85059E-01  9.91960E-01 -6.90071E-03
    9052.685     54.996   4.080  9.96644E-01  9.92071E-01  4.57274E-03
    9053.935     56.246   4.120  1.00708E+00  9.92232E-01  1.48460E-02
    9055.197     57.508   4.160  1.01557E+00  9.92440E-01  2.31331E-02
    9056.471     58.782   4.200  1.02193E+00  9.92715E-01  2.92097E-02
    9057.757     60.068   4.240  1.02652E+00  9.93037E-01  3.34851E-02
    9059.056     61.367   4.280  1.03009E+00  9.93403E-01  3.66838E-02
    9060.366     62.677   4.320  1.03342E+00  9.93834E-01  3.95863E-02
    9061.689     64.000   4.360  1.03714E+00  9.94286E-01  4.28591E-02
    9063.024     65.335   4.400  1.04157E+00  9.94801E-01  4.67717E-02
    9064.371     66.682   4.440  1.04654E+00  9.95355E-01  5.11847E-02
    9065.731     68.042   4.480  1.05154E+00  9.95924E-01  5.56176E-02
    9067.102     69.413   4.520  1.05621E+00  9.96531E-01  5.96781E-02
    9068.486     70.797   4.560  1.06062E+00  9.97194E-01  6.34267E-02
    9069.882     72.193   4.600  1.06513E+00  9.97848E-01  6.72870E-02
    9071.290     73.601   4.640  1.07022E+00  9.98553E-01  7.16683E-02
    9072.711     75.022   4.680  1.07593E+00  9.99244E-01  7.66839E-02
    9074.143     76.454   4.720  1.08199E+00  9.99963E-01  8.20301E-02
    9075.588     77.899   4.760  1.08767E+00  1.00071E+00  8.69567E-02
    9077.045     79.356   4.800  1.09191E+00  1.00144E+00  9.04721E-02
    9078.514     80.825   4.840  1.09369E+00  1.00218E+00  9.15056E-02
    9079.995     82.306   4.880  1.09199E+00  1.00291E+00  8.90774E-02
    9081.489     83.800   4.920  1.08627E+00  1.00366E+00  8.26114E-02
    9082.995     85.306   4.960  1.07662E+00  1.00438E+00  7.22398E-02
    9084.513     86.823   5.000  1.06392E+00  1.00509E+00  5.88307E-02
    9086.043     88.354   5.040  1.04945E+00  1.00580E+00  4.36565E-02
    9087.585     89.896   5.080  1.03434E+00  1.00647E+00  2.78709E-02
    9089.139     91.450   5.120  1.01956E+00  1.00713E+00  1.24242E-02
    9090.706     93.017   5.160  1.00596E+00  1.00776E+00 -1.80235E-03
    9092.285     94.596   5.200  9.94513E-01  1.00835E+00 -1.38394E-02
    9093.876     96.187   5.240  9.86030E-01  1.00891E+00 -2.28751E-02
    9095.479     97.790   5.280  9.80771E-01  1.00944E+00 -2.86714E-02
    9097.095     99.406   5.320  9.78264E-01  1.00994E+00 -3.16756E-02
    9098.722    101.033   5.360  9.77623E-01  1.01037E+00 -3.27508E-02
    9100.362    102.673   5.400  9.77916E-01  1.01079E+00 -3.28706E-02
    9102.014    104.325   5.440  9.78070E-01  1.01113E+00 -3.30647E-02
    9103.678    105.989   5.480  9.77120E-01  1.01146E+00 -3.43416E-02
    9105.355    107.666   5.520  9.74479E-01  1.01172E+00 -3.72430E-02
    9107.043    109.354   5.560  9.70523E-01  1.01194E+00 -4.14119E-02
    9108.744    111.055   5.600  9.66183E-01  1.01208E+00 -4.58971E-02
    9110.457    112.768   5.640  9.62349E-01  1.01220E+00 -4.98538E-02
    9112.182    114.493   5.680  9.59267E-01  1.01226E+00 -5.29915E-02
    9113.919    116.230   5.720  9.56728E-01  1.01227E+00 -5.55367E-02
    9115.669    117.980   5.760  9.54381E-01  1.01220E+00 -5.78209E-02
    9117.431    119.742   5.800  9.52235E-01  1.01209E+00 -5.98600E-02
    9119.205    121.516   5.840  9.50777E-01  1.01194E+00 -6.11676E-02
    9120.991    123.302   5.880  9.50773E-01  1.01175E+00 -6.09771E-02
    9122.789    125.100   5.920  9.52724E-01  1.01149E+00 -5.87623E-02
    9124.600    126.911   5.960  9.56635E-01  1.01117E+00 -5.45386E-02
    9126.422    128.733   6.000  9.62120E-01  1.01075E+00 -4.86287E-02
