# # comment:                                                     FEFF 9.9.1  
# # Source:
# # Structure
# # Reduced
# # space
# # abc:
# # angles:111.439692
# # sites:
# # POT  SCF 100  7.0000   0, screened core-hole, AFOLP (folp(0)= 1.150)
# # Abs   Z=29 Rmt= 1.200 Rnm= 1.293 K  shell
# # Pot 1 Z=29 Rmt= 1.203 Rnm= 1.295
# # Pot 2 Z=15 Rmt= 0.940 Rnm= 1.156
# # Pot 3 Z= 8 Rmt= 0.884 Rnm= 1.043
# # Gam_ch=1.729E+00 H-L exch Vi= 0.000E+00 Vr= 0.000E+00
# # Mu=-6.665E+00eV kf=2.488E+00 Vint=-1.719E+01eV Rs_int= 1.458
# FMS rfms= 9.0000
# # PATH  Rmax=-1.000,  Keep_limit= 0.00, Heap_limit 0.00  Pwcrit= 2.50%
#  S02=0.950  Temp=   0.00  Debye_temp=   0.00  Global_sig2= 0.00000
#  Energy zero shift, vr, vi    0.00000E+00   0.00000E+00
#  Curved wave amplitude ratio filter   4.000%
#     file         sig2 tot  cw amp ratio   deg  nlegs   reff  inp sig2
#     0/   0 paths used
#  xsedge+ 50, used to normalize mu           2.4849E-04
#  -----------------------------------------------------------------------
#  omega    e    k    mu    mu0     chi     @#
    8983.339    -10.475  -1.000  4.10854E-02  5.20125E-02 -1.09271E-02
    8983.637    -10.176  -0.960  4.36995E-02  5.57942E-02 -1.20947E-02
    8983.924     -9.889  -0.920  4.65817E-02  5.99995E-02 -1.34178E-02
    8984.198     -9.615  -0.880  4.97697E-02  6.46915E-02 -1.49218E-02
    8984.460     -9.353  -0.840  5.33070E-02  6.99433E-02 -1.66364E-02
    8984.710     -9.103  -0.800  5.72431E-02  7.58401E-02 -1.85970E-02
    8984.948     -8.865  -0.760  6.16341E-02  8.24794E-02 -2.08453E-02
    8985.173     -8.640  -0.720  6.65425E-02  8.99717E-02 -2.34292E-02
    8985.387     -8.426  -0.680  7.20358E-02  9.84387E-02 -2.64029E-02
    8985.588     -8.225  -0.640  7.81839E-02  1.08009E-01 -2.98251E-02
    8985.777     -8.036  -0.600  8.50547E-02  1.18809E-01 -3.37546E-02
    8985.954     -7.859  -0.560  9.27055E-02  1.30948E-01 -3.82421E-02
    8986.118     -7.695  -0.520  1.01171E-01  1.44489E-01 -4.33173E-02
    8986.271     -7.542  -0.480  1.10449E-01  1.59419E-01 -4.89702E-02
    8986.411     -7.402  -0.440  1.20478E-01  1.75608E-01 -5.51302E-02
    8986.539     -7.274  -0.400  1.31122E-01  1.92771E-01 -6.16492E-02
    8986.655     -7.158  -0.360  1.42162E-01  2.10462E-01 -6.83007E-02
    8986.758     -7.055  -0.320  1.53302E-01  2.28104E-01 -7.48022E-02
    8986.850     -6.963  -0.280  1.64190E-01  2.45052E-01 -8.08620E-02
    8986.929     -6.884  -0.240  1.74458E-01  2.60691E-01 -8.62328E-02
    8986.996     -6.817  -0.200  1.83753E-01  2.74504E-01 -9.07516E-02
    8987.051     -6.762  -0.160  1.91769E-01  2.86118E-01 -9.43492E-02
    8987.094     -6.719  -0.120  1.98262E-01  2.95294E-01 -9.70315E-02
    8987.124     -6.689  -0.080  2.03052E-01  3.01901E-01 -9.88486E-02
    8987.149     -6.665   0.000  2.07029E-01  3.07207E-01 -1.00179E-01
    8987.203     -6.610   0.120  2.15774E-01  3.19156E-01 -1.03382E-01
    8987.246     -6.567   0.160  2.22737E-01  3.28449E-01 -1.05712E-01
    8987.301     -6.512   0.200  2.31847E-01  3.40287E-01 -1.08440E-01
    8987.368     -6.445   0.240  2.43231E-01  3.54517E-01 -1.11286E-01
    8987.447     -6.366   0.280  2.56909E-01  3.70820E-01 -1.13911E-01
    8987.539     -6.274   0.320  2.72857E-01  3.88781E-01 -1.15924E-01
    8987.642     -6.171   0.360  2.90804E-01  4.07824E-01 -1.17020E-01
    8987.758     -6.055   0.400  3.10233E-01  4.27418E-01 -1.17185E-01
    8987.886     -5.927   0.440  3.30147E-01  4.46985E-01 -1.16838E-01
    8988.026     -5.787   0.480  3.49138E-01  4.66164E-01 -1.17026E-01
    8988.179     -5.634   0.520  3.65405E-01  4.84681E-01 -1.19275E-01
    8988.343     -5.470   0.560  3.77232E-01  5.02399E-01 -1.25167E-01
    8988.520     -5.293   0.600  3.83673E-01  5.19329E-01 -1.35656E-01
    8988.709     -5.104   0.640  3.85046E-01  5.35472E-01 -1.50426E-01
    8988.910     -4.903   0.680  3.83220E-01  5.50965E-01 -1.67745E-01
    8989.124     -4.689   0.720  3.80607E-01  5.65880E-01 -1.85273E-01
    8989.349     -4.464   0.760  3.79033E-01  5.80347E-01 -2.01314E-01
    8989.587     -4.226   0.800  3.78923E-01  5.94409E-01 -2.15485E-01
    8989.837     -3.976   0.840  3.80189E-01  6.08174E-01 -2.27985E-01
    8990.099     -3.714   0.880  3.83071E-01  6.21720E-01 -2.38649E-01
    8990.373     -3.440   0.920  3.88082E-01  6.35069E-01 -2.46988E-01
    8990.660     -3.153   0.960  3.95447E-01  6.48253E-01 -2.52806E-01
    8990.959     -2.855   1.000  4.04462E-01  6.61311E-01 -2.56849E-01
    8991.269     -2.544   1.040  4.12653E-01  6.74277E-01 -2.61624E-01
    8991.593     -2.221   1.080  4.17061E-01  6.87134E-01 -2.70073E-01
    8991.928     -1.885   1.120  4.18707E-01  6.99880E-01 -2.81172E-01
    8992.275     -1.538   1.160  4.22421E-01  7.12547E-01 -2.90127E-01
    8992.635     -1.178   1.200  4.31631E-01  7.25084E-01 -2.93454E-01
    8993.007     -0.806   1.240  4.46620E-01  7.37516E-01 -2.90896E-01
    8993.391     -0.422   1.280  4.65628E-01  7.49802E-01 -2.84174E-01
    8993.787     -0.026   1.320  4.86448E-01  7.61943E-01 -2.75495E-01
    8994.196      0.382   1.360  5.07886E-01  7.73917E-01 -2.66032E-01
    8994.616      0.803   1.400  5.28999E-01  7.85699E-01 -2.56700E-01
    8995.049      1.236   1.440  5.47811E-01  7.97284E-01 -2.49473E-01
    8995.494      1.681   1.480  5.66758E-01  8.08627E-01 -2.41869E-01
    8995.951      2.138   1.520  5.95555E-01  8.19742E-01 -2.24187E-01
    8996.421      2.607   1.560  6.39608E-01  8.30603E-01 -1.90995E-01
    8996.902      3.089   1.600  6.94948E-01  8.41163E-01 -1.46215E-01
    8997.396      3.583   1.640  7.58385E-01  8.51436E-01 -9.30512E-02
    8997.902      4.089   1.680  8.25561E-01  8.61418E-01 -3.58566E-02
    8998.420      4.607   1.720  8.89012E-01  8.71041E-01  1.79706E-02
    8998.950      5.137   1.760  9.49102E-01  8.80363E-01  6.87386E-02
    8999.493      5.680   1.800  1.01018E+00  8.89317E-01  1.20860E-01
    9000.048      6.235   1.840  1.07672E+00  8.97901E-01  1.78820E-01
    9000.615      6.801   1.880  1.15227E+00  9.06154E-01  2.46113E-01
    9001.194      7.381   1.920  1.22494E+00  9.14010E-01  3.10926E-01
    9001.785      7.972   1.960  1.26655E+00  9.21511E-01  3.45041E-01
    9002.389      8.575   2.000  1.26659E+00  9.28614E-01  3.37973E-01
    9003.004      9.191   2.040  1.24300E+00  9.35340E-01  3.07656E-01
    9003.632      9.819   2.080  1.21359E+00  9.41712E-01  2.71878E-01
    9004.272     10.459   2.120  1.18723E+00  9.47690E-01  2.39543E-01
    9004.924     11.111   2.160  1.17044E+00  9.53297E-01  2.17147E-01
    9005.589     11.776   2.200  1.16660E+00  9.58554E-01  2.08046E-01
    9006.266     12.452   2.240  1.17078E+00  9.63446E-01  2.07337E-01
    9006.954     13.141   2.280  1.17580E+00  9.67977E-01  2.07824E-01
    9007.655     13.842   2.320  1.17856E+00  9.72169E-01  2.06387E-01
    9008.369     14.556   2.360  1.17854E+00  9.76009E-01  2.02529E-01
    9009.094     15.281   2.400  1.17635E+00  9.79543E-01  1.96806E-01
    9009.832     16.019   2.440  1.17130E+00  9.82755E-01  1.88548E-01
    9010.582     16.768   2.480  1.16416E+00  9.85672E-01  1.78484E-01
    9011.343     17.530   2.520  1.15823E+00  9.88281E-01  1.69945E-01
    9012.118     18.305   2.560  1.15379E+00  9.90628E-01  1.63166E-01
    9012.904     19.091   2.600  1.14752E+00  9.92718E-01  1.54803E-01
    9013.703     19.890   2.640  1.13598E+00  9.94539E-01  1.41442E-01
    9014.513     20.700   2.680  1.11986E+00  9.96116E-01  1.23748E-01
    9015.336     21.523   2.720  1.10372E+00  9.97477E-01  1.06245E-01
    9016.172     22.358   2.760  1.09163E+00  9.98629E-01  9.30006E-02
    9017.019     23.206   2.800  1.08285E+00  9.99557E-01  8.32974E-02
    9017.878     24.065   2.840  1.07223E+00  1.00031E+00  7.19188E-02
    9018.750     24.937   2.880  1.05274E+00  1.00089E+00  5.18411E-02
    9019.634     25.821   2.920  1.02573E+00  1.00132E+00  2.44149E-02
    9020.530     26.717   2.960  9.96565E-01  1.00160E+00 -5.03772E-03
    9021.438     27.625   3.000  9.68575E-01  1.00174E+00 -3.31624E-02
    9022.359     28.546   3.040  9.43143E-01  1.00175E+00 -5.86030E-02
    9023.292     29.479   3.080  9.20070E-01  1.00164E+00 -8.15670E-02
    9024.236     30.423   3.120  8.99185E-01  1.00144E+00 -1.02251E-01
    9025.194     31.380   3.160  8.80825E-01  1.00113E+00 -1.20301E-01
    9026.163     32.350   3.200  8.65345E-01  1.00075E+00 -1.35409E-01
    9027.144     33.331   3.240  8.52957E-01  1.00030E+00 -1.47346E-01
    9028.138     34.325   3.280  8.44194E-01  9.99781E-01 -1.55587E-01
    9029.144     35.331   3.320  8.38923E-01  9.99210E-01 -1.60287E-01
    9030.162     36.349   3.360  8.36951E-01  9.98595E-01 -1.61643E-01
    9031.192     37.379   3.400  8.38177E-01  9.97941E-01 -1.59765E-01
    9032.234     38.421   3.440  8.42293E-01  9.97271E-01 -1.54978E-01
    9033.289     39.476   3.480  8.48686E-01  9.96569E-01 -1.47882E-01
    9034.356     40.543   3.520  8.56786E-01  9.95837E-01 -1.39052E-01
    9035.435     41.622   3.560  8.66295E-01  9.95120E-01 -1.28825E-01
    9036.526     42.713   3.600  8.76611E-01  9.94379E-01 -1.17768E-01
    9037.629     43.816   3.640  8.87533E-01  9.93638E-01 -1.06105E-01
    9038.745     44.932   3.680  8.98884E-01  9.92921E-01 -9.40371E-02
    9039.873     46.060   3.720  9.10414E-01  9.92211E-01 -8.17964E-02
    9041.013     47.200   3.760  9.21958E-01  9.91527E-01 -6.95687E-02
    9042.165     48.352   3.800  9.33473E-01  9.90852E-01 -5.73787E-02
    9043.329     49.516   3.840  9.45018E-01  9.90187E-01 -4.51687E-02
    9044.506     50.692   3.880  9.56695E-01  9.89576E-01 -3.28814E-02
    9045.694     51.881   3.920  9.68602E-01  9.88979E-01 -2.03775E-02
    9046.895     53.082   3.960  9.80793E-01  9.88417E-01 -7.62358E-03
    9048.108     54.295   4.000  9.93036E-01  9.87890E-01  5.14599E-03
    9049.334     55.521   4.040  1.00489E+00  9.87380E-01  1.75147E-02
    9050.571     56.758   4.080  1.01588E+00  9.86928E-01  2.89552E-02
    9051.821     58.008   4.120  1.02544E+00  9.86515E-01  3.89279E-02
    9053.083     59.270   4.160  1.03330E+00  9.86121E-01  4.71821E-02
    9054.357     60.544   4.200  1.03966E+00  9.85787E-01  5.38774E-02
    9055.643     61.830   4.240  1.04491E+00  9.85492E-01  5.94226E-02
    9056.941     63.128   4.280  1.04945E+00  9.85216E-01  6.42389E-02
    9058.252     64.439   4.320  1.05365E+00  9.85001E-01  6.86450E-02
    9059.575     65.762   4.360  1.05745E+00  9.84826E-01  7.26245E-02
    9060.910     67.097   4.400  1.06059E+00  9.84691E-01  7.58979E-02
    9062.257     68.444   4.440  1.06275E+00  9.84593E-01  7.81539E-02
    9063.616     69.803   4.480  1.06365E+00  9.84512E-01  7.91365E-02
    9064.988     71.175   4.520  1.06315E+00  9.84490E-01  7.86590E-02
    9066.372     72.559   4.560  1.06114E+00  9.84506E-01  7.66353E-02
    9067.768     73.955   4.600  1.05758E+00  9.84536E-01  7.30467E-02
    9069.176     75.363   4.640  1.05250E+00  9.84602E-01  6.78998E-02
    9070.596     76.783   4.680  1.04609E+00  9.84704E-01  6.13818E-02
    9072.029     78.216   4.720  1.03878E+00  9.84839E-01  5.39375E-02
    9073.474     79.661   4.760  1.03121E+00  9.84987E-01  4.62243E-02
    9074.931     81.118   4.800  1.02413E+00  9.85167E-01  3.89585E-02
    9076.400     82.587   4.840  1.01801E+00  9.85380E-01  3.26288E-02
    9077.881     84.068   4.880  1.01289E+00  9.85602E-01  2.72874E-02
    9079.375     85.561   4.920  1.00846E+00  9.85853E-01  2.26034E-02
    9080.880     87.067   4.960  1.00415E+00  9.86110E-01  1.80401E-02
    9082.398     88.585   5.000  9.99476E-01  9.86371E-01  1.31048E-02
    9083.928     90.115   5.040  9.94186E-01  9.86657E-01  7.52874E-03
    9085.471     91.657   5.080  9.88263E-01  9.86925E-01  1.33783E-03
    9087.025     93.212   5.120  9.82055E-01  9.87217E-01 -5.16159E-03
    9088.592     94.779   5.160  9.75989E-01  9.87509E-01 -1.15205E-02
    9090.171     96.357   5.200  9.70502E-01  9.87802E-01 -1.73001E-02
    9091.762     97.948   5.240  9.65916E-01  9.88094E-01 -2.21784E-02
    9093.365     99.552   5.280  9.62441E-01  9.88384E-01 -2.59428E-02
    9094.980    101.167   5.320  9.60262E-01  9.88670E-01 -2.84084E-02
    9096.608    102.795   5.360  9.59487E-01  9.88929E-01 -2.94413E-02
    9098.248    104.435   5.400  9.60134E-01  9.89181E-01 -2.90469E-02
    9099.900    106.087   5.440  9.61959E-01  9.89429E-01 -2.74702E-02
    9101.564    107.751   5.480  9.64447E-01  9.89670E-01 -2.52230E-02
    9103.240    109.427   5.520  9.66873E-01  9.89879E-01 -2.30056E-02
    9104.929    111.116   5.560  9.68533E-01  9.90056E-01 -2.15231E-02
    9106.630    112.817   5.600  9.68995E-01  9.90223E-01 -2.12288E-02
    9108.343    114.530   5.640  9.68175E-01  9.90380E-01 -2.22053E-02
    9110.068    116.255   5.680  9.66291E-01  9.90482E-01 -2.41918E-02
    9111.805    117.992   5.720  9.63860E-01  9.90594E-01 -2.67342E-02
    9113.555    119.742   5.760  9.61356E-01  9.90650E-01 -2.92941E-02
    9115.316    121.503   5.800  9.59342E-01  9.90693E-01 -3.13513E-02
    9117.090    123.277   5.840  9.58196E-01  9.90700E-01 -3.25044E-02
    9118.876    125.063   5.880  9.58088E-01  9.90670E-01 -3.25820E-02
    9120.675    126.862   5.920  9.58894E-01  9.90605E-01 -3.17105E-02
    9122.485    128.672   5.960  9.60328E-01  9.90527E-01 -3.01992E-02
    9124.308    130.495   6.000  9.62074E-01  9.90396E-01 -2.83228E-02
