# # comment:                                                     FEFF 9.9.1  
# # Source:
# # Structure
# # Reduced
# # space
# # abc:
# # angles:102.271148
# # sites:
# # POT  SCF 100  7.0000   0, screened core-hole, AFOLP (folp(0)= 1.150)
# # Abs   Z=29 Rmt= 1.167 Rnm= 1.273 K  shell
# # Pot 1 Z= 3 Rmt= 1.263 Rnm= 1.321
# # Pot 2 Z=26 Rmt= 1.208 Rnm= 1.350
# # Pot 3 Z=29 Rmt= 1.176 Rnm= 1.276
# # Pot 4 Z= 8 Rmt= 1.007 Rnm= 1.105
# # Gam_ch=1.729E+00 H-L exch Vi= 0.000E+00 Vr= 0.000E+00
# # Mu=-9.960E+00eV kf=2.113E+00 Vint=-1.697E+01eV Rs_int= 1.716
# FMS rfms= 9.0000
# # PATH  Rmax=-1.000,  Keep_limit= 0.00, Heap_limit 0.00  Pwcrit= 2.50%
#  S02=0.950  Temp=   0.00  Debye_temp=   0.00  Global_sig2= 0.00000
#  Energy zero shift, vr, vi    0.00000E+00   0.00000E+00
#  Curved wave amplitude ratio filter   4.000%
#     file         sig2 tot  cw amp ratio   deg  nlegs   reff  inp sig2
#     0/   0 paths used
#  xsedge+ 50, used to normalize mu           2.4539E-04
#  -----------------------------------------------------------------------
#  omega    e    k    mu    mu0     chi     @#
    8984.481    -13.769  -1.000  3.16231E-02  5.04722E-02 -1.88491E-02
    8984.780    -13.471  -0.960  3.30891E-02  5.39860E-02 -2.08968E-02
    8985.067    -13.184  -0.920  3.46652E-02  5.78753E-02 -2.32102E-02
    8985.341    -12.910  -0.880  3.63665E-02  6.21941E-02 -2.58276E-02
    8985.603    -12.648  -0.840  3.82115E-02  6.70046E-02 -2.87931E-02
    8985.853    -12.398  -0.800  4.02221E-02  7.23791E-02 -3.21570E-02
    8986.091    -12.160  -0.760  4.24243E-02  7.84002E-02 -3.59758E-02
    8986.316    -11.935  -0.720  4.48487E-02  8.51608E-02 -4.03122E-02
    8986.530    -11.721  -0.680  4.75297E-02  9.27633E-02 -4.52336E-02
    8986.731    -11.520  -0.640  5.05049E-02  1.01315E-01 -5.08101E-02
    8986.920    -11.331  -0.600  5.38124E-02  1.10921E-01 -5.71088E-02
    8987.097    -11.154  -0.560  5.74856E-02  1.21671E-01 -6.41853E-02
    8987.261    -10.990  -0.520  6.15449E-02  1.33616E-01 -7.20710E-02
    8987.414    -10.837  -0.480  6.59865E-02  1.46742E-01 -8.07551E-02
    8987.554    -10.697  -0.440  7.07686E-02  1.60934E-01 -9.01652E-02
    8987.682    -10.569  -0.400  7.58002E-02  1.75950E-01 -1.00149E-01
    8987.798    -10.453  -0.360  8.09375E-02  1.91409E-01 -1.10471E-01
    8987.901    -10.350  -0.320  8.59952E-02  2.06818E-01 -1.20823E-01
    8987.993    -10.258  -0.280  9.07725E-02  2.21627E-01 -1.30854E-01
    8988.072    -10.179  -0.240  9.50869E-02  2.35306E-01 -1.40219E-01
    8988.139    -10.112  -0.200  9.88026E-02  2.47407E-01 -1.48605E-01
    8988.194    -10.057  -0.160  1.01843E-01  2.57600E-01 -1.55757E-01
    8988.237    -10.014  -0.120  1.04183E-01  2.65668E-01 -1.61485E-01
    8988.267     -9.984  -0.080  1.05832E-01  2.71487E-01 -1.65655E-01
    8988.291     -9.960   0.000  1.07132E-01  2.76168E-01 -1.69037E-01
    8988.346     -9.905   0.120  1.09887E-01  2.86730E-01 -1.76843E-01
    8988.389     -9.862   0.160  1.11935E-01  2.94965E-01 -1.83029E-01
    8988.444     -9.807   0.200  1.14387E-01  3.05498E-01 -1.91111E-01
    8988.511     -9.740   0.240  1.17057E-01  3.18211E-01 -2.01154E-01
    8988.590     -9.661   0.280  1.19712E-01  3.32883E-01 -2.13171E-01
    8988.682     -9.569   0.320  1.22077E-01  3.49185E-01 -2.27107E-01
    8988.785     -9.466   0.360  1.23909E-01  3.66702E-01 -2.42793E-01
    8988.901     -9.350   0.400  1.24996E-01  3.84951E-01 -2.59955E-01
    8989.029     -9.222   0.440  1.25403E-01  4.03566E-01 -2.78163E-01
    8989.169     -9.082   0.480  1.25267E-01  4.22212E-01 -2.96945E-01
    8989.322     -8.929   0.520  1.24747E-01  4.40648E-01 -3.15901E-01
    8989.486     -8.765   0.560  1.24180E-01  4.58822E-01 -3.34641E-01
    8989.663     -8.588   0.600  1.23864E-01  4.76664E-01 -3.52800E-01
    8989.852     -8.399   0.640  1.24292E-01  4.94237E-01 -3.69945E-01
    8990.053     -8.198   0.680  1.26003E-01  5.11594E-01 -3.85591E-01
    8990.267     -7.984   0.720  1.29348E-01  5.28794E-01 -3.99446E-01
    8990.492     -7.759   0.760  1.34362E-01  5.45896E-01 -4.11534E-01
    8990.730     -7.521   0.800  1.40787E-01  5.62950E-01 -4.22163E-01
    8990.980     -7.271   0.840  1.48735E-01  5.79994E-01 -4.31259E-01
    8991.242     -7.009   0.880  1.59134E-01  5.97054E-01 -4.37920E-01
    8991.516     -6.735   0.920  1.73345E-01  6.14146E-01 -4.40801E-01
    8991.803     -6.448   0.960  1.92052E-01  6.31253E-01 -4.39201E-01
    8992.101     -6.150   1.000  2.14881E-01  6.48370E-01 -4.33489E-01
    8992.412     -5.839   1.040  2.42342E-01  6.65486E-01 -4.23144E-01
    8992.735     -5.516   1.080  2.78977E-01  6.82581E-01 -4.03604E-01
    8993.071     -5.180   1.120  3.32898E-01  6.99591E-01 -3.66692E-01
    8993.418     -4.833   1.160  4.11096E-01  7.16506E-01 -3.05410E-01
    8993.778     -4.473   1.200  5.10987E-01  7.33274E-01 -2.22287E-01
    8994.150     -4.101   1.240  6.11947E-01  7.49840E-01 -1.37894E-01
    8994.534     -3.717   1.280  6.86341E-01  7.66190E-01 -7.98485E-02
    8994.930     -3.321   1.320  7.18755E-01  7.82264E-01 -6.35091E-02
    8995.338     -2.913   1.360  7.05916E-01  7.98002E-01 -9.20868E-02
    8995.759     -2.492   1.400  6.65020E-01  8.13368E-01 -1.48347E-01
    8996.192     -2.059   1.440  6.25895E-01  8.28324E-01 -2.02429E-01
    8996.637     -1.614   1.480  6.04994E-01  8.42855E-01 -2.37861E-01
    8997.094     -1.157   1.520  6.01171E-01  8.56880E-01 -2.55709E-01
    8997.563     -0.688   1.560  6.08742E-01  8.70409E-01 -2.61668E-01
    8998.045     -0.206   1.600  6.25358E-01  8.83367E-01 -2.58009E-01
    8998.539      0.288   1.640  6.50551E-01  8.95784E-01 -2.45234E-01
    8999.045      0.794   1.680  6.86055E-01  9.07592E-01 -2.21537E-01
    8999.563      1.312   1.720  7.36007E-01  9.18802E-01 -1.82795E-01
    9000.093      1.842   1.760  8.01246E-01  9.29410E-01 -1.28164E-01
    9000.636      2.385   1.800  8.79237E-01  9.39373E-01 -6.01363E-02
    9001.191      2.940   1.840  9.75628E-01  9.48729E-01  2.68987E-02
    9001.757      3.507   1.880  1.09170E+00  9.57439E-01  1.34258E-01
    9002.337      4.086   1.920  1.21824E+00  9.65546E-01  2.52693E-01
    9002.928      4.677   1.960  1.33511E+00  9.73013E-01  3.62102E-01
    9003.531      5.280   2.000  1.41680E+00  9.79887E-01  4.36917E-01
    9004.147      5.896   2.040  1.45072E+00  9.86153E-01  4.64562E-01
    9004.775      6.524   2.080  1.44605E+00  9.91862E-01  4.54184E-01
    9005.415      7.164   2.120  1.42927E+00  9.97001E-01  4.32265E-01
    9006.067      7.816   2.160  1.42376E+00  1.00158E+00  4.22174E-01
    9006.732      8.481   2.200  1.42200E+00  1.00568E+00  4.16322E-01
    9007.408      9.157   2.240  1.37760E+00  1.00926E+00  3.68340E-01
    9008.097      9.846   2.280  1.27609E+00  1.01237E+00  2.63717E-01
    9008.798     10.547   2.320  1.15920E+00  1.01503E+00  1.44163E-01
    9009.512     11.261   2.360  1.06083E+00  1.01726E+00  4.35720E-02
    9010.237     11.986   2.400  9.88940E-01  1.01910E+00 -3.01634E-02
    9010.975     12.724   2.440  9.40721E-01  1.02060E+00 -7.98746E-02
    9011.724     13.473   2.480  9.14789E-01  1.02171E+00 -1.06920E-01
    9012.486     14.235   2.520  9.19495E-01  1.02252E+00 -1.03021E-01
    9013.261     15.010   2.560  9.53439E-01  1.02303E+00 -6.95940E-02
    9014.047     15.796   2.600  9.94795E-01  1.02327E+00 -2.84724E-02
    9014.846     16.595   2.640  1.03567E+00  1.02325E+00  1.24175E-02
    9015.656     17.405   2.680  1.07162E+00  1.02303E+00  4.85928E-02
    9016.479     18.228   2.720  1.10053E+00  1.02259E+00  7.79402E-02
    9017.314     19.063   2.760  1.12245E+00  1.02196E+00  1.00482E-01
    9018.162     19.911   2.800  1.13811E+00  1.02119E+00  1.16920E-01
    9019.021     20.770   2.840  1.14796E+00  1.02027E+00  1.27690E-01
    9019.893     21.642   2.880  1.15262E+00  1.01921E+00  1.33403E-01
    9020.777     22.526   2.920  1.15197E+00  1.01805E+00  1.33921E-01
    9021.673     23.422   2.960  1.14425E+00  1.01682E+00  1.27429E-01
    9022.581     24.330   3.000  1.12724E+00  1.01551E+00  1.11731E-01
    9023.502     25.251   3.040  1.09945E+00  1.01413E+00  8.53234E-02
    9024.434     26.184   3.080  1.06214E+00  1.01273E+00  4.94183E-02
    9025.379     27.128   3.120  1.01925E+00  1.01127E+00  7.98883E-03
    9026.336     28.085   3.160  9.76077E-01  1.00982E+00 -3.37383E-02
    9027.306     29.055   3.200  9.37025E-01  1.00834E+00 -7.13136E-02
    9028.287     30.036   3.240  9.05033E-01  1.00686E+00 -1.01829E-01
    9029.281     31.030   3.280  8.80653E-01  1.00539E+00 -1.24737E-01
    9030.287     32.036   3.320  8.63263E-01  1.00397E+00 -1.40706E-01
    9031.305     33.054   3.360  8.51730E-01  1.00254E+00 -1.50811E-01
    9032.335     34.084   3.400  8.44933E-01  1.00117E+00 -1.56239E-01
    9033.377     35.126   3.440  8.41706E-01  9.99846E-01 -1.58140E-01
    9034.432     36.181   3.480  8.41207E-01  9.98585E-01 -1.57378E-01
    9035.499     37.248   3.520  8.42796E-01  9.97349E-01 -1.54553E-01
    9036.578     38.327   3.560  8.45896E-01  9.96184E-01 -1.50288E-01
    9037.669     39.418   3.600  8.50117E-01  9.95092E-01 -1.44975E-01
    9038.772     40.521   3.640  8.55487E-01  9.94073E-01 -1.38586E-01
    9039.888     41.637   3.680  8.62395E-01  9.93110E-01 -1.30714E-01
    9041.016     42.765   3.720  8.71314E-01  9.92222E-01 -1.20908E-01
    9042.155     43.905   3.760  8.82615E-01  9.91413E-01 -1.08798E-01
    9043.308     45.057   3.800  8.96361E-01  9.90682E-01 -9.43204E-02
    9044.472     46.221   3.840  9.12360E-01  9.90029E-01 -7.76689E-02
    9045.648     47.398   3.880  9.30393E-01  9.89435E-01 -5.90414E-02
    9046.837     48.586   3.920  9.50437E-01  9.88943E-01 -3.85064E-02
    9048.038     49.787   3.960  9.72195E-01  9.88532E-01 -1.63373E-02
    9049.251     51.000   4.000  9.94973E-01  9.88202E-01  6.77109E-03
    9050.476     52.226   4.040  1.01762E+00  9.87950E-01  2.96687E-02
    9051.714     53.463   4.080  1.03857E+00  9.87756E-01  5.08093E-02
    9052.964     54.713   4.120  1.05617E+00  9.87661E-01  6.85054E-02
    9054.226     55.975   4.160  1.06909E+00  9.87624E-01  8.14696E-02
    9055.500     57.249   4.200  1.07685E+00  9.87685E-01  8.91629E-02
    9056.786     58.535   4.240  1.07960E+00  9.87800E-01  9.18039E-02
    9058.084     59.833   4.280  1.07825E+00  9.87968E-01  9.02812E-02
    9059.395     61.144   4.320  1.07410E+00  9.88231E-01  8.58673E-02
    9060.718     62.467   4.360  1.06836E+00  9.88544E-01  7.98190E-02
    9062.053     63.802   4.400  1.06211E+00  9.88906E-01  7.32038E-02
    9063.400     65.149   4.440  1.05612E+00  9.89337E-01  6.67858E-02
    9064.759     66.508   4.480  1.05062E+00  9.89813E-01  6.08067E-02
    9066.131     67.880   4.520  1.04528E+00  9.90335E-01  5.49410E-02
    9067.515     69.264   4.560  1.03960E+00  9.90921E-01  4.86795E-02
    9068.911     70.660   4.600  1.03327E+00  9.91526E-01  4.17399E-02
    9070.319     72.068   4.640  1.02664E+00  9.92190E-01  3.44539E-02
    9071.739     73.488   4.680  1.02065E+00  9.92870E-01  2.77803E-02
    9073.172     74.921   4.720  1.01645E+00  9.93583E-01  2.28668E-02
    9074.617     76.366   4.760  1.01486E+00  9.94308E-01  2.05489E-02
    9076.073     77.823   4.800  1.01617E+00  9.95086E-01  2.10808E-02
    9077.543     79.292   4.840  1.01989E+00  9.95850E-01  2.40410E-02
    9079.024     80.773   4.880  1.02509E+00  9.96639E-01  2.84464E-02
    9080.517     82.266   4.920  1.03047E+00  9.97432E-01  3.30341E-02
    9082.023     83.772   4.960  1.03478E+00  9.98225E-01  3.65570E-02
    9083.541     85.290   5.000  1.03697E+00  9.99015E-01  3.79564E-02
    9085.071     86.820   5.040  1.03630E+00  9.99801E-01  3.64963E-02
    9086.613     88.362   5.080  1.03253E+00  1.00056E+00  3.19680E-02
    9088.168     89.917   5.120  1.02617E+00  1.00131E+00  2.48561E-02
    9089.735     91.484   5.160  1.01817E+00  1.00205E+00  1.61141E-02
    9091.313     93.062   5.200  1.00952E+00  1.00277E+00  6.75207E-03
    9092.904     94.654   5.240  1.00095E+00  1.00347E+00 -2.51626E-03
    9094.508     96.257   5.280  9.92802E-01  1.00413E+00 -1.13270E-02
    9096.123     97.872   5.320  9.85243E-01  1.00475E+00 -1.95106E-02
    9097.751     99.500   5.360  9.78474E-01  1.00534E+00 -2.68645E-02
    9099.391    101.140   5.400  9.72823E-01  1.00588E+00 -3.30588E-02
    9101.043    102.792   5.440  9.68587E-01  1.00638E+00 -3.77965E-02
    9102.707    104.456   5.480  9.65807E-01  1.00684E+00 -4.10355E-02
    9104.383    106.132   5.520  9.64271E-01  1.00726E+00 -4.29854E-02
    9106.072    107.821   5.560  9.63603E-01  1.00760E+00 -4.40009E-02
    9107.773    109.522   5.600  9.63529E-01  1.00793E+00 -4.43997E-02
    9109.486    111.235   5.640  9.63769E-01  1.00818E+00 -4.44150E-02
    9111.211    112.960   5.680  9.64116E-01  1.00837E+00 -4.42525E-02
    9112.948    114.697   5.720  9.64403E-01  1.00853E+00 -4.41257E-02
    9114.698    116.447   5.760  9.64539E-01  1.00860E+00 -4.40572E-02
    9116.459    118.208   5.800  9.64922E-01  1.00864E+00 -4.37172E-02
    9118.233    119.982   5.840  9.66066E-01  1.00861E+00 -4.25457E-02
    9120.019    121.768   5.880  9.68305E-01  1.00851E+00 -4.02087E-02
    9121.818    123.567   5.920  9.71487E-01  1.00839E+00 -3.69051E-02
    9123.628    125.377   5.960  9.74908E-01  1.00817E+00 -3.32600E-02
    9125.451    127.200   6.000  9.78235E-01  1.00788E+00 -2.96480E-02
