# # comment:                                                     FEFF 9.9.1  
# # Source:
# # Structure
# # Reduced
# # space
# # abc:
# # angles:
# # sites:
# # POT  SCF 100  7.0000   0, screened core-hole, AFOLP (folp(0)= 1.150)
# # Abs   Z=29 Rmt= 1.197 Rnm= 1.313 K  shell
# # Pot 1 Z=48 Rmt= 1.495 Rnm= 1.554
# # Pot 2 Z=29 Rmt= 1.197 Rnm= 1.313
# # Pot 3 Z= 8 Rmt= 1.028 Rnm= 1.111
# # Gam_ch=1.729E+00 H-L exch Vi= 0.000E+00 Vr= 0.000E+00
# # Mu=-6.956E+00eV kf=2.144E+00 Vint=-1.468E+01eV Rs_int= 1.692
# FMS rfms= 9.0000
# # PATH  Rmax=-1.000,  Keep_limit= 0.00, Heap_limit 0.00  Pwcrit= 2.50%
#  S02=0.950  Temp=   0.00  Debye_temp=   0.00  Global_sig2= 0.00000
#  Energy zero shift, vr, vi    0.00000E+00   0.00000E+00
#  Curved wave amplitude ratio filter   4.000%
#     file         sig2 tot  cw amp ratio   deg  nlegs   reff  inp sig2
#     0/   0 paths used
#  xsedge+ 50, used to normalize mu           2.4408E-04
#  -----------------------------------------------------------------------
#  omega    e    k    mu    mu0     chi     @#
    8983.434    -10.766  -1.000  3.77759E-02  5.59243E-02 -1.81484E-02
    8983.733    -10.467  -0.960  3.98430E-02  5.99918E-02 -2.01488E-02
    8984.019    -10.181  -0.920  4.20919E-02  6.45089E-02 -2.24170E-02
    8984.293     -9.906  -0.880  4.45471E-02  6.95412E-02 -2.49940E-02
    8984.555     -9.644  -0.840  4.72371E-02  7.51650E-02 -2.79279E-02
    8984.805     -9.394  -0.800  5.01949E-02  8.14688E-02 -3.12739E-02
    8985.043     -9.157  -0.760  5.34583E-02  8.85537E-02 -3.50954E-02
    8985.269     -8.931  -0.720  5.70702E-02  9.65342E-02 -3.94639E-02
    8985.482     -8.718  -0.680  6.10777E-02  1.05536E-01 -4.44581E-02
    8985.683     -8.517  -0.640  6.55304E-02  1.15691E-01 -5.01608E-02
    8985.872     -8.328  -0.600  7.04772E-02  1.27130E-01 -5.66533E-02
    8986.049     -8.151  -0.560  7.59596E-02  1.39964E-01 -6.40044E-02
    8986.214     -7.986  -0.520  8.20029E-02  1.54258E-01 -7.22546E-02
    8986.366     -7.834  -0.480  8.86022E-02  1.69995E-01 -8.13930E-02
    8986.506     -7.694  -0.440  9.57078E-02  1.87039E-01 -9.13315E-02
    8986.634     -7.566  -0.400  1.03211E-01  2.05095E-01 -1.01884E-01
    8986.750     -7.450  -0.360  1.10940E-01  2.23699E-01 -1.12759E-01
    8986.854     -7.346  -0.320  1.18665E-01  2.42250E-01 -1.23585E-01
    8986.945     -7.255  -0.280  1.26127E-01  2.60079E-01 -1.33953E-01
    8987.024     -7.175  -0.240  1.33064E-01  2.76543E-01 -1.43479E-01
    8987.091     -7.108  -0.200  1.39248E-01  2.91099E-01 -1.51851E-01
    8987.146     -7.054  -0.160  1.44499E-01  3.03351E-01 -1.58852E-01
    8987.189     -7.011  -0.120  1.48690E-01  3.13041E-01 -1.64351E-01
    8987.219     -6.980  -0.080  1.51743E-01  3.20025E-01 -1.68283E-01
    8987.244     -6.956   0.000  1.54247E-01  3.25639E-01 -1.71392E-01
    8987.299     -6.901   0.120  1.59789E-01  3.38300E-01 -1.78511E-01
    8987.341     -6.859   0.160  1.64082E-01  3.48152E-01 -1.84071E-01
    8987.396     -6.804   0.200  1.69581E-01  3.60750E-01 -1.91170E-01
    8987.463     -6.737   0.240  1.76186E-01  3.75915E-01 -1.99729E-01
    8987.543     -6.657   0.280  1.83761E-01  3.93361E-01 -2.09600E-01
    8987.634     -6.566   0.320  1.92081E-01  4.12687E-01 -2.20606E-01
    8987.738     -6.462   0.360  2.00747E-01  4.33305E-01 -2.32558E-01
    8987.853     -6.346   0.400  2.09300E-01  4.54693E-01 -2.45393E-01
    8987.981     -6.218   0.440  2.17213E-01  4.76318E-01 -2.59105E-01
    8988.122     -6.078   0.480  2.23876E-01  4.97738E-01 -2.73862E-01
    8988.274     -5.926   0.520  2.28836E-01  5.18718E-01 -2.89882E-01
    8988.439     -5.761   0.560  2.31816E-01  5.39099E-01 -3.07283E-01
    8988.615     -5.584   0.600  2.32971E-01  5.58864E-01 -3.25893E-01
    8988.804     -5.395   0.640  2.33201E-01  5.78026E-01 -3.44825E-01
    8989.006     -5.194   0.680  2.34219E-01  5.96691E-01 -3.62472E-01
    8989.219     -4.981   0.720  2.38102E-01  6.14900E-01 -3.76798E-01
    8989.444     -4.755   0.760  2.46830E-01  6.32729E-01 -3.85898E-01
    8989.682     -4.518   0.800  2.62168E-01  6.50287E-01 -3.88119E-01
    8989.932     -4.268   0.840  2.85498E-01  6.67566E-01 -3.82069E-01
    8990.194     -4.006   0.880  3.17862E-01  6.84628E-01 -3.66766E-01
    8990.469     -3.731   0.920  3.58730E-01  7.01478E-01 -3.42749E-01
    8990.755     -3.445   0.960  4.04119E-01  7.18131E-01 -3.14012E-01
    8991.054     -3.146   1.000  4.45384E-01  7.34569E-01 -2.89185E-01
    8991.365     -2.835   1.040  4.71345E-01  7.50809E-01 -2.79464E-01
    8991.688     -2.512   1.080  4.74256E-01  7.66797E-01 -2.92541E-01
    8992.023     -2.177   1.120  4.58920E-01  7.82515E-01 -3.23595E-01
    8992.371     -1.829   1.160  4.43621E-01  7.97941E-01 -3.54319E-01
    8992.730     -1.470   1.200  4.45180E-01  8.13027E-01 -3.67848E-01
    8993.102     -1.098   1.240  4.66841E-01  8.27726E-01 -3.60885E-01
    8993.486     -0.714   1.280  5.02278E-01  8.42048E-01 -3.39771E-01
    8993.882     -0.318   1.320  5.47516E-01  8.55923E-01 -3.08407E-01
    8994.291      0.091   1.360  5.96807E-01  8.69339E-01 -2.72532E-01
    8994.711      0.512   1.400  6.32588E-01  8.82245E-01 -2.49656E-01
    8995.144      0.944   1.440  6.39649E-01  8.94611E-01 -2.54962E-01
    8995.589      1.389   1.480  6.23818E-01  9.06450E-01 -2.82632E-01
    8996.046      1.847   1.520  6.06769E-01  9.17694E-01 -3.10926E-01
    8996.516      2.316   1.560  6.08737E-01  9.28358E-01 -3.19622E-01
    8996.997      2.798   1.600  6.41729E-01  9.38438E-01 -2.96708E-01
    8997.491      3.291   1.640  7.13457E-01  9.47889E-01 -2.34432E-01
    8997.997      3.797   1.680  8.22180E-01  9.56732E-01 -1.34553E-01
    8998.515      4.315   1.720  9.44477E-01  9.64972E-01 -2.04950E-02
    8999.046      4.846   1.760  1.05367E+00  9.72587E-01  8.10850E-02
    8999.588      5.388   1.800  1.14847E+00  9.79624E-01  1.68841E-01
    9000.143      5.943   1.840  1.24439E+00  9.86049E-01  2.58345E-01
    9000.710      6.510   1.880  1.34316E+00  9.91889E-01  3.51271E-01
    9001.289      7.089   1.920  1.42956E+00  9.97174E-01  4.32390E-01
    9001.880      7.680   1.960  1.48649E+00  1.00193E+00  4.84556E-01
    9002.484      8.284   2.000  1.50309E+00  1.00614E+00  4.96952E-01
    9003.099      8.900   2.040  1.51051E+00  1.00986E+00  5.00651E-01
    9003.727      9.527   2.080  1.48591E+00  1.01309E+00  4.72826E-01
    9004.367     10.168   2.120  1.38926E+00  1.01586E+00  3.73402E-01
    9005.020     10.820   2.160  1.28754E+00  1.01821E+00  2.69336E-01
    9005.684     11.484   2.200  1.22667E+00  1.02014E+00  2.06525E-01
    9006.361     12.161   2.240  1.19090E+00  1.02172E+00  1.69183E-01
    9007.050     12.850   2.280  1.16404E+00  1.02292E+00  1.41122E-01
    9007.751     13.551   2.320  1.14764E+00  1.02380E+00  1.23839E-01
    9008.464     14.264   2.360  1.14755E+00  1.02439E+00  1.23164E-01
    9009.189     14.989   2.400  1.16445E+00  1.02469E+00  1.39760E-01
    9009.927     15.727   2.440  1.19163E+00  1.02474E+00  1.66894E-01
    9010.677     16.477   2.480  1.22084E+00  1.02457E+00  1.96271E-01
    9011.439     17.239   2.520  1.24333E+00  1.02417E+00  2.19160E-01
    9012.213     18.013   2.560  1.22885E+00  1.02362E+00  2.05228E-01
    9012.999     18.799   2.600  1.17345E+00  1.02288E+00  1.50568E-01
    9013.798     19.598   2.640  1.10866E+00  1.02201E+00  8.66467E-02
    9014.609     20.409   2.680  1.05317E+00  1.02104E+00  3.21326E-02
    9015.432     21.232   2.720  1.01155E+00  1.01992E+00 -8.37037E-03
    9016.267     22.067   2.760  9.81844E-01  1.01875E+00 -3.69032E-02
    9017.114     22.914   2.800  9.61355E-01  1.01749E+00 -5.61387E-02
    9017.974     23.774   2.840  9.48585E-01  1.01619E+00 -6.76051E-02
    9018.845     24.645   2.880  9.41325E-01  1.01484E+00 -7.35182E-02
    9019.729     25.529   2.920  9.36720E-01  1.01346E+00 -7.67419E-02
    9020.625     26.426   2.960  9.32235E-01  1.01207E+00 -7.98362E-02
    9021.534     27.334   3.000  9.26161E-01  1.01068E+00 -8.45171E-02
    9022.454     28.254   3.040  9.18181E-01  1.00929E+00 -9.11072E-02
    9023.387     29.187   3.080  9.09414E-01  1.00793E+00 -9.85143E-02
    9024.332     30.132   3.120  9.01496E-01  1.00660E+00 -1.05105E-01
    9025.289     31.089   3.160  8.95322E-01  1.00529E+00 -1.09965E-01
    9026.258     32.058   3.200  8.90815E-01  1.00401E+00 -1.13199E-01
    9027.240     33.040   3.240  8.87418E-01  1.00281E+00 -1.15390E-01
    9028.233     34.033   3.280  8.84452E-01  1.00165E+00 -1.17195E-01
    9029.239     35.039   3.320  8.81775E-01  1.00056E+00 -1.18781E-01
    9030.257     36.057   3.360  8.79756E-01  9.99514E-01 -1.19759E-01
    9031.287     37.087   3.400  8.78933E-01  9.98527E-01 -1.19594E-01
    9032.330     38.130   3.440  8.79769E-01  9.97638E-01 -1.17869E-01
    9033.384     39.184   3.480  8.82722E-01  9.96826E-01 -1.14104E-01
    9034.451     40.251   3.520  8.88211E-01  9.96069E-01 -1.07858E-01
    9035.530     41.330   3.560  8.96362E-01  9.95392E-01 -9.90302E-02
    9036.621     42.421   3.600  9.06994E-01  9.94796E-01 -8.78022E-02
    9037.725     43.525   3.640  9.19440E-01  9.94301E-01 -7.48609E-02
    9038.840     44.640   3.680  9.32438E-01  9.93865E-01 -6.14271E-02
    9039.968     45.768   3.720  9.44597E-01  9.93510E-01 -4.89134E-02
    9041.108     46.908   3.760  9.54964E-01  9.93236E-01 -3.82719E-02
    9042.260     48.060   3.800  9.63098E-01  9.93063E-01 -2.99645E-02
    9043.424     49.224   3.840  9.68923E-01  9.92948E-01 -2.40242E-02
    9044.601     50.401   3.880  9.72879E-01  9.92910E-01 -2.00313E-02
    9045.790     51.590   3.920  9.75746E-01  9.92948E-01 -1.72019E-02
    9046.990     52.791   3.960  9.78454E-01  9.93041E-01 -1.45876E-02
    9048.204     54.004   4.000  9.81953E-01  9.93210E-01 -1.12565E-02
    9049.429     55.229   4.040  9.87013E-01  9.93454E-01 -6.44019E-03
    9050.666     56.466   4.080  9.94153E-01  9.93771E-01  3.82473E-04
    9051.916     57.716   4.120  1.00359E+00  9.94139E-01  9.44708E-03
    9053.178     58.978   4.160  1.01527E+00  9.94574E-01  2.06992E-02
    9054.452     60.252   4.200  1.02858E+00  9.95035E-01  3.35450E-02
    9055.738     61.538   4.240  1.04245E+00  9.95562E-01  4.68903E-02
    9057.037     62.837   4.280  1.05572E+00  9.96154E-01  5.95643E-02
    9058.347     64.147   4.320  1.06767E+00  9.96765E-01  7.09039E-02
    9059.670     65.470   4.360  1.07835E+00  9.97413E-01  8.09405E-02
    9061.005     66.805   4.400  1.08806E+00  9.98099E-01  8.99661E-02
    9062.352     68.152   4.440  1.09679E+00  9.98818E-01  9.79739E-02
    9063.712     69.512   4.480  1.10383E+00  9.99548E-01  1.04278E-01
    9065.083     70.883   4.520  1.10841E+00  1.00031E+00  1.08106E-01
    9066.467     72.267   4.560  1.11030E+00  1.00107E+00  1.09222E-01
    9067.863     73.663   4.600  1.10970E+00  1.00184E+00  1.07860E-01
    9069.271     75.071   4.640  1.10690E+00  1.00264E+00  1.04265E-01
    9070.692     76.492   4.680  1.10192E+00  1.00341E+00  9.85124E-02
    9072.124     77.924   4.720  1.09478E+00  1.00420E+00  9.05724E-02
    9073.569     79.369   4.760  1.08545E+00  1.00497E+00  8.04780E-02
    9075.026     80.826   4.800  1.07403E+00  1.00576E+00  6.82733E-02
    9076.495     82.295   4.840  1.06043E+00  1.00649E+00  5.39402E-02
    9077.976     83.776   4.880  1.04485E+00  1.00723E+00  3.76196E-02
    9079.470     85.270   4.920  1.02786E+00  1.00792E+00  1.99409E-02
    9080.976     86.776   4.960  1.01066E+00  1.00859E+00  2.07144E-03
    9082.493     88.294   5.000  9.94552E-01  1.00925E+00 -1.47019E-02
    9084.024     89.824   5.040  9.80371E-01  1.00986E+00 -2.94844E-02
    9085.566     91.366   5.080  9.68595E-01  1.01044E+00 -4.18416E-02
    9087.120     92.920   5.120  9.59463E-01  1.01096E+00 -5.14930E-02
    9088.687     94.487   5.160  9.53295E-01  1.01146E+00 -5.81612E-02
    9090.266     96.066   5.200  9.50266E-01  1.01191E+00 -6.16473E-02
    9091.857     97.657   5.240  9.50278E-01  1.01230E+00 -6.20238E-02
    9093.460     99.260   5.280  9.53062E-01  1.01264E+00 -5.95833E-02
    9095.076    100.876   5.320  9.58303E-01  1.01294E+00 -5.46401E-02
    9096.703    102.503   5.360  9.65708E-01  1.01320E+00 -4.74875E-02
    9098.343    104.143   5.400  9.74518E-01  1.01338E+00 -3.88598E-02
    9099.995    105.795   5.440  9.83178E-01  1.01351E+00 -3.03339E-02
    9101.659    107.459   5.480  9.89642E-01  1.01360E+00 -2.39574E-02
    9103.336    109.136   5.520  9.92427E-01  1.01362E+00 -2.11903E-02
    9105.024    110.824   5.560  9.91402E-01  1.01359E+00 -2.21848E-02
    9106.725    112.525   5.600  9.87690E-01  1.01351E+00 -2.58206E-02
    9108.438    114.238   5.640  9.83029E-01  1.01337E+00 -3.03378E-02
    9110.163    115.963   5.680  9.79123E-01  1.01320E+00 -3.40762E-02
    9111.900    117.701   5.720  9.76775E-01  1.01294E+00 -3.61660E-02
    9113.650    119.450   5.760  9.76033E-01  1.01266E+00 -3.66276E-02
    9115.412    121.212   5.800  9.76403E-01  1.01234E+00 -3.59366E-02
    9117.186    122.986   5.840  9.77730E-01  1.01195E+00 -3.42233E-02
    9118.972    124.772   5.880  9.80661E-01  1.01152E+00 -3.08630E-02
    9120.770    126.570   5.920  9.86126E-01  1.01106E+00 -2.49337E-02
    9122.581    128.381   5.960  9.94413E-01  1.01056E+00 -1.61473E-02
    9124.403    130.203   6.000  1.00471E+00  1.01002E+00 -5.30627E-03
