# # comment:                                                     FEFF 9.9.1  
# # Source:
# # Structure
# # Reduced
# # space
# # abc:
# # angles:
# # sites:
# # POT  SCF 100  7.0000   0, screened core-hole, AFOLP (folp(0)= 1.150)
# # Abs   Z=29 Rmt= 1.300 Rnm= 1.367 K  shell
# # Pot 1 Z= 3 Rmt= 1.339 Rnm= 1.402
# # Pot 2 Z=29 Rmt= 1.300 Rnm= 1.367
# # Pot 3 Z=15 Rmt= 0.939 Rnm= 1.156
# # Pot 4 Z= 8 Rmt= 0.916 Rnm= 1.044
# # Gam_ch=1.729E+00 H-L exch Vi= 0.000E+00 Vr= 0.000E+00
# # Mu=-5.973E+00eV kf=2.463E+00 Vint=-1.780E+01eV Rs_int= 1.473
# FMS rfms= 9.0000
# # PATH  Rmax=-1.000,  Keep_limit= 0.00, Heap_limit 0.00  Pwcrit= 2.50%
#  S02=0.950  Temp=   0.00  Debye_temp=   0.00  Global_sig2= 0.00000
#  Energy zero shift, vr, vi    0.00000E+00   0.00000E+00
#  Curved wave amplitude ratio filter   4.000%
#     file         sig2 tot  cw amp ratio   deg  nlegs   reff  inp sig2
#     0/   0 paths used
#  xsedge+ 50, used to normalize mu           2.4903E-04
#  -----------------------------------------------------------------------
#  omega    e    k    mu    mu0     chi     @#
    8983.420     -9.783  -1.000  4.91550E-02  5.49381E-02 -5.78314E-03
    8983.719     -9.484  -0.960  5.21594E-02  5.89968E-02 -6.83741E-03
    8984.005     -9.197  -0.920  5.54185E-02  6.35152E-02 -8.09675E-03
    8984.280     -8.923  -0.880  5.89598E-02  6.85622E-02 -9.60243E-03
    8984.542     -8.661  -0.840  6.28138E-02  7.42178E-02 -1.14039E-02
    8984.792     -8.411  -0.800  6.70147E-02  8.05749E-02 -1.35603E-02
    8985.030     -8.173  -0.760  7.15996E-02  8.77405E-02 -1.61409E-02
    8985.255     -7.948  -0.720  7.66089E-02  9.58355E-02 -1.92266E-02
    8985.468     -7.734  -0.680  8.20847E-02  1.04993E-01 -2.29085E-02
    8985.670     -7.533  -0.640  8.80690E-02  1.15355E-01 -2.72859E-02
    8985.859     -7.344  -0.600  9.45996E-02  1.27059E-01 -3.24595E-02
    8986.035     -7.167  -0.560  1.01704E-01  1.40225E-01 -3.85207E-02
    8986.200     -7.003  -0.520  1.09392E-01  1.54924E-01 -4.55323E-02
    8986.352     -6.850  -0.480  1.17639E-01  1.71143E-01 -5.35035E-02
    8986.493     -6.710  -0.440  1.26378E-01  1.88737E-01 -6.23594E-02
    8986.621     -6.582  -0.400  1.35482E-01  2.07398E-01 -7.19167E-02
    8986.736     -6.466  -0.360  1.44763E-01  2.26639E-01 -8.18765E-02
    8986.840     -6.363  -0.320  1.53978E-01  2.45827E-01 -9.18484E-02
    8986.932     -6.271  -0.280  1.62854E-01  2.64260E-01 -1.01406E-01
    8987.011     -6.192  -0.240  1.71112E-01  2.81265E-01 -1.10153E-01
    8987.078     -6.125  -0.200  1.78498E-01  2.96281E-01 -1.17783E-01
    8987.133     -6.070  -0.160  1.84803E-01  3.08902E-01 -1.24099E-01
    8987.175     -6.027  -0.120  1.89866E-01  3.18870E-01 -1.29003E-01
    8987.206     -5.997  -0.080  1.93572E-01  3.26044E-01 -1.32472E-01
    8987.230     -5.973   0.000  1.96616E-01  3.31805E-01 -1.35188E-01
    8987.285     -5.918   0.120  2.03425E-01  3.44788E-01 -1.41363E-01
    8987.328     -5.875   0.160  2.08787E-01  3.54871E-01 -1.46084E-01
    8987.383     -5.820   0.200  2.15732E-01  3.67698E-01 -1.51966E-01
    8987.450     -5.753   0.240  2.24378E-01  3.83117E-01 -1.58739E-01
    8987.529     -5.674   0.280  2.34707E-01  4.00751E-01 -1.66044E-01
    8987.620     -5.582   0.320  2.46765E-01  4.20136E-01 -1.73370E-01
    8987.724     -5.479   0.360  2.60531E-01  4.40655E-01 -1.80124E-01
    8987.840     -5.363   0.400  2.76030E-01  4.61695E-01 -1.85665E-01
    8987.968     -5.235   0.440  2.93311E-01  4.82660E-01 -1.89349E-01
    8988.108     -5.095   0.480  3.12560E-01  5.03088E-01 -1.90528E-01
    8988.260     -4.942   0.520  3.34174E-01  5.22695E-01 -1.88521E-01
    8988.425     -4.778   0.560  3.58813E-01  5.41374E-01 -1.82561E-01
    8988.602     -4.601   0.600  3.87187E-01  5.59076E-01 -1.71890E-01
    8988.791     -4.412   0.640  4.19862E-01  5.75868E-01 -1.56006E-01
    8988.992     -4.211   0.680  4.56640E-01  5.91839E-01 -1.35199E-01
    8989.205     -3.997   0.720  4.96323E-01  6.07134E-01 -1.10811E-01
    8989.431     -3.772   0.760  5.37113E-01  6.21857E-01 -8.47447E-02
    8989.669     -3.534   0.800  5.77815E-01  6.36084E-01 -5.82686E-02
    8989.919     -3.284   0.840  6.18674E-01  6.49937E-01 -3.12629E-02
    8990.181     -3.022   0.880  6.60662E-01  6.63481E-01 -2.81884E-03
    8990.455     -2.748   0.920  7.03504E-01  6.76771E-01  2.67334E-02
    8990.741     -2.461   0.960  7.44285E-01  6.89844E-01  5.44412E-02
    8991.040     -2.163   1.000  7.79292E-01  7.02768E-01  7.65234E-02
    8991.351     -1.852   1.040  8.06226E-01  7.15524E-01  9.07026E-02
    8991.674     -1.529   1.080  8.24109E-01  7.28159E-01  9.59500E-02
    8992.009     -1.193   1.120  8.33400E-01  7.40676E-01  9.27244E-02
    8992.357     -0.846   1.160  8.38068E-01  7.53051E-01  8.50165E-02
    8992.717     -0.486   1.200  8.44310E-01  7.65297E-01  7.90126E-02
    8993.088     -0.114   1.240  8.52963E-01  7.77421E-01  7.55417E-02
    8993.472      0.270   1.280  8.59852E-01  7.89408E-01  7.04442E-02
    8993.869      0.666   1.320  8.66519E-01  8.01217E-01  6.53023E-02
    8994.277      1.074   1.360  8.79503E-01  8.12869E-01  6.66341E-02
    8994.698      1.495   1.400  9.00142E-01  8.24322E-01  7.58194E-02
    8995.131      1.928   1.440  9.24538E-01  8.35551E-01  8.89864E-02
    8995.576      2.373   1.480  9.48513E-01  8.46572E-01  1.01941E-01
    8996.033      2.830   1.520  9.73170E-01  8.57340E-01  1.15831E-01
    8996.502      3.299   1.560  1.00297E+00  8.67847E-01  1.35125E-01
    8996.984      3.781   1.600  1.04082E+00  8.78048E-01  1.62769E-01
    8997.478      4.275   1.640  1.09182E+00  8.87979E-01  2.03843E-01
    8997.984      4.781   1.680  1.14937E+00  8.97571E-01  2.51800E-01
    8998.502      5.299   1.720  1.19426E+00  9.06840E-01  2.87420E-01
    8999.032      5.829   1.760  1.22775E+00  9.15762E-01  3.11984E-01
    8999.575      6.372   1.800  1.26370E+00  9.24331E-01  3.39364E-01
    9000.129      6.926   1.840  1.30002E+00  9.32543E-01  3.67475E-01
    9000.696      7.493   1.880  1.31646E+00  9.40353E-01  3.76107E-01
    9001.275      8.073   1.920  1.29596E+00  9.47801E-01  3.48161E-01
    9001.867      8.664   1.960  1.24576E+00  9.54843E-01  2.90918E-01
    9002.470      9.267   2.000  1.18823E+00  9.61499E-01  2.26728E-01
    9003.086      9.883   2.040  1.13980E+00  9.67747E-01  1.72051E-01
    9003.714     10.511   2.080  1.10422E+00  9.73607E-01  1.30609E-01
    9004.354     11.151   2.120  1.07823E+00  9.79062E-01  9.91644E-02
    9005.006     11.803   2.160  1.06069E+00  9.84112E-01  7.65800E-02
    9005.671     12.468   2.200  1.05153E+00  9.88780E-01  6.27477E-02
    9006.347     13.144   2.240  1.04518E+00  9.93071E-01  5.21106E-02
    9007.036     13.833   2.280  1.03315E+00  9.96988E-01  3.61632E-02
    9007.737     14.534   2.320  1.01313E+00  1.00051E+00  1.26147E-02
    9008.450     15.248   2.360  9.91038E-01  1.00369E+00 -1.26539E-02
    9009.176     15.973   2.400  9.73225E-01  1.00651E+00 -3.32855E-02
    9009.913     16.711   2.440  9.61705E-01  1.00900E+00 -4.72901E-02
    9010.663     17.460   2.480  9.56897E-01  1.01115E+00 -5.42556E-02
    9011.425     18.222   2.520  9.58865E-01  1.01299E+00 -5.41221E-02
    9012.199     18.997   2.560  9.66311E-01  1.01453E+00 -4.82164E-02
    9012.986     19.783   2.600  9.74786E-01  1.01576E+00 -4.09735E-02
    9013.784     20.581   2.640  9.77241E-01  1.01673E+00 -3.94909E-02
    9014.595     21.392   2.680  9.68385E-01  1.01745E+00 -4.90679E-02
    9015.418     22.215   2.720  9.48568E-01  1.01793E+00 -6.93612E-02
    9016.253     23.050   2.760  9.23695E-01  1.01817E+00 -9.44717E-02
    9017.100     23.898   2.800  9.00567E-01  1.01820E+00 -1.17629E-01
    9017.960     24.757   2.840  8.85607E-01  1.01802E+00 -1.32416E-01
    9018.832     25.629   2.880  8.85361E-01  1.01768E+00 -1.32316E-01
    9019.716     26.513   2.920  8.92848E-01  1.01714E+00 -1.24294E-01
    9020.612     27.409   2.960  9.04210E-01  1.01647E+00 -1.12258E-01
    9021.520     28.317   3.000  9.17249E-01  1.01564E+00 -9.83928E-02
    9022.441     29.238   3.040  9.30448E-01  1.01469E+00 -8.42422E-02
    9023.373     30.170   3.080  9.42629E-01  1.01364E+00 -7.10113E-02
    9024.318     31.115   3.120  9.52911E-01  1.01248E+00 -5.95692E-02
    9025.275     32.072   3.160  9.60575E-01  1.01124E+00 -5.06609E-02
    9026.244     33.042   3.200  9.65146E-01  1.00991E+00 -4.47649E-02
    9027.226     34.023   3.240  9.66729E-01  1.00853E+00 -4.18027E-02
    9028.220     35.017   3.280  9.66145E-01  1.00709E+00 -4.09427E-02
    9029.225     36.023   3.320  9.64770E-01  1.00562E+00 -4.08534E-02
    9030.243     37.041   3.360  9.64268E-01  1.00412E+00 -3.98533E-02
    9031.274     38.071   3.400  9.66136E-01  1.00259E+00 -3.64522E-02
    9032.316     39.113   3.440  9.71118E-01  1.00105E+00 -2.99302E-02
    9033.371     40.168   3.480  9.79070E-01  9.99529E-01 -2.04590E-02
    9034.437     41.235   3.520  9.89156E-01  9.97991E-01 -8.83453E-03
    9035.516     42.314   3.560  1.00018E+00  9.96480E-01  3.70309E-03
    9036.608     43.405   3.600  1.01077E+00  9.94998E-01  1.57673E-02
    9037.711     44.508   3.640  1.01993E+00  9.93529E-01  2.63978E-02
    9038.827     45.624   3.680  1.02716E+00  9.92097E-01  3.50654E-02
    9039.954     46.752   3.720  1.03235E+00  9.90704E-01  4.16430E-02
    9041.094     47.891   3.760  1.03570E+00  9.89374E-01  4.63239E-02
    9042.246     49.044   3.800  1.03745E+00  9.88068E-01  4.93840E-02
    9043.411     50.208   3.840  1.03786E+00  9.86849E-01  5.10127E-02
    9044.587     51.384   3.880  1.03705E+00  9.85658E-01  5.13942E-02
    9045.776     52.573   3.920  1.03514E+00  9.84537E-01  5.06027E-02
    9046.977     53.774   3.960  1.03218E+00  9.83490E-01  4.86900E-02
    9048.190     54.987   4.000  1.02831E+00  9.82516E-01  4.57957E-02
    9049.415     56.212   4.040  1.02385E+00  9.81595E-01  4.22566E-02
    9050.653     57.450   4.080  1.01921E+00  9.80749E-01  3.84566E-02
    9051.902     58.700   4.120  1.01470E+00  9.79979E-01  3.47217E-02
    9053.164     59.961   4.160  1.01056E+00  9.79287E-01  3.12695E-02
    9054.438     61.236   4.200  1.00688E+00  9.78671E-01  2.82128E-02
    9055.725     62.522   4.240  1.00370E+00  9.78110E-01  2.55935E-02
    9057.023     63.820   4.280  1.00108E+00  9.77646E-01  2.34295E-02
    9058.334     65.131   4.320  9.98953E-01  9.77238E-01  2.17152E-02
    9059.656     66.454   4.360  9.97250E-01  9.76907E-01  2.03425E-02
    9060.991     67.789   4.400  9.95744E-01  9.76652E-01  1.90920E-02
    9062.339     69.136   4.440  9.94098E-01  9.76473E-01  1.76244E-02
    9063.698     70.495   4.480  9.91914E-01  9.76369E-01  1.55450E-02
    9065.070     71.867   4.520  9.88875E-01  9.76318E-01  1.25571E-02
    9066.453     73.251   4.560  9.84965E-01  9.76338E-01  8.62734E-03
    9067.849     74.647   4.600  9.80428E-01  9.76407E-01  4.02141E-03
    9069.258     76.055   4.640  9.75767E-01  9.76546E-01 -7.78904E-04
    9070.678     77.475   4.680  9.71522E-01  9.76755E-01 -5.23317E-03
    9072.111     78.908   4.720  9.68052E-01  9.76989E-01 -8.93706E-03
    9073.555     80.353   4.760  9.65568E-01  9.77289E-01 -1.17206E-02
    9075.012     81.809   4.800  9.64029E-01  9.77653E-01 -1.36244E-02
    9076.481     83.279   4.840  9.63192E-01  9.78037E-01 -1.48450E-02
    9077.963     84.760   4.880  9.62908E-01  9.78459E-01 -1.55508E-02
    9079.456     86.253   4.920  9.63128E-01  9.78918E-01 -1.57906E-02
    9080.962     87.759   4.960  9.63853E-01  9.79416E-01 -1.55636E-02
    9082.480     89.277   5.000  9.64989E-01  9.79949E-01 -1.49594E-02
    9084.010     90.807   5.040  9.66302E-01  9.80513E-01 -1.42113E-02
    9085.552     92.349   5.080  9.67485E-01  9.81065E-01 -1.35793E-02
    9087.107     93.904   5.120  9.68450E-01  9.81664E-01 -1.32134E-02
    9088.673     95.471   5.160  9.69137E-01  9.82247E-01 -1.31102E-02
    9090.252     97.049   5.200  9.69697E-01  9.82853E-01 -1.31565E-02
    9091.843     98.640   5.240  9.70186E-01  9.83439E-01 -1.32532E-02
    9093.446    100.244   5.280  9.70658E-01  9.84047E-01 -1.33887E-02
    9095.062    101.859   5.320  9.71012E-01  9.84651E-01 -1.36395E-02
    9096.690    103.487   5.360  9.71114E-01  9.85228E-01 -1.41143E-02
    9098.329    105.127   5.400  9.70905E-01  9.85797E-01 -1.48922E-02
    9099.981    106.779   5.440  9.70347E-01  9.86335E-01 -1.59881E-02
    9101.646    108.443   5.480  9.69574E-01  9.86864E-01 -1.72906E-02
    9103.322    110.119   5.520  9.68835E-01  9.87383E-01 -1.85475E-02
    9105.011    111.808   5.560  9.68405E-01  9.87842E-01 -1.94370E-02
    9106.711    113.509   5.600  9.68567E-01  9.88287E-01 -1.97207E-02
    9108.424    115.221   5.640  9.69320E-01  9.88694E-01 -1.93745E-02
    9110.149    116.947   5.680  9.70515E-01  9.89059E-01 -1.85440E-02
    9111.887    118.684   5.720  9.71978E-01  9.89361E-01 -1.73831E-02
    9113.636    120.434   5.760  9.73731E-01  9.89644E-01 -1.59130E-02
    9115.398    122.195   5.800  9.75864E-01  9.89885E-01 -1.40209E-02
    9117.172    123.969   5.840  9.78502E-01  9.90060E-01 -1.15577E-02
    9118.958    125.755   5.880  9.81719E-01  9.90190E-01 -8.47093E-03
    9120.756    127.554   5.920  9.85412E-01  9.90273E-01 -4.86126E-03
    9122.567    129.364   5.960  9.89386E-01  9.90306E-01 -9.20859E-04
    9124.390    131.187   6.000  9.93534E-01  9.90237E-01  3.29651E-03
