# # comment:                                                     FEFF 9.9.1  
# # Source:
# # Structure
# # Reduced
# # space
# # abc:
# # angles:
# # sites:
# # POT  SCF 100  7.0000   0, screened core-hole, AFOLP (folp(0)= 1.150)
# # Abs   Z=29 Rmt= 1.122 Rnm= 1.252 K  shell
# # Pot 1 Z= 3 Rmt= 1.213 Rnm= 1.290
# # Pot 2 Z=29 Rmt= 1.124 Rnm= 1.253
# # Pot 3 Z= 8 Rmt= 1.024 Rnm= 1.117
# # Gam_ch=1.729E+00 H-L exch Vi= 0.000E+00 Vr= 0.000E+00
# # Mu=-7.803E+00eV kf=2.111E+00 Vint=-1.567E+01eV Rs_int= 1.718
# FMS rfms= 9.0000
# # PATH  Rmax=-1.000,  Keep_limit= 0.00, Heap_limit 0.00  Pwcrit= 2.50%
#  S02=0.950  Temp=   0.00  Debye_temp=   0.00  Global_sig2= 0.00000
#  Energy zero shift, vr, vi    0.00000E+00   0.00000E+00
#  Curved wave amplitude ratio filter   4.000%
#     file         sig2 tot  cw amp ratio   deg  nlegs   reff  inp sig2
#     0/   0 paths used
#  xsedge+ 50, used to normalize mu           2.4350E-04
#  -----------------------------------------------------------------------
#  omega    e    k    mu    mu0     chi     @#
    8984.062    -11.613  -1.000  3.54313E-02  5.56197E-02 -2.01884E-02
    8984.361    -11.314  -0.960  3.72871E-02  5.96498E-02 -2.23628E-02
    8984.648    -11.028  -0.920  3.92903E-02  6.41244E-02 -2.48340E-02
    8984.922    -10.753  -0.880  4.14569E-02  6.91081E-02 -2.76511E-02
    8985.184    -10.491  -0.840  4.38046E-02  7.46763E-02 -3.08718E-02
    8985.434    -10.241  -0.800  4.63525E-02  8.09164E-02 -3.45639E-02
    8985.672    -10.004  -0.760  4.91215E-02  8.79283E-02 -3.88068E-02
    8985.897     -9.778  -0.720  5.21336E-02  9.58250E-02 -4.36914E-02
    8986.111     -9.565  -0.680  5.54110E-02  1.04730E-01 -4.93195E-02
    8986.312     -9.364  -0.640  5.89751E-02  1.14776E-01 -5.58006E-02
    8986.501     -9.175  -0.600  6.28443E-02  1.26089E-01 -6.32448E-02
    8986.678     -8.998  -0.560  6.70306E-02  1.38780E-01 -7.17492E-02
    8986.842     -8.833  -0.520  7.15354E-02  1.52912E-01 -8.13769E-02
    8986.995     -8.681  -0.480  7.63437E-02  1.68471E-01 -9.21275E-02
    8987.135     -8.541  -0.440  8.14174E-02  1.85320E-01 -1.03903E-01
    8987.263     -8.413  -0.400  8.66901E-02  2.03168E-01 -1.16478E-01
    8987.379     -8.297  -0.360  9.20647E-02  2.21556E-01 -1.29492E-01
    8987.482     -8.193  -0.320  9.74164E-02  2.39892E-01 -1.42476E-01
    8987.574     -8.102  -0.280  1.02602E-01  2.57513E-01 -1.54912E-01
    8987.653     -8.022  -0.240  1.07470E-01  2.73784E-01 -1.66314E-01
    8987.720     -7.955  -0.200  1.11877E-01  2.88170E-01 -1.76294E-01
    8987.775     -7.901  -0.160  1.15690E-01  3.00278E-01 -1.84589E-01
    8987.818     -7.858  -0.120  1.18796E-01  3.09855E-01 -1.91059E-01
    8987.848     -7.827  -0.080  1.21105E-01  3.16758E-01 -1.95653E-01
    8987.872     -7.803   0.000  1.23046E-01  3.22307E-01 -1.99261E-01
    8987.927     -7.748   0.120  1.27432E-01  3.34817E-01 -2.07385E-01
    8987.970     -7.705   0.160  1.30913E-01  3.44562E-01 -2.13649E-01
    8988.025     -7.651   0.200  1.35501E-01  3.57007E-01 -2.21506E-01
    8988.092     -7.584   0.240  1.41334E-01  3.71996E-01 -2.30662E-01
    8988.171     -7.504   0.280  1.48578E-01  3.89246E-01 -2.40668E-01
    8988.263     -7.413   0.320  1.57447E-01  4.08320E-01 -2.50873E-01
    8988.366     -7.309   0.360  1.68257E-01  4.28719E-01 -2.60462E-01
    8988.482     -7.193   0.400  1.81358E-01  4.49865E-01 -2.68507E-01
    8988.610     -7.065   0.440  1.97187E-01  4.71231E-01 -2.74044E-01
    8988.750     -6.925   0.480  2.16208E-01  4.92421E-01 -2.76213E-01
    8988.903     -6.773   0.520  2.38690E-01  5.13164E-01 -2.74474E-01
    8989.067     -6.608   0.560  2.64339E-01  5.33321E-01 -2.68982E-01
    8989.244     -6.431   0.600  2.91804E-01  5.52900E-01 -2.61097E-01
    8989.433     -6.242   0.640  3.18012E-01  5.71892E-01 -2.53880E-01
    8989.634     -6.041   0.680  3.38674E-01  5.90405E-01 -2.51731E-01
    8989.847     -5.828   0.720  3.50051E-01  6.08477E-01 -2.58426E-01
    8990.073     -5.602   0.760  3.51299E-01  6.26207E-01 -2.74908E-01
    8990.311     -5.365   0.800  3.44412E-01  6.43683E-01 -2.99272E-01
    8990.561     -5.115   0.840  3.32467E-01  6.60899E-01 -3.28432E-01
    8990.823     -4.853   0.880  3.18782E-01  6.77935E-01 -3.59153E-01
    8991.097     -4.578   0.920  3.06441E-01  6.94819E-01 -3.88378E-01
    8991.384     -4.292   0.960  2.98406E-01  7.11504E-01 -4.13098E-01
    8991.682     -3.993   1.000  2.97275E-01  7.28034E-01 -4.30760E-01
    8991.993     -3.682   1.040  3.03571E-01  7.44386E-01 -4.40815E-01
    8992.316     -3.359   1.080  3.14848E-01  7.60527E-01 -4.45679E-01
    8992.652     -3.024   1.120  3.26798E-01  7.76438E-01 -4.49640E-01
    8992.999     -2.676   1.160  3.36719E-01  7.92098E-01 -4.55379E-01
    8993.359     -2.317   1.200  3.46630E-01  8.07459E-01 -4.60830E-01
    8993.731     -1.945   1.240  3.62225E-01  8.22493E-01 -4.60268E-01
    8994.115     -1.561   1.280  3.88205E-01  8.37147E-01 -4.48942E-01
    8994.511     -1.165   1.320  4.25845E-01  8.51412E-01 -4.25567E-01
    8994.919     -0.756   1.360  4.73723E-01  8.65235E-01 -3.91511E-01
    8995.340     -0.335   1.400  5.26842E-01  8.78583E-01 -3.51741E-01
    8995.773      0.097   1.440  5.75169E-01  8.91426E-01 -3.16257E-01
    8996.218      0.542   1.480  6.12894E-01  9.03753E-01 -2.90860E-01
    8996.675      1.000   1.520  6.47307E-01  9.15535E-01 -2.68228E-01
    8997.144      1.469   1.560  6.85665E-01  9.26724E-01 -2.41058E-01
    8997.626      1.951   1.600  7.25249E-01  9.37333E-01 -2.12084E-01
    8998.120      2.444   1.640  7.57125E-01  9.47358E-01 -1.90233E-01
    8998.626      2.950   1.680  7.74758E-01  9.56758E-01 -1.82000E-01
    8999.144      3.468   1.720  7.85859E-01  9.65529E-01 -1.79670E-01
    8999.674      3.999   1.760  8.09633E-01  9.73715E-01 -1.64082E-01
    9000.217      4.541   1.800  8.62412E-01  9.81277E-01 -1.18865E-01
    9000.771      5.096   1.840  9.45382E-01  9.88219E-01 -4.28369E-02
    9001.338      5.663   1.880  1.04678E+00  9.94589E-01  5.21885E-02
    9001.918      6.242   1.920  1.15525E+00  1.00037E+00  1.54873E-01
    9002.509      6.833   1.960  1.25759E+00  1.00558E+00  2.52017E-01
    9003.112      7.437   2.000  1.33965E+00  1.01023E+00  3.29415E-01
    9003.728      8.053   2.040  1.39513E+00  1.01437E+00  3.80758E-01
    9004.356      8.680   2.080  1.41924E+00  1.01799E+00  4.01255E-01
    9004.996      9.321   2.120  1.40434E+00  1.02113E+00  3.83216E-01
    9005.648      9.973   2.160  1.36430E+00  1.02380E+00  3.40491E-01
    9006.313     10.637   2.200  1.32966E+00  1.02603E+00  3.03629E-01
    9006.989     11.314   2.240  1.31769E+00  1.02784E+00  2.89846E-01
    9007.678     12.003   2.280  1.32939E+00  1.02927E+00  3.00116E-01
    9008.379     12.704   2.320  1.36035E+00  1.03035E+00  3.29994E-01
    9009.092     13.417   2.360  1.40020E+00  1.03108E+00  3.69122E-01
    9009.818     14.142   2.400  1.43072E+00  1.03150E+00  3.99221E-01
    9010.556     14.880   2.440  1.43304E+00  1.03163E+00  4.01402E-01
    9011.305     15.630   2.480  1.39362E+00  1.03151E+00  3.62107E-01
    9012.067     16.392   2.520  1.31096E+00  1.03115E+00  2.79816E-01
    9012.842     17.166   2.560  1.21929E+00  1.03057E+00  1.88717E-01
    9013.628     17.952   2.600  1.15058E+00  1.02981E+00  1.20767E-01
    9014.426     18.751   2.640  1.10412E+00  1.02888E+00  7.52371E-02
    9015.237     19.562   2.680  1.07308E+00  1.02778E+00  4.52987E-02
    9016.060     20.385   2.720  1.05109E+00  1.02656E+00  2.45262E-02
    9016.895     21.220   2.760  1.03390E+00  1.02525E+00  8.64965E-03
    9017.743     22.067   2.800  1.01923E+00  1.02383E+00 -4.60338E-03
    9018.602     22.927   2.840  1.00609E+00  1.02233E+00 -1.62327E-02
    9019.474     23.799   2.880  9.94011E-01  1.02077E+00 -2.67609E-02
    9020.358     24.682   2.920  9.82364E-01  1.01917E+00 -3.68077E-02
    9021.254     25.579   2.960  9.70959E-01  1.01753E+00 -4.65751E-02
    9022.162     26.487   3.000  9.60123E-01  1.01589E+00 -5.57645E-02
    9023.083     27.407   3.040  9.50547E-01  1.01421E+00 -6.36659E-02
    9024.015     28.340   3.080  9.43015E-01  1.01256E+00 -6.95480E-02
    9024.960     29.285   3.120  9.37986E-01  1.01094E+00 -7.29562E-02
    9025.917     30.242   3.160  9.35120E-01  1.00933E+00 -7.42095E-02
    9026.887     31.211   3.200  9.33462E-01  1.00773E+00 -7.42715E-02
    9027.868     32.193   3.240  9.32017E-01  1.00620E+00 -7.41828E-02
    9028.862     33.186   3.280  9.29683E-01  1.00473E+00 -7.50487E-02
    9029.868     34.192   3.320  9.25587E-01  1.00329E+00 -7.77027E-02
    9030.886     35.210   3.360  9.19430E-01  1.00194E+00 -8.25105E-02
    9031.916     36.240   3.400  9.11197E-01  1.00062E+00 -8.94268E-02
    9032.958     37.283   3.440  9.01408E-01  9.99404E-01 -9.79958E-02
    9034.013     38.337   3.480  8.90954E-01  9.98263E-01 -1.07309E-01
    9035.080     39.404   3.520  8.81025E-01  9.97181E-01 -1.16155E-01
    9036.159     40.483   3.560  8.72638E-01  9.96202E-01 -1.23564E-01
    9037.250     41.574   3.600  8.66519E-01  9.95308E-01 -1.28788E-01
    9038.353     42.678   3.640  8.63041E-01  9.94496E-01 -1.31455E-01
    9039.469     43.793   3.680  8.62184E-01  9.93768E-01 -1.31584E-01
    9040.596     44.921   3.720  8.63570E-01  9.93126E-01 -1.29556E-01
    9041.736     46.061   3.760  8.66971E-01  9.92592E-01 -1.25621E-01
    9042.889     47.213   3.800  8.72260E-01  9.92143E-01 -1.19882E-01
    9044.053     48.377   3.840  8.79469E-01  9.91778E-01 -1.12309E-01
    9045.229     49.554   3.880  8.88783E-01  9.91500E-01 -1.02717E-01
    9046.418     50.743   3.920  9.00468E-01  9.91329E-01 -9.08615E-02
    9047.619     51.944   3.960  9.14603E-01  9.91242E-01 -7.66394E-02
    9048.832     53.157   4.000  9.30955E-01  9.91236E-01 -6.02812E-02
    9050.057     54.382   4.040  9.48965E-01  9.91292E-01 -4.23271E-02
    9051.295     55.619   4.080  9.67761E-01  9.91450E-01 -2.36891E-02
    9052.545     56.869   4.120  9.86200E-01  9.91691E-01 -5.49091E-03
    9053.806     58.131   4.160  1.00338E+00  9.92011E-01  1.13638E-02
    9055.081     59.405   4.200  1.01880E+00  9.92409E-01  2.63875E-02
    9056.367     60.691   4.240  1.03235E+00  9.92860E-01  3.94891E-02
    9057.665     61.990   4.280  1.04425E+00  9.93386E-01  5.08651E-02
    9058.976     63.300   4.320  1.05478E+00  9.93985E-01  6.07996E-02
    9060.299     64.623   4.360  1.06415E+00  9.94633E-01  6.95137E-02
    9061.634     65.958   4.400  1.07245E+00  9.95328E-01  7.71249E-02
    9062.981     67.305   4.440  1.07977E+00  9.96089E-01  8.36785E-02
    9064.340     68.665   4.480  1.08585E+00  9.96895E-01  8.89581E-02
    9065.712     70.036   4.520  1.09029E+00  9.97740E-01  9.25495E-02
    9067.096     71.420   4.560  1.09264E+00  9.98602E-01  9.40399E-02
    9068.492     72.816   4.600  1.09275E+00  9.99520E-01  9.32292E-02
    9069.900     74.224   4.640  1.09068E+00  1.00045E+00  9.02248E-02
    9071.320     75.645   4.680  1.08689E+00  1.00142E+00  8.54709E-02
    9072.753     77.077   4.720  1.08186E+00  1.00239E+00  7.94706E-02
    9074.197     78.522   4.760  1.07600E+00  1.00339E+00  7.26104E-02
    9075.654     79.979   4.800  1.06946E+00  1.00440E+00  6.50580E-02
    9077.124     81.448   4.840  1.06219E+00  1.00540E+00  5.67850E-02
    9078.605     82.929   4.880  1.05424E+00  1.00641E+00  4.78308E-02
    9080.098     84.423   4.920  1.04604E+00  1.00738E+00  3.86616E-02
    9081.604     85.929   4.960  1.03849E+00  1.00837E+00  3.01134E-02
    9083.122     87.447   5.000  1.03241E+00  1.00931E+00  2.30945E-02
    9084.652     88.977   5.040  1.02848E+00  1.01026E+00  1.82142E-02
    9086.194     90.519   5.080  1.02674E+00  1.01118E+00  1.55543E-02
    9087.749     92.073   5.120  1.02679E+00  1.01206E+00  1.47306E-02
    9089.316     93.640   5.160  1.02797E+00  1.01290E+00  1.50662E-02
    9090.894     95.219   5.200  1.02951E+00  1.01370E+00  1.58162E-02
    9092.485     96.810   5.240  1.03082E+00  1.01445E+00  1.63619E-02
    9094.089     98.413   5.280  1.03143E+00  1.01517E+00  1.62632E-02
    9095.704    100.029   5.320  1.03107E+00  1.01584E+00  1.52297E-02
    9097.332    101.656   5.360  1.02953E+00  1.01646E+00  1.30713E-02
    9098.972    103.296   5.400  1.02668E+00  1.01701E+00  9.67256E-03
    9100.624    104.948   5.440  1.02238E+00  1.01751E+00  4.86523E-03
    9102.288    106.612   5.480  1.01634E+00  1.01794E+00 -1.60579E-03
    9103.964    108.289   5.520  1.00846E+00  1.01832E+00 -9.86279E-03
    9105.653    109.977   5.560  9.99018E-01  1.01863E+00 -1.96078E-02
    9107.353    111.678   5.600  9.88800E-01  1.01888E+00 -3.00787E-02
    9109.066    113.391   5.640  9.78793E-01  1.01906E+00 -4.02626E-02
    9110.792    115.116   5.680  9.70005E-01  1.01916E+00 -4.91523E-02
    9112.529    116.854   5.720  9.63233E-01  1.01921E+00 -5.59728E-02
    9114.279    118.603   5.760  9.58974E-01  1.01918E+00 -6.02056E-02
    9116.040    120.365   5.800  9.57516E-01  1.01908E+00 -6.15624E-02
    9117.814    122.139   5.840  9.58971E-01  1.01893E+00 -5.99557E-02
    9119.600    123.925   5.880  9.63105E-01  1.01870E+00 -5.55973E-02
    9121.399    125.723   5.920  9.69397E-01  1.01843E+00 -4.90323E-02
    9123.209    127.534   5.960  9.77031E-01  1.01807E+00 -4.10444E-02
    9125.032    129.356   6.000  9.85281E-01  1.01759E+00 -3.23114E-02
