# # comment:                                                     FEFF 9.9.1  
# # Source:
# # Structure
# # Reduced
# # space
# # abc:
# # angles:
# # sites:
# # POT  SCF 100  7.0000   0, screened core-hole, AFOLP (folp(0)= 1.150)
# # Abs   Z=29 Rmt= 1.568 Rnm= 1.618 K  shell
# # Pot 1 Z=37 Rmt= 1.751 Rnm= 1.816
# # Pot 2 Z=29 Rmt= 1.570 Rnm= 1.621
# # Pot 3 Z= 8 Rmt= 1.196 Rnm= 1.241
# # Gam_ch=1.729E+00 H-L exch Vi= 0.000E+00 Vr= 0.000E+00
# # Mu=-8.920E+00eV kf=1.529E+00 Vint=-1.372E+01eV Rs_int= 2.372
# FMS rfms= 9.0000
# # PATH  Rmax=-1.000,  Keep_limit= 0.00, Heap_limit 0.00  Pwcrit= 2.50%
#  S02=0.950  Temp=   0.00  Debye_temp=   0.00  Global_sig2= 0.00000
#  Energy zero shift, vr, vi    0.00000E+00   0.00000E+00
#  Curved wave amplitude ratio filter   4.000%
#     file         sig2 tot  cw amp ratio   deg  nlegs   reff  inp sig2
#     0/   0 paths used
#  xsedge+ 50, used to normalize mu           2.4594E-04
#  -----------------------------------------------------------------------
#  omega    e    k    mu    mu0     chi     @#
    8985.562    -12.730  -1.000  5.91374E-02  6.41712E-02 -5.03386E-03
    8985.860    -12.432  -0.960  6.29264E-02  6.90800E-02 -6.15353E-03
    8986.147    -12.145  -0.920  6.70149E-02  7.45430E-02 -7.52808E-03
    8986.421    -11.871  -0.880  7.14267E-02  8.06409E-02 -9.21415E-03
    8986.683    -11.609  -0.840  7.61871E-02  8.74674E-02 -1.12802E-02
    8986.933    -11.359  -0.800  8.13221E-02  9.51306E-02 -1.38085E-02
    8987.171    -11.121  -0.760  8.68579E-02  1.03754E-01 -1.68965E-02
    8987.397    -10.895  -0.720  9.28202E-02  1.13478E-01 -2.06576E-02
    8987.610    -10.682  -0.680  9.92328E-02  1.24454E-01 -2.52211E-02
    8987.811    -10.481  -0.640  1.06115E-01  1.36843E-01 -3.07278E-02
    8988.000    -10.292  -0.600  1.13481E-01  1.50804E-01 -3.73227E-02
    8988.177    -10.115  -0.560  1.21330E-01  1.66468E-01 -4.51385E-02
    8988.342     -9.951  -0.520  1.29644E-01  1.83916E-01 -5.42717E-02
    8988.494     -9.798  -0.480  1.38380E-01  2.03127E-01 -6.47478E-02
    8988.634     -9.658  -0.440  1.47456E-01  2.23936E-01 -7.64806E-02
    8988.762     -9.530  -0.400  1.56749E-01  2.45987E-01 -8.92383E-02
    8988.878     -9.414  -0.360  1.66088E-01  2.68720E-01 -1.02632E-01
    8988.982     -9.310  -0.320  1.75264E-01  2.91407E-01 -1.16143E-01
    8989.073     -9.219  -0.280  1.84042E-01  3.13238E-01 -1.29195E-01
    8989.152     -9.140  -0.240  1.92185E-01  3.33425E-01 -1.41241E-01
    8989.219     -9.073  -0.200  1.99468E-01  3.51304E-01 -1.51836E-01
    8989.274     -9.018  -0.160  2.05698E-01  3.66376E-01 -1.60679E-01
    8989.317     -8.975  -0.120  2.10718E-01  3.78318E-01 -1.67600E-01
    8989.347     -8.945  -0.080  2.14406E-01  3.86937E-01 -1.72531E-01
    8989.372     -8.920   0.000  2.17456E-01  3.93873E-01 -1.76416E-01
    8989.427     -8.865   0.120  2.24435E-01  4.09528E-01 -1.85093E-01
    8989.469     -8.823   0.160  2.29932E-01  4.21745E-01 -1.91812E-01
    8989.524     -8.768   0.200  2.37125E-01  4.37377E-01 -2.00251E-01
    8989.591     -8.701   0.240  2.46199E-01  4.56293E-01 -2.10094E-01
    8989.670     -8.622   0.280  2.57297E-01  4.78135E-01 -2.20838E-01
    8989.762     -8.530   0.320  2.70708E-01  5.02466E-01 -2.31758E-01
    8989.866     -8.427   0.360  2.86756E-01  5.28641E-01 -2.41885E-01
    8989.981     -8.311   0.400  3.05984E-01  5.55985E-01 -2.50001E-01
    8990.109     -8.183   0.440  3.29210E-01  5.83865E-01 -2.54654E-01
    8990.250     -8.042   0.480  3.57672E-01  6.11766E-01 -2.54094E-01
    8990.402     -7.890   0.520  3.93161E-01  6.39333E-01 -2.46172E-01
    8990.567     -7.725   0.560  4.37933E-01  6.66289E-01 -2.28355E-01
    8990.743     -7.549   0.600  4.94552E-01  6.92531E-01 -1.97979E-01
    8990.932     -7.360   0.640  5.64655E-01  7.17990E-01 -1.53335E-01
    8991.133     -7.159   0.680  6.46504E-01  7.42627E-01 -9.61226E-02
    8991.347     -6.945   0.720  7.31711E-01  7.66437E-01 -3.47256E-02
    8991.572     -6.720   0.760  8.05555E-01  7.89373E-01  1.61816E-02
    8991.810     -6.482   0.800  8.57007E-01  8.11419E-01  4.55882E-02
    8992.060     -6.232   0.840  8.91799E-01  8.32502E-01  5.92974E-02
    8992.322     -5.970   0.880  9.32551E-01  8.52583E-01  7.99682E-02
    8992.597     -5.696   0.920  1.00675E+00  8.71592E-01  1.35154E-01
    8992.883     -5.409   0.960  1.13749E+00  8.89493E-01  2.47997E-01
    8993.182     -5.110   1.000  1.33721E+00  9.06210E-01  4.30997E-01
    8993.493     -4.799   1.040  1.58960E+00  9.21723E-01  6.67878E-01
    8993.816     -4.476   1.080  1.81608E+00  9.35997E-01  8.80087E-01
    8994.151     -4.141   1.120  1.88918E+00  9.48996E-01  9.40181E-01
    8994.498     -3.794   1.160  1.75721E+00  9.60733E-01  7.96475E-01
    8994.858     -3.434   1.200  1.50944E+00  9.71204E-01  5.38235E-01
    8995.230     -3.062   1.240  1.26213E+00  9.80430E-01  2.81701E-01
    8995.614     -2.678   1.280  1.07282E+00  9.88458E-01  8.43609E-02
    8996.010     -2.282   1.320  9.52677E-01  9.95340E-01 -4.26623E-02
    8996.419     -1.873   1.360  8.95413E-01  1.00113E+00 -1.05716E-01
    8996.839     -1.453   1.400  8.90830E-01  1.00590E+00 -1.15075E-01
    8997.272     -1.020   1.440  9.25343E-01  1.00971E+00 -8.43635E-02
    8997.717     -0.575   1.480  9.76323E-01  1.01261E+00 -3.62914E-02
    8998.174     -0.118   1.520  1.01293E+00  1.01473E+00 -1.80292E-03
    8998.644      0.352   1.560  1.01367E+00  1.01612E+00 -2.44904E-03
    8999.125      0.833   1.600  9.79067E-01  1.01685E+00 -3.77822E-02
    8999.619      1.327   1.640  9.21504E-01  1.01701E+00 -9.55045E-02
    9000.125      1.833   1.680  8.60852E-01  1.01668E+00 -1.55829E-01
    9000.643      2.351   1.720  8.18813E-01  1.01590E+00 -1.97092E-01
    9001.174      2.882   1.760  8.15098E-01  1.01477E+00 -1.99674E-01
    9001.716      3.424   1.800  8.56332E-01  1.01334E+00 -1.57006E-01
    9002.271      3.979   1.840  9.42030E-01  1.01165E+00 -6.96219E-02
    9002.838      4.546   1.880  1.04613E+00  1.00978E+00  3.63450E-02
    9003.417      5.125   1.920  1.11584E+00  1.00775E+00  1.08087E-01
    9004.008      5.716   1.960  1.10233E+00  1.00564E+00  9.66930E-02
    9004.612      6.320   2.000  1.04239E+00  1.00346E+00  3.89359E-02
    9005.227      6.935   2.040  9.82354E-01  1.00123E+00 -1.88813E-02
    9005.855      7.563   2.080  9.37075E-01  9.99031E-01 -6.19560E-02
    9006.495      8.203   2.120  9.06888E-01  9.96860E-01 -8.99724E-02
    9007.148      8.856   2.160  8.90115E-01  9.94733E-01 -1.04618E-01
    9007.812      9.520   2.200  8.83649E-01  9.92704E-01 -1.09055E-01
    9008.489     10.197   2.240  8.84212E-01  9.90759E-01 -1.06547E-01
    9009.178     10.886   2.280  8.90305E-01  9.88905E-01 -9.86004E-02
    9009.879     11.587   2.320  9.01551E-01  9.87191E-01 -8.56398E-02
    9010.592     12.300   2.360  9.17678E-01  9.85602E-01 -6.79242E-02
    9011.317     13.025   2.400  9.37449E-01  9.84140E-01 -4.66911E-02
    9012.055     13.763   2.440  9.58463E-01  9.82851E-01 -2.43885E-02
    9012.805     14.513   2.480  9.78761E-01  9.81673E-01 -2.91182E-03
    9013.567     15.275   2.520  9.96979E-01  9.80672E-01  1.63067E-02
    9014.341     16.049   2.560  1.01265E+00  9.79806E-01  3.28474E-02
    9015.127     16.835   2.600  1.02616E+00  9.79116E-01  4.70416E-02
    9015.926     17.634   2.640  1.03716E+00  9.78540E-01  5.86165E-02
    9016.737     18.445   2.680  1.04527E+00  9.78138E-01  6.71344E-02
    9017.560     19.267   2.720  1.05027E+00  9.77868E-01  7.24042E-02
    9018.395     20.103   2.760  1.05215E+00  9.77749E-01  7.43983E-02
    9019.242     20.950   2.800  1.05148E+00  9.77754E-01  7.37222E-02
    9020.102     21.810   2.840  1.04951E+00  9.77884E-01  7.16263E-02
    9020.973     22.681   2.880  1.04767E+00  9.78134E-01  6.95331E-02
    9021.857     23.565   2.920  1.04673E+00  9.78504E-01  6.82286E-02
    9022.753     24.461   2.960  1.04657E+00  9.78987E-01  6.75802E-02
    9023.662     25.370   3.000  1.04614E+00  9.79559E-01  6.65836E-02
    9024.582     26.290   3.040  1.04391E+00  9.80238E-01  6.36760E-02
    9025.515     27.223   3.080  1.03849E+00  9.80998E-01  5.74965E-02
    9026.460     28.168   3.120  1.02908E+00  9.81814E-01  4.72648E-02
    9027.417     29.125   3.160  1.01555E+00  9.82702E-01  3.28455E-02
    9028.386     30.094   3.200  9.98490E-01  9.83660E-01  1.48301E-02
    9029.367     31.075   3.240  9.79163E-01  9.84662E-01 -5.49914E-03
    9030.361     32.069   3.280  9.59136E-01  9.85702E-01 -2.65664E-02
    9031.367     33.075   3.320  9.40127E-01  9.86757E-01 -4.66296E-02
    9032.385     34.093   3.360  9.24000E-01  9.87863E-01 -6.38637E-02
    9033.415     35.123   3.400  9.12283E-01  9.88954E-01 -7.66709E-02
    9034.458     36.166   3.440  9.06224E-01  9.90066E-01 -8.38423E-02
    9035.512     37.220   3.480  9.06521E-01  9.91179E-01 -8.46572E-02
    9036.579     38.287   3.520  9.12660E-01  9.92263E-01 -7.96032E-02
    9037.658     39.366   3.560  9.23232E-01  9.93338E-01 -7.01061E-02
    9038.749     40.457   3.600  9.36098E-01  9.94403E-01 -5.83043E-02
    9039.853     41.560   3.640  9.49099E-01  9.95431E-01 -4.63319E-02
    9040.968     42.676   3.680  9.60784E-01  9.96419E-01 -3.56353E-02
    9042.096     43.804   3.720  9.70859E-01  9.97366E-01 -2.65067E-02
    9043.236     44.944   3.760  9.80091E-01  9.98268E-01 -1.81766E-02
    9044.388     46.096   3.800  9.89692E-01  9.99124E-01 -9.43257E-03
    9045.552     47.260   3.840  1.00048E+00  9.99912E-01  5.70799E-04
    9046.729     48.437   3.880  1.01210E+00  1.00065E+00  1.14499E-02
    9047.917     49.625   3.920  1.02278E+00  1.00134E+00  2.14374E-02
    9049.118     50.826   3.960  1.03039E+00  1.00195E+00  2.84405E-02
    9050.331     52.039   4.000  1.03391E+00  1.00252E+00  3.13965E-02
    9051.557     53.265   4.040  1.03369E+00  1.00301E+00  3.06835E-02
    9052.794     54.502   4.080  1.03110E+00  1.00345E+00  2.76513E-02
    9054.044     55.752   4.120  1.02772E+00  1.00381E+00  2.39025E-02
    9055.306     57.014   4.160  1.02489E+00  1.00413E+00  2.07652E-02
    9056.580     58.288   4.200  1.02369E+00  1.00437E+00  1.93146E-02
    9057.866     59.574   4.240  1.02470E+00  1.00456E+00  2.01344E-02
    9059.165     60.873   4.280  1.02761E+00  1.00471E+00  2.29075E-02
    9060.475     62.183   4.320  1.03081E+00  1.00478E+00  2.60372E-02
    9061.798     63.506   4.360  1.03182E+00  1.00478E+00  2.70410E-02
    9063.133     64.841   4.400  1.02856E+00  1.00476E+00  2.38036E-02
    9064.480     66.188   4.440  1.02043E+00  1.00470E+00  1.57335E-02
    9065.840     67.548   4.480  1.00865E+00  1.00457E+00  4.07671E-03
    9067.211     68.919   4.520  9.95860E-01  1.00442E+00 -8.56485E-03
    9068.595     70.303   4.560  9.85153E-01  1.00424E+00 -1.90874E-02
    9069.991     71.699   4.600  9.79024E-01  1.00402E+00 -2.49943E-02
    9071.399     73.107   4.640  9.78546E-01  1.00376E+00 -2.52154E-02
    9072.820     74.527   4.680  9.83070E-01  1.00350E+00 -2.04248E-02
    9074.252     75.960   4.720  9.90368E-01  1.00322E+00 -1.28507E-02
    9075.697     77.405   4.760  9.97596E-01  1.00291E+00 -5.31673E-03
    9077.154     78.862   4.800  1.00288E+00  1.00260E+00  2.82698E-04
    9078.623     80.331   4.840  1.00632E+00  1.00226E+00  4.05479E-03
    9080.104     81.812   4.880  1.00995E+00  1.00194E+00  8.00756E-03
    9081.598     83.306   4.920  1.01625E+00  1.00162E+00  1.46319E-02
    9083.103     84.811   4.960  1.02634E+00  1.00128E+00  2.50566E-02
    9084.621     86.329   5.000  1.03876E+00  1.00096E+00  3.77964E-02
    9086.151     87.859   5.040  1.04905E+00  1.00065E+00  4.83999E-02
    9087.694     89.402   5.080  1.05134E+00  1.00033E+00  5.10020E-02
    9089.248     90.956   5.120  1.04172E+00  1.00005E+00  4.16650E-02
    9090.815     92.523   5.160  1.02088E+00  9.99773E-01  2.11037E-02
    9092.394     94.102   5.200  9.93875E-01  9.99500E-01 -5.62490E-03
    9093.985     95.693   5.240  9.67711E-01  9.99257E-01 -3.15458E-02
    9095.588     97.296   5.280  9.48611E-01  9.99019E-01 -5.04080E-02
    9097.203     98.911   5.320  9.40102E-01  9.98787E-01 -5.86854E-02
    9098.831    100.539   5.360  9.42023E-01  9.98584E-01 -5.65613E-02
    9100.471    102.179   5.400  9.50733E-01  9.98390E-01 -4.76570E-02
    9102.123    103.831   5.440  9.61010E-01  9.98225E-01 -3.72141E-02
    9103.787    105.495   5.480  9.68090E-01  9.98065E-01 -2.99753E-02
    9105.463    107.171   5.520  9.69304E-01  9.97911E-01 -2.86079E-02
    9107.152    108.860   5.560  9.65358E-01  9.97785E-01 -3.24278E-02
    9108.853    110.561   5.600  9.60348E-01  9.97665E-01 -3.73171E-02
    9110.566    112.274   5.640  9.59400E-01  9.97548E-01 -3.81484E-02
    9112.291    113.999   5.680  9.65380E-01  9.97435E-01 -3.20547E-02
    9114.028    115.736   5.720  9.77900E-01  9.97348E-01 -1.94486E-02
    9115.778    117.486   5.760  9.94629E-01  9.97263E-01 -2.63463E-03
    9117.540    119.248   5.800  1.01320E+00  9.97156E-01  1.60414E-02
    9119.314    121.021   5.840  1.03228E+00  9.97073E-01  3.52023E-02
    9121.100    122.808   5.880  1.05109E+00  9.96991E-01  5.40994E-02
    9122.898    124.606   5.920  1.06803E+00  9.96884E-01  7.11442E-02
    9124.708    126.416   5.960  1.07982E+00  9.96778E-01  8.30394E-02
    9126.531    128.239   6.000  1.08229E+00  9.96701E-01  8.55896E-02
