# # comment:                                                     FEFF 9.9.1  
# # Source:
# # Structure
# # Reduced
# # space
# # abc:
# # angles:
# # sites:
# # POT  SCF 100  7.0000   0, screened core-hole, AFOLP (folp(0)= 1.150)
# # Abs   Z=29 Rmt= 1.359 Rnm= 1.433 K  shell
# # Pot 1 Z=29 Rmt= 1.359 Rnm= 1.433
# # Pot 2 Z=83 Rmt= 1.634 Rnm= 1.723
# # Pot 3 Z=34 Rmt= 1.538 Rnm= 1.622
# # Pot 4 Z= 8 Rmt= 1.067 Rnm= 1.127
# # Gam_ch=1.729E+00 H-L exch Vi= 0.000E+00 Vr= 0.000E+00
# # Mu=-5.068E+00eV kf=1.889E+00 Vint=-1.314E+01eV Rs_int= 1.919
# FMS rfms= 9.0000
# # PATH  Rmax=-1.000,  Keep_limit= 0.00, Heap_limit 0.00  Pwcrit= 2.50%
#  S02=0.950  Temp=   0.00  Debye_temp=   0.00  Global_sig2= 0.00000
#  Energy zero shift, vr, vi    0.00000E+00   0.00000E+00
#  Curved wave amplitude ratio filter   4.000%
#     file         sig2 tot  cw amp ratio   deg  nlegs   reff  inp sig2
#     0/   0 paths used
#  xsedge+ 50, used to normalize mu           2.4411E-04
#  -----------------------------------------------------------------------
#  omega    e    k    mu    mu0     chi     @#
    8983.643     -8.878  -1.000  5.72099E-02  6.59477E-02 -8.73778E-03
    8983.942     -8.579  -0.960  6.10868E-02  7.11273E-02 -1.00405E-02
    8984.229     -8.293  -0.920  6.53375E-02  7.69136E-02 -1.15761E-02
    8984.503     -8.018  -0.880  7.00085E-02  8.33982E-02 -1.33897E-02
    8984.765     -7.756  -0.840  7.51526E-02  9.06881E-02 -1.55355E-02
    8985.015     -7.506  -0.800  8.08295E-02  9.89071E-02 -1.80776E-02
    8985.253     -7.268  -0.760  8.71062E-02  1.08198E-01 -2.10917E-02
    8985.478     -7.043  -0.720  9.40562E-02  1.18722E-01 -2.46654E-02
    8985.692     -6.830  -0.680  1.01759E-01  1.30656E-01 -2.88976E-02
    8985.893     -6.628  -0.640  1.10295E-01  1.44190E-01 -3.38956E-02
    8986.082     -6.439  -0.600  1.19741E-01  1.59509E-01 -3.97680E-02
    8986.259     -6.263  -0.560  1.30160E-01  1.76772E-01 -4.66123E-02
    8986.423     -6.098  -0.520  1.41582E-01  1.96075E-01 -5.44937E-02
    8986.576     -5.946  -0.480  1.53985E-01  2.17402E-01 -6.34166E-02
    8986.716     -5.805  -0.440  1.67272E-01  2.40563E-01 -7.32917E-02
    8986.844     -5.677  -0.400  1.81244E-01  2.65152E-01 -8.39083E-02
    8986.960     -5.562  -0.360  1.95595E-01  2.90523E-01 -9.49281E-02
    8987.063     -5.458  -0.320  2.09924E-01  3.15839E-01 -1.05915E-01
    8987.155     -5.367  -0.280  2.23774E-01  3.40170E-01 -1.16396E-01
    8987.234     -5.287  -0.240  2.36682E-01  3.62624E-01 -1.25942E-01
    8987.301     -5.220  -0.200  2.48231E-01  3.82457E-01 -1.34226E-01
    8987.356     -5.165  -0.160  2.58081E-01  3.99129E-01 -1.41048E-01
    8987.398     -5.123  -0.120  2.65980E-01  4.12298E-01 -1.46317E-01
    8987.429     -5.092  -0.080  2.71756E-01  4.21777E-01 -1.50020E-01
    8987.453     -5.068   0.000  2.76503E-01  4.29385E-01 -1.52882E-01
    8987.508     -5.013   0.120  2.87018E-01  4.46547E-01 -1.59529E-01
    8987.551     -4.970   0.160  2.95264E-01  4.59854E-01 -1.64590E-01
    8987.606     -4.915   0.200  3.05944E-01  4.76806E-01 -1.70862E-01
    8987.673     -4.848   0.240  3.19095E-01  4.97176E-01 -1.78082E-01
    8987.752     -4.769   0.280  3.34667E-01  5.20489E-01 -1.85823E-01
    8987.843     -4.678   0.320  3.52516E-01  5.46091E-01 -1.93575E-01
    8987.947     -4.574   0.360  3.72452E-01  5.73197E-01 -2.00745E-01
    8988.063     -4.458   0.400  3.94180E-01  6.00913E-01 -2.06733E-01
    8988.191     -4.330   0.440  4.17513E-01  6.28516E-01 -2.11004E-01
    8988.331     -4.190   0.480  4.42202E-01  6.55311E-01 -2.13110E-01
    8988.484     -4.038   0.520  4.68296E-01  6.80956E-01 -2.12661E-01
    8988.648     -3.873   0.560  4.95788E-01  7.05185E-01 -2.09397E-01
    8988.825     -3.696   0.600  5.24686E-01  7.27946E-01 -2.03261E-01
    8989.014     -3.507   0.640  5.54827E-01  7.49309E-01 -1.94483E-01
    8989.215     -3.306   0.680  5.85829E-01  7.69314E-01 -1.83484E-01
    8989.428     -3.093   0.720  6.17567E-01  7.88082E-01 -1.70515E-01
    8989.654     -2.867   0.760  6.50403E-01  8.05736E-01 -1.55333E-01
    8989.892     -2.629   0.800  6.85218E-01  8.22366E-01 -1.37148E-01
    8990.142     -2.379   0.840  7.22875E-01  8.38043E-01 -1.15169E-01
    8990.404     -2.117   0.880  7.63307E-01  8.52823E-01 -8.95168E-02
    8990.678     -1.843   0.920  8.05491E-01  8.66766E-01 -6.12751E-02
    8990.965     -1.557   0.960  8.48443E-01  8.79915E-01 -3.14725E-02
    8991.263     -1.258   1.000  8.91784E-01  8.92283E-01 -4.99922E-04
    8991.574     -0.947   1.040  9.35889E-01  9.03893E-01  3.19961E-02
    8991.897     -0.624   1.080  9.80555E-01  9.14757E-01  6.57983E-02
    8992.233     -0.289   1.120  1.02099E+00  9.24884E-01  9.61025E-02
    8992.580      0.059   1.160  1.04889E+00  9.34301E-01  1.14594E-01
    8992.940      0.419   1.200  1.06140E+00  9.42967E-01  1.18435E-01
    8993.312      0.790   1.240  1.06282E+00  9.50962E-01  1.11860E-01
    8993.696      1.174   1.280  1.05546E+00  9.58245E-01  9.72108E-02
    8994.092      1.571   1.320  1.03753E+00  9.64853E-01  7.26751E-02
    8994.500      1.979   1.360  1.01051E+00  9.70783E-01  3.97253E-02
    8994.921      2.400   1.400  9.85225E-01  9.76096E-01  9.12887E-03
    8995.354      2.833   1.440  9.79533E-01  9.80787E-01 -1.25386E-03
    8995.799      3.278   1.480  1.00831E+00  9.84875E-01  2.34371E-02
    8996.256      3.735   1.520  1.07293E+00  9.88400E-01  8.45255E-02
    8996.725      4.204   1.560  1.15743E+00  9.91381E-01  1.66054E-01
    8997.207      4.686   1.600  1.23453E+00  9.93878E-01  2.40649E-01
    8997.701      5.180   1.640  1.27868E+00  9.95909E-01  2.82771E-01
    8998.207      5.685   1.680  1.28106E+00  9.97474E-01  2.83586E-01
    8998.725      6.204   1.720  1.25234E+00  9.98654E-01  2.53683E-01
    8999.255      6.734   1.760  1.20864E+00  9.99468E-01  2.09175E-01
    8999.798      7.277   1.800  1.16011E+00  9.99933E-01  1.60176E-01
    9000.352      7.831   1.840  1.11117E+00  1.00009E+00  1.11081E-01
    9000.919      8.398   1.880  1.06664E+00  9.99996E-01  6.66477E-02
    9001.498      8.977   1.920  1.03495E+00  9.99649E-01  3.53045E-02
    9002.090      9.569   1.960  1.02389E+00  9.99085E-01  2.48016E-02
    9002.693     10.172   2.000  1.03279E+00  9.98359E-01  3.44340E-02
    9003.309     10.788   2.040  1.04855E+00  9.97466E-01  5.10806E-02
    9003.937     11.416   2.080  1.05197E+00  9.96442E-01  5.55290E-02
    9004.577     12.056   2.120  1.03608E+00  9.95340E-01  4.07355E-02
    9005.229     12.708   2.160  1.01442E+00  9.94132E-01  2.02875E-02
    9005.894     13.373   2.200  9.92595E-01  9.92891E-01 -2.96843E-04
    9006.570     14.049   2.240  9.64221E-01  9.91608E-01 -2.73869E-02
    9007.259     14.738   2.280  9.25378E-01  9.90311E-01 -6.49331E-02
    9007.960     15.439   2.320  8.89382E-01  9.89011E-01 -9.96290E-02
    9008.673     16.152   2.360  8.71969E-01  9.87736E-01 -1.15768E-01
    9009.399     16.878   2.400  8.71050E-01  9.86494E-01 -1.15443E-01
    9010.136     17.615   2.440  8.80647E-01  9.85290E-01 -1.04643E-01
    9010.886     18.365   2.480  8.95875E-01  9.84132E-01 -8.82568E-02
    9011.648     19.127   2.520  9.13275E-01  9.83045E-01 -6.97697E-02
    9012.422     19.901   2.560  9.31448E-01  9.82055E-01 -5.06070E-02
    9013.209     20.688   2.600  9.49707E-01  9.81126E-01 -3.14187E-02
    9014.007     21.486   2.640  9.67178E-01  9.80300E-01 -1.31227E-02
    9014.818     22.297   2.680  9.83762E-01  9.79561E-01  4.20073E-03
    9015.641     23.120   2.720  9.99984E-01  9.78932E-01  2.10519E-02
    9016.476     23.955   2.760  1.01536E+00  9.78395E-01  3.69623E-02
    9017.324     24.802   2.800  1.02827E+00  9.77972E-01  5.02992E-02
    9018.183     25.662   2.840  1.03727E+00  9.77665E-01  5.96004E-02
    9019.055     26.534   2.880  1.04114E+00  9.77475E-01  6.36600E-02
    9019.939     27.418   2.920  1.03925E+00  9.77402E-01  6.18510E-02
    9020.835     28.314   2.960  1.03210E+00  9.77425E-01  5.46797E-02
    9021.743     29.222   3.000  1.02098E+00  9.77585E-01  4.33997E-02
    9022.664     30.143   3.040  1.00745E+00  9.77840E-01  2.96099E-02
    9023.596     31.075   3.080  9.92598E-01  9.78210E-01  1.43880E-02
    9024.541     32.020   3.120  9.77150E-01  9.78671E-01 -1.52138E-03
    9025.498     32.977   3.160  9.61986E-01  9.79245E-01 -1.72589E-02
    9026.468     33.946   3.200  9.48446E-01  9.79930E-01 -3.14838E-02
    9027.449     34.928   3.240  9.37948E-01  9.80703E-01 -4.27549E-02
    9028.443     35.922   3.280  9.31744E-01  9.81559E-01 -4.98155E-02
    9029.449     36.927   3.320  9.30737E-01  9.82499E-01 -5.17616E-02
    9030.467     37.945   3.360  9.35451E-01  9.83541E-01 -4.80902E-02
    9031.497     38.976   3.400  9.45717E-01  9.84639E-01 -3.89217E-02
    9032.539     40.018   3.440  9.60556E-01  9.85810E-01 -2.52544E-02
    9033.594     41.073   3.480  9.78005E-01  9.87032E-01 -9.02726E-03
    9034.661     42.139   3.520  9.95413E-01  9.88322E-01  7.09120E-03
    9035.740     43.218   3.560  1.01012E+00  9.89658E-01  2.04664E-02
    9036.831     44.310   3.600  1.02030E+00  9.91056E-01  2.92421E-02
    9037.934     45.413   3.640  1.02542E+00  9.92468E-01  3.29520E-02
    9039.050     46.529   3.680  1.02649E+00  9.93892E-01  3.25987E-02
    9040.177     47.656   3.720  1.02511E+00  9.95368E-01  2.97440E-02
    9041.317     48.796   3.760  1.02236E+00  9.96828E-01  2.55342E-02
    9042.470     49.948   3.800  1.01854E+00  9.98311E-01  2.02270E-02
    9043.634     51.113   3.840  1.01336E+00  9.99793E-01  1.35682E-02
    9044.810     52.289   3.880  1.00664E+00  1.00127E+00  5.37140E-03
    9045.999     53.478   3.920  9.98680E-01  1.00271E+00 -4.03304E-03
    9047.200     54.679   3.960  9.90370E-01  1.00412E+00 -1.37529E-02
    9048.413     55.892   4.000  9.82716E-01  1.00552E+00 -2.28023E-02
    9049.638     57.117   4.040  9.76407E-01  1.00687E+00 -3.04674E-02
    9050.876     58.355   4.080  9.71855E-01  1.00819E+00 -3.63319E-02
    9052.126     59.604   4.120  9.69380E-01  1.00946E+00 -4.00758E-02
    9053.387     60.866   4.160  9.69301E-01  1.01068E+00 -4.13739E-02
    9054.661     62.140   4.200  9.71880E-01  1.01182E+00 -3.99403E-02
    9055.948     63.427   4.240  9.77069E-01  1.01289E+00 -3.58203E-02
    9057.246     64.725   4.280  9.84589E-01  1.01390E+00 -2.93139E-02
    9058.557     66.036   4.320  9.94015E-01  1.01481E+00 -2.08001E-02
    9059.880     67.358   4.360  1.00501E+00  1.01569E+00 -1.06803E-02
    9061.215     68.693   4.400  1.01703E+00  1.01646E+00  5.72521E-04
    9062.562     70.041   4.440  1.02953E+00  1.01715E+00  1.23795E-02
    9063.921     71.400   4.480  1.04202E+00  1.01775E+00  2.42753E-02
    9065.293     72.772   4.520  1.05407E+00  1.01824E+00  3.58290E-02
    9066.677     74.155   4.560  1.06512E+00  1.01867E+00  4.64462E-02
    9068.073     75.551   4.600  1.07417E+00  1.01902E+00  5.51507E-02
    9069.481     76.960   4.640  1.07997E+00  1.01926E+00  6.07084E-02
    9070.901     78.380   4.680  1.08156E+00  1.01944E+00  6.21260E-02
    9072.334     79.813   4.720  1.07858E+00  1.01950E+00  5.90793E-02
    9073.778     81.257   4.760  1.07148E+00  1.01949E+00  5.19913E-02
    9075.235     82.714   4.800  1.06127E+00  1.01939E+00  4.18854E-02
    9076.705     84.183   4.840  1.04933E+00  1.01923E+00  3.01049E-02
    9078.186     85.665   4.880  1.03685E+00  1.01897E+00  1.78794E-02
    9079.679     87.158   4.920  1.02452E+00  1.01865E+00  5.86926E-03
    9081.185     88.664   4.960  1.01227E+00  1.01825E+00 -5.98900E-03
    9082.703     90.182   5.000  9.99601E-01  1.01778E+00 -1.81807E-02
    9084.233     91.712   5.040  9.86209E-01  1.01726E+00 -3.10484E-02
    9085.775     93.254   5.080  9.72449E-01  1.01666E+00 -4.42122E-02
    9087.330     94.809   5.120  9.59601E-01  1.01602E+00 -5.64169E-02
    9088.896     96.375   5.160  9.49437E-01  1.01533E+00 -6.58935E-02
    9090.475     97.954   5.200  9.43645E-01  1.01460E+00 -7.09559E-02
    9092.066     99.545   5.240  9.43155E-01  1.01383E+00 -7.06784E-02
    9093.670    101.148   5.280  9.47787E-01  1.01305E+00 -6.52631E-02
    9095.285    102.764   5.320  9.56252E-01  1.01221E+00 -5.59585E-02
    9096.913    104.392   5.360  9.66981E-01  1.01138E+00 -4.43989E-02
    9098.552    106.031   5.400  9.78838E-01  1.01050E+00 -3.16593E-02
    9100.204    107.683   5.440  9.91773E-01  1.00963E+00 -1.78582E-02
    9101.869    109.348   5.480  1.00611E+00  1.00874E+00 -2.63396E-03
    9103.545    111.024   5.520  1.02163E+00  1.00785E+00  1.37840E-02
    9105.234    112.713   5.560  1.03679E+00  1.00698E+00  2.98121E-02
    9106.934    114.413   5.600  1.04893E+00  1.00609E+00  4.28443E-02
    9108.647    116.126   5.640  1.05579E+00  1.00523E+00  5.05671E-02
    9110.373    117.851   5.680  1.05656E+00  1.00440E+00  5.21595E-02
    9112.110    119.589   5.720  1.05203E+00  1.00355E+00  4.84787E-02
    9113.859    121.338   5.760  1.04420E+00  1.00277E+00  4.14363E-02
    9115.621    123.100   5.800  1.03516E+00  1.00197E+00  3.31902E-02
    9117.395    124.874   5.840  1.02688E+00  1.00123E+00  2.56446E-02
    9119.181    126.660   5.880  1.02084E+00  1.00054E+00  2.02917E-02
    9120.980    128.458   5.920  1.01782E+00  9.99877E-01  1.79440E-02
    9122.790    130.269   5.960  1.01743E+00  9.99272E-01  1.81604E-02
    9124.613    132.092   6.000  1.01742E+00  9.98738E-01  1.86865E-02
