# # comment:                                                     FEFF 9.9.1  
# # Source:
# # Structure
# # Reduced
# # space
# # abc:
# # angles:
# # sites:
# # POT  SCF 100  7.0000   0, screened core-hole, AFOLP (folp(0)= 1.150)
# # Abs   Z=29 Rmt= 1.143 Rnm= 1.322 K  shell
# # Pot 1 Z=21 Rmt= 1.431 Rnm= 1.525
# # Pot 2 Z=29 Rmt= 1.194 Rnm= 1.322
# # Pot 3 Z= 8 Rmt= 1.008 Rnm= 1.099
# # Gam_ch=1.729E+00 H-L exch Vi= 0.000E+00 Vr= 0.000E+00
# # Mu=-9.712E+00eV kf=2.115E+00 Vint=-1.871E+01eV Rs_int= 1.715
# FMS rfms= 9.0000
# # PATH  Rmax=-1.000,  Keep_limit= 0.00, Heap_limit 0.00  Pwcrit= 2.50%
#  S02=0.950  Temp=   0.00  Debye_temp=   0.00  Global_sig2= 0.00000
#  Energy zero shift, vr, vi    0.00000E+00   0.00000E+00
#  Curved wave amplitude ratio filter   4.000%
#     file         sig2 tot  cw amp ratio   deg  nlegs   reff  inp sig2
#     0/   0 paths used
#  xsedge+ 50, used to normalize mu           2.5031E-04
#  -----------------------------------------------------------------------
#  omega    e    k    mu    mu0     chi     @#
    8984.552    -13.522  -1.000  4.20093E-02  5.06430E-02 -8.63374E-03
    8984.851    -13.223  -0.960  4.47510E-02  5.42452E-02 -9.49422E-03
    8985.137    -12.937  -0.920  4.77943E-02  5.82427E-02 -1.04483E-02
    8985.412    -12.663  -0.880  5.11880E-02  6.26932E-02 -1.15052E-02
    8985.674    -12.401  -0.840  5.49900E-02  6.76642E-02 -1.26742E-02
    8985.924    -12.151  -0.800  5.92691E-02  7.32336E-02 -1.39645E-02
    8986.162    -11.913  -0.760  6.41063E-02  7.94908E-02 -1.53845E-02
    8986.387    -11.687  -0.720  6.95957E-02  8.65369E-02 -1.69412E-02
    8986.600    -11.474  -0.680  7.58430E-02  9.44830E-02 -1.86400E-02
    8986.802    -11.273  -0.640  8.29626E-02  1.03447E-01 -2.04839E-02
    8986.991    -11.084  -0.600  9.10686E-02  1.13543E-01 -2.24739E-02
    8987.167    -10.907  -0.560  1.00258E-01  1.24869E-01 -2.46109E-02
    8987.332    -10.742  -0.520  1.10586E-01  1.37485E-01 -2.68989E-02
    8987.484    -10.590  -0.480  1.22025E-01  1.51375E-01 -2.93503E-02
    8987.625    -10.450  -0.440  1.34428E-01  1.66419E-01 -3.19907E-02
    8987.753    -10.322  -0.400  1.47496E-01  1.82355E-01 -3.48588E-02
    8987.868    -10.206  -0.360  1.60778E-01  1.98773E-01 -3.79948E-02
    8987.972    -10.102  -0.320  1.73726E-01  2.15141E-01 -4.14159E-02
    8988.064    -10.011  -0.280  1.85783E-01  2.30868E-01 -4.50853E-02
    8988.143     -9.932  -0.240  1.96493E-01  2.45385E-01 -4.88928E-02
    8988.210     -9.865  -0.200  2.05558E-01  2.58215E-01 -5.26578E-02
    8988.265     -9.810  -0.160  2.12851E-01  2.69009E-01 -5.61583E-02
    8988.307     -9.767  -0.120  2.18370E-01  2.77543E-01 -5.91729E-02
    8988.338     -9.737  -0.080  2.22174E-01  2.83692E-01 -6.15180E-02
    8988.362     -9.712   0.000  2.25005E-01  2.88633E-01 -6.36278E-02
    8988.417     -9.657   0.120  2.31538E-01  2.99794E-01 -6.82558E-02
    8988.460     -9.615   0.160  2.36539E-01  3.08454E-01 -7.19158E-02
    8988.515     -9.560   0.200  2.42689E-01  3.19498E-01 -7.68089E-02
    8988.582     -9.493   0.240  2.49762E-01  3.32820E-01 -8.30582E-02
    8988.661     -9.413   0.280  2.57373E-01  3.48117E-01 -9.07443E-02
    8988.752     -9.322   0.320  2.65204E-01  3.65026E-01 -9.98222E-02
    8988.856     -9.218   0.360  2.72946E-01  3.83053E-01 -1.10106E-01
    8988.972     -9.103   0.400  2.80424E-01  4.01689E-01 -1.21265E-01
    8989.100     -8.975   0.440  2.87576E-01  4.20453E-01 -1.32877E-01
    8989.240     -8.834   0.480  2.94451E-01  4.39006E-01 -1.44555E-01
    8989.392     -8.682   0.520  3.01134E-01  4.57102E-01 -1.55968E-01
    8989.557     -8.517   0.560  3.07897E-01  4.74619E-01 -1.66722E-01
    8989.734     -8.341   0.600  3.15373E-01  4.91568E-01 -1.76195E-01
    8989.923     -8.152   0.640  3.24361E-01  5.07961E-01 -1.83599E-01
    8990.124     -7.950   0.680  3.35674E-01  5.23884E-01 -1.88210E-01
    8990.337     -7.737   0.720  3.49671E-01  5.39437E-01 -1.89766E-01
    8990.563     -7.512   0.760  3.65551E-01  5.54673E-01 -1.89123E-01
    8990.801     -7.274   0.800  3.81301E-01  5.69704E-01 -1.88403E-01
    8991.051     -7.024   0.840  3.95279E-01  5.84565E-01 -1.89286E-01
    8991.313     -6.762   0.880  4.07914E-01  5.99319E-01 -1.91405E-01
    8991.587     -6.487   0.920  4.19913E-01  6.13979E-01 -1.94066E-01
    8991.873     -6.201   0.960  4.30092E-01  6.28607E-01 -1.98514E-01
    8992.172     -5.902   1.000  4.36454E-01  6.43173E-01 -2.06719E-01
    8992.483     -5.591   1.040  4.39368E-01  6.57721E-01 -2.18353E-01
    8992.806     -5.268   1.080  4.41665E-01  6.72226E-01 -2.30561E-01
    8993.141     -4.933   1.120  4.46337E-01  6.86677E-01 -2.40340E-01
    8993.489     -4.585   1.160  4.57059E-01  7.01062E-01 -2.44003E-01
    8993.849     -4.226   1.200  4.79560E-01  7.15360E-01 -2.35800E-01
    8994.220     -3.854   1.240  5.17541E-01  7.29549E-01 -2.12008E-01
    8994.604     -3.470   1.280  5.66746E-01  7.43625E-01 -1.76879E-01
    8995.001     -3.074   1.320  6.12320E-01  7.57540E-01 -1.45219E-01
    8995.409     -2.665   1.360  6.37816E-01  7.71266E-01 -1.33450E-01
    8995.830     -2.245   1.400  6.48141E-01  7.84775E-01 -1.36633E-01
    8996.263     -1.812   1.440  6.70041E-01  7.98056E-01 -1.28015E-01
    8996.708     -1.367   1.480  7.20432E-01  8.11080E-01 -9.06471E-02
    8997.165     -0.910   1.520  7.91068E-01  8.23793E-01 -3.27257E-02
    8997.634     -0.440   1.560  8.63966E-01  8.36186E-01  2.77797E-02
    8998.116      0.041   1.600  9.17718E-01  8.48230E-01  6.94872E-02
    8998.610      0.535   1.640  9.31469E-01  8.59916E-01  7.15535E-02
    8999.116      1.041   1.680  9.17932E-01  8.71194E-01  4.67380E-02
    8999.634      1.559   1.720  9.09810E-01  8.82078E-01  2.77328E-02
    9000.164      2.090   1.760  9.15867E-01  8.92558E-01  2.33081E-02
    9000.707      2.632   1.800  9.23395E-01  9.02571E-01  2.08237E-02
    9001.261      3.187   1.840  9.22020E-01  9.12152E-01  9.86799E-03
    9001.828      3.754   1.880  9.11258E-01  9.21277E-01 -1.00182E-02
    9002.407      4.333   1.920  8.97722E-01  9.29923E-01 -3.22009E-02
    9002.999      4.924   1.960  8.91985E-01  9.38128E-01 -4.61428E-02
    9003.602      5.528   2.000  9.05345E-01  9.45832E-01 -4.04866E-02
    9004.218      6.143   2.040  9.41380E-01  9.53096E-01 -1.17161E-02
    9004.846      6.771   2.080  9.94872E-01  9.59861E-01  3.50109E-02
    9005.486      7.411   2.120  1.05710E+00  9.66190E-01  9.09094E-02
    9006.138      8.064   2.160  1.10668E+00  9.72047E-01  1.34630E-01
    9006.803      8.728   2.200  1.11811E+00  9.77455E-01  1.40650E-01
    9007.479      9.405   2.240  1.09515E+00  9.82418E-01  1.12732E-01
    9008.168     10.094   2.280  1.05998E+00  9.86964E-01  7.30140E-02
    9008.869     10.795   2.320  1.03000E+00  9.91079E-01  3.89261E-02
    9009.582     11.508   2.360  1.02030E+00  9.94809E-01  2.54953E-02
    9010.308     12.233   2.400  1.04143E+00  9.98122E-01  4.33084E-02
    9011.045     12.971   2.440  1.09280E+00  1.00108E+00  9.17137E-02
    9011.795     13.721   2.480  1.15909E+00  1.00369E+00  1.55400E-01
    9012.557     14.483   2.520  1.21508E+00  1.00593E+00  2.09149E-01
    9013.331     15.257   2.560  1.23527E+00  1.00786E+00  2.27409E-01
    9014.118     16.043   2.600  1.22743E+00  1.00948E+00  2.17945E-01
    9014.916     16.842   2.640  1.20537E+00  1.01080E+00  1.94567E-01
    9015.727     17.653   2.680  1.17695E+00  1.01186E+00  1.65091E-01
    9016.550     18.476   2.720  1.14561E+00  1.01265E+00  1.32969E-01
    9017.385     19.311   2.760  1.11412E+00  1.01319E+00  1.00927E-01
    9018.232     20.158   2.800  1.08366E+00  1.01352E+00  7.01398E-02
    9019.092     21.018   2.840  1.05538E+00  1.01363E+00  4.17557E-02
    9019.964     21.889   2.880  1.02982E+00  1.01355E+00  1.62664E-02
    9020.848     22.773   2.920  1.00695E+00  1.01329E+00 -6.34073E-03
    9021.744     23.669   2.960  9.87116E-01  1.01289E+00 -2.57725E-02
    9022.652     24.578   3.000  9.70653E-01  1.01233E+00 -4.16795E-02
    9023.573     25.498   3.040  9.57849E-01  1.01165E+00 -5.37990E-02
    9024.505     26.431   3.080  9.48897E-01  1.01082E+00 -6.19256E-02
    9025.450     27.376   3.120  9.43684E-01  1.00992E+00 -6.62405E-02
    9026.407     28.333   3.160  9.41388E-01  1.00892E+00 -6.75315E-02
    9027.376     29.302   3.200  9.40951E-01  1.00783E+00 -6.68816E-02
    9028.358     30.284   3.240  9.41509E-01  1.00667E+00 -6.51590E-02
    9029.352     31.277   3.280  9.42514E-01  1.00546E+00 -6.29410E-02
    9030.357     32.283   3.320  9.43894E-01  1.00420E+00 -6.03048E-02
    9031.375     33.301   3.360  9.45996E-01  1.00290E+00 -5.69053E-02
    9032.406     34.331   3.400  9.49253E-01  1.00157E+00 -5.23163E-02
    9033.448     35.374   3.440  9.53707E-01  1.00023E+00 -4.65185E-02
    9034.503     36.428   3.480  9.58918E-01  9.98877E-01 -3.99587E-02
    9035.569     37.495   3.520  9.64034E-01  9.97504E-01 -3.34703E-02
    9036.648     38.574   3.560  9.68059E-01  9.96152E-01 -2.80932E-02
    9037.740     39.665   3.600  9.69842E-01  9.94804E-01 -2.49623E-02
    9038.843     40.769   3.640  9.68462E-01  9.93464E-01 -2.50016E-02
    9039.959     41.884   3.680  9.63564E-01  9.92154E-01 -2.85902E-02
    9041.086     43.012   3.720  9.55507E-01  9.90877E-01 -3.53708E-02
    9042.226     44.152   3.760  9.45378E-01  9.89635E-01 -4.42576E-02
    9043.378     45.304   3.800  9.34591E-01  9.88410E-01 -5.38195E-02
    9044.543     46.468   3.840  9.24614E-01  9.87244E-01 -6.26299E-02
    9045.719     47.645   3.880  9.16450E-01  9.86097E-01 -6.96466E-02
    9046.908     48.834   3.920  9.10941E-01  9.85012E-01 -7.40709E-02
    9048.109     50.034   3.960  9.08632E-01  9.83971E-01 -7.53387E-02
    9049.322     51.248   4.000  9.09769E-01  9.82975E-01 -7.32062E-02
    9050.547     52.473   4.040  9.14325E-01  9.82046E-01 -6.77204E-02
    9051.785     53.710   4.080  9.21921E-01  9.81163E-01 -5.92421E-02
    9053.034     54.960   4.120  9.31958E-01  9.80348E-01 -4.83895E-02
    9054.296     56.222   4.160  9.43627E-01  9.79579E-01 -3.59521E-02
    9055.570     57.496   4.200  9.56076E-01  9.78857E-01 -2.27813E-02
    9056.857     58.782   4.240  9.68537E-01  9.78204E-01 -9.66701E-03
    9058.155     60.081   4.280  9.80570E-01  9.77598E-01  2.97111E-03
    9059.466     61.391   4.320  9.92466E-01  9.77061E-01  1.54053E-02
    9060.788     62.714   4.360  1.00495E+00  9.76572E-01  2.83822E-02
    9062.123     64.049   4.400  1.01866E+00  9.76150E-01  4.25106E-02
    9063.471     65.396   4.440  1.03339E+00  9.75775E-01  5.76182E-02
    9064.830     66.756   4.480  1.04793E+00  9.75445E-01  7.24876E-02
    9066.202     68.127   4.520  1.06031E+00  9.75183E-01  8.51300E-02
    9067.585     69.511   4.560  1.06840E+00  9.74966E-01  9.34354E-02
    9068.981     70.907   4.600  1.07066E+00  9.74793E-01  9.58641E-02
    9070.390     72.315   4.640  1.06659E+00  9.74685E-01  9.19014E-02
    9071.810     73.736   4.680  1.05670E+00  9.74621E-01  8.20741E-02
    9073.243     75.168   4.720  1.04219E+00  9.74598E-01  6.75931E-02
    9074.687     76.613   4.760  1.02461E+00  9.74615E-01  4.99997E-02
    9076.144     78.070   4.800  1.00579E+00  9.74669E-01  3.11181E-02
    9077.613     79.539   4.840  9.87730E-01  9.74761E-01  1.29689E-02
    9079.095     81.020   4.880  9.72257E-01  9.74869E-01 -2.61210E-03
    9080.588     82.514   4.920  9.60684E-01  9.75034E-01 -1.43508E-02
    9082.094     84.020   4.960  9.53486E-01  9.75213E-01 -2.17276E-02
    9083.612     85.537   5.000  9.50523E-01  9.75425E-01 -2.49021E-02
    9085.142     87.068   5.040  9.51257E-01  9.75671E-01 -2.44138E-02
    9086.684     88.610   5.080  9.54956E-01  9.75926E-01 -2.09704E-02
    9088.239     90.164   5.120  9.60930E-01  9.76211E-01 -1.52811E-02
    9089.805     91.731   5.160  9.68467E-01  9.76503E-01 -8.03669E-03
    9091.384     93.310   5.200  9.76853E-01  9.76822E-01  3.07984E-05
    9092.975     94.901   5.240  9.85229E-01  9.77122E-01  8.10707E-03
    9094.578     96.504   5.280  9.92735E-01  9.77447E-01  1.52882E-02
    9096.194     98.120   5.320  9.98463E-01  9.77773E-01  2.06907E-02
    9097.822     99.747   5.360  1.00189E+00  9.78099E-01  2.37944E-02
    9099.461    101.387   5.400  1.00324E+00  9.78425E-01  2.48175E-02
    9101.113    103.039   5.440  1.00337E+00  9.78746E-01  2.46276E-02
    9102.778    104.703   5.480  1.00313E+00  9.79044E-01  2.40877E-02
    9104.454    106.380   5.520  1.00279E+00  9.79358E-01  2.34324E-02
    9106.143    108.068   5.560  1.00191E+00  9.79646E-01  2.22664E-02
    9107.843    109.769   5.600  1.00006E+00  9.79926E-01  2.01389E-02
    9109.556    111.482   5.640  9.97282E-01  9.80176E-01  1.71067E-02
    9111.281    113.207   5.680  9.94214E-01  9.80417E-01  1.37967E-02
    9113.019    114.944   5.720  9.91568E-01  9.80627E-01  1.09412E-02
    9114.768    116.694   5.760  9.89531E-01  9.80827E-01  8.70415E-03
    9116.530    118.456   5.800  9.87235E-01  9.81018E-01  6.21663E-03
    9118.304    120.230   5.840  9.82923E-01  9.81152E-01  1.77110E-03
    9120.090    122.016   5.880  9.74977E-01  9.81272E-01 -6.29540E-03
    9121.888    123.814   5.920  9.62969E-01  9.81356E-01 -1.83870E-02
    9123.699    125.625   5.960  9.48538E-01  9.81400E-01 -3.28617E-02
    9125.522    127.447   6.000  9.34771E-01  9.81421E-01 -4.66499E-02
