# # comment:                                                     FEFF 9.9.1  
# # Source:
# # Structure
# # Reduced
# # space
# # abc:
# # angles:
# # sites:
# # POT  SCF 100  7.0000   0, screened core-hole, AFOLP (folp(0)= 1.150)
# # Abs   Z=29 Rmt= 1.308 Rnm= 1.372 K  shell
# # Pot 1 Z=29 Rmt= 1.318 Rnm= 1.383
# # Pot 2 Z=15 Rmt= 1.051 Rnm= 1.237
# # Pot 3 Z= 7 Rmt= 0.687 Rnm= 0.884
# # Pot 4 Z= 8 Rmt= 0.845 Rnm= 0.995
# # Gam_ch=1.729E+00 H-L exch Vi= 0.000E+00 Vr= 0.000E+00
# # Mu=-5.975E+00eV kf=2.608E+00 Vint=-1.764E+01eV Rs_int= 1.390
# FMS rfms= 9.0000
# # PATH  Rmax=-1.000,  Keep_limit= 0.00, Heap_limit 0.00  Pwcrit= 2.50%
#  S02=0.950  Temp=   0.00  Debye_temp=   0.00  Global_sig2= 0.00000
#  Energy zero shift, vr, vi    0.00000E+00   0.00000E+00
#  Curved wave amplitude ratio filter   4.000%
#     file         sig2 tot  cw amp ratio   deg  nlegs   reff  inp sig2
#     0/   0 paths used
#  xsedge+ 50, used to normalize mu           2.4686E-04
#  -----------------------------------------------------------------------
#  omega    e    k    mu    mu0     chi     @#
    8983.698     -9.785  -1.000  4.63655E-02  5.54098E-02 -9.04433E-03
    8983.996     -9.486  -0.960  4.95060E-02  5.95181E-02 -1.00121E-02
    8984.283     -9.200  -0.920  5.29952E-02  6.40929E-02 -1.10977E-02
    8984.557     -8.925  -0.880  5.68879E-02  6.92040E-02 -1.23162E-02
    8984.819     -8.663  -0.840  6.12482E-02  7.49328E-02 -1.36846E-02
    8985.069     -8.413  -0.800  6.61516E-02  8.13737E-02 -1.52221E-02
    8985.307     -8.175  -0.760  7.16857E-02  8.86352E-02 -1.69495E-02
    8985.533     -7.950  -0.720  7.79507E-02  9.68402E-02 -1.88895E-02
    8985.746     -7.737  -0.680  8.50583E-02  1.06124E-01 -2.10657E-02
    8985.947     -7.535  -0.640  9.31280E-02  1.16630E-01 -2.35022E-02
    8986.136     -7.346  -0.600  1.02279E-01  1.28500E-01 -2.62206E-02
    8986.313     -7.170  -0.560  1.12616E-01  1.41853E-01 -2.92377E-02
    8986.478     -7.005  -0.520  1.24204E-01  1.56764E-01 -3.25596E-02
    8986.630     -6.853  -0.480  1.37041E-01  1.73217E-01 -3.61761E-02
    8986.770     -6.712  -0.440  1.51015E-01  1.91068E-01 -4.00525E-02
    8986.898     -6.584  -0.400  1.65878E-01  2.10002E-01 -4.41243E-02
    8987.014     -6.469  -0.360  1.81230E-01  2.29526E-01 -4.82952E-02
    8987.118     -6.365  -0.320  1.96553E-01  2.48996E-01 -5.24430E-02
    8987.209     -6.274  -0.280  2.11268E-01  2.67701E-01 -5.64330E-02
    8987.288     -6.194  -0.240  2.24823E-01  2.84957E-01 -6.01338E-02
    8987.355     -6.127  -0.200  2.36765E-01  3.00195E-01 -6.34306E-02
    8987.410     -6.072  -0.160  2.46770E-01  3.13002E-01 -6.62315E-02
    8987.453     -6.030  -0.120  2.54649E-01  3.23116E-01 -6.84674E-02
    8987.483     -5.999  -0.080  2.60307E-01  3.30396E-01 -7.00895E-02
    8987.508     -5.975   0.000  2.64846E-01  3.36241E-01 -7.13949E-02
    8987.563     -5.920   0.120  2.74904E-01  3.49424E-01 -7.45197E-02
    8987.605     -5.877   0.160  2.82647E-01  3.59627E-01 -7.69802E-02
    8987.660     -5.822   0.200  2.92440E-01  3.72655E-01 -8.02142E-02
    8987.727     -5.755   0.240  3.04029E-01  3.88288E-01 -8.42590E-02
    8987.806     -5.676   0.280  3.17007E-01  4.06187E-01 -8.91804E-02
    8987.898     -5.585   0.320  3.30795E-01  4.25862E-01 -9.50665E-02
    8988.002     -5.481   0.360  3.44617E-01  4.46684E-01 -1.02067E-01
    8988.117     -5.365   0.400  3.57633E-01  4.68010E-01 -1.10377E-01
    8988.245     -5.237   0.440  3.68993E-01  4.89258E-01 -1.20265E-01
    8988.386     -5.097   0.480  3.78020E-01  5.09974E-01 -1.31954E-01
    8988.538     -4.945   0.520  3.84313E-01  5.29852E-01 -1.45539E-01
    8988.703     -4.780   0.560  3.87931E-01  5.48743E-01 -1.60812E-01
    8988.879     -4.603   0.600  3.89480E-01  5.66656E-01 -1.77176E-01
    8989.068     -4.414   0.640  3.89921E-01  5.83637E-01 -1.93716E-01
    8989.270     -4.213   0.680  3.90360E-01  5.99778E-01 -2.09417E-01
    8989.483     -4.000   0.720  3.91746E-01  6.15224E-01 -2.23478E-01
    8989.708     -3.774   0.760  3.94630E-01  6.30041E-01 -2.35411E-01
    8989.946     -3.536   0.800  3.99418E-01  6.44364E-01 -2.44946E-01
    8990.196     -3.286   0.840  4.06416E-01  6.58276E-01 -2.51860E-01
    8990.458     -3.024   0.880  4.15864E-01  6.71844E-01 -2.55980E-01
    8990.733     -2.750   0.920  4.27852E-01  6.85141E-01 -2.57289E-01
    8991.019     -2.464   0.960  4.42279E-01  6.98207E-01 -2.55928E-01
    8991.318     -2.165   1.000  4.58924E-01  7.11068E-01 -2.52144E-01
    8991.629     -1.854   1.040  4.77577E-01  7.23762E-01 -2.46185E-01
    8991.952     -1.531   1.080  4.97978E-01  7.36280E-01 -2.38302E-01
    8992.287     -1.196   1.120  5.19941E-01  7.48664E-01 -2.28723E-01
    8992.634     -0.848   1.160  5.43406E-01  7.60869E-01 -2.17463E-01
    8992.994     -0.488   1.200  5.69123E-01  7.72927E-01 -2.03804E-01
    8993.366     -0.117   1.240  5.98504E-01  7.84804E-01 -1.86300E-01
    8993.750      0.267   1.280  6.32788E-01  7.96527E-01 -1.63739E-01
    8994.146      0.664   1.320  6.71978E-01  8.08036E-01 -1.36057E-01
    8994.555      1.072   1.360  7.14606E-01  8.19349E-01 -1.04743E-01
    8994.975      1.493   1.400  7.57455E-01  8.30426E-01 -7.29707E-02
    8995.408      1.926   1.440  7.97474E-01  8.41283E-01 -4.38096E-02
    8995.853      2.371   1.480  8.34530E-01  8.51875E-01 -1.73451E-02
    8996.310      2.828   1.520  8.71461E-01  8.62178E-01  9.28323E-03
    8996.780      3.297   1.560  9.10728E-01  8.72207E-01  3.85216E-02
    8997.261      3.779   1.600  9.50306E-01  8.81916E-01  6.83905E-02
    8997.755      4.273   1.640  9.82914E-01  8.91299E-01  9.16149E-02
    8998.261      4.778   1.680  1.00267E+00  9.00355E-01  1.02319E-01
    8998.779      5.297   1.720  1.01609E+00  9.09059E-01  1.07033E-01
    8999.310      5.827   1.760  1.03795E+00  9.17405E-01  1.20546E-01
    8999.852      6.370   1.800  1.07028E+00  9.25391E-01  1.44892E-01
    9000.407      6.924   1.840  1.09820E+00  9.32995E-01  1.65208E-01
    9000.974      7.491   1.880  1.10890E+00  9.40215E-01  1.68689E-01
    9001.553      8.070   1.920  1.10237E+00  9.47050E-01  1.55318E-01
    9002.144      8.662   1.960  1.08577E+00  9.53500E-01  1.32268E-01
    9002.748      9.265   2.000  1.06807E+00  9.59566E-01  1.08501E-01
    9003.363      9.881   2.040  1.05580E+00  9.65249E-01  9.05501E-02
    9003.991     10.509   2.080  1.05067E+00  9.70550E-01  8.01161E-02
    9004.631     11.149   2.120  1.05145E+00  9.75453E-01  7.59928E-02
    9005.284     11.801   2.160  1.05597E+00  9.80002E-01  7.59707E-02
    9005.948     12.466   2.200  1.06091E+00  9.84179E-01  7.67315E-02
    9006.625     13.142   2.240  1.06352E+00  9.87989E-01  7.55340E-02
    9007.314     13.831   2.280  1.06377E+00  9.91459E-01  7.23108E-02
    9008.015     14.532   2.320  1.06349E+00  9.94596E-01  6.88968E-02
    9008.728     15.245   2.360  1.06628E+00  9.97402E-01  6.88764E-02
    9009.453     15.971   2.400  1.07492E+00  9.99905E-01  7.50123E-02
    9010.191     16.708   2.440  1.08605E+00  1.00209E+00  8.39604E-02
    9010.941     17.458   2.480  1.09189E+00  1.00399E+00  8.79000E-02
    9011.703     18.220   2.520  1.08856E+00  1.00563E+00  8.29280E-02
    9012.477     18.994   2.560  1.07908E+00  1.00699E+00  7.20900E-02
    9013.263     19.781   2.600  1.06827E+00  1.00813E+00  6.01431E-02
    9014.062     20.579   2.640  1.05801E+00  1.00903E+00  4.89836E-02
    9014.873     21.390   2.680  1.04824E+00  1.00971E+00  3.85278E-02
    9015.696     22.213   2.720  1.04020E+00  1.01019E+00  3.00079E-02
    9016.531     23.048   2.760  1.03583E+00  1.01048E+00  2.53515E-02
    9017.378     23.895   2.800  1.03495E+00  1.01060E+00  2.43561E-02
    9018.238     24.755   2.840  1.03428E+00  1.01057E+00  2.37088E-02
    9019.109     25.627   2.880  1.02974E+00  1.01040E+00  1.93365E-02
    9019.993     26.511   2.920  1.02143E+00  1.01012E+00  1.13156E-02
    9020.889     27.407   2.960  1.01094E+00  1.00969E+00  1.24399E-03
    9021.798     28.315   3.000  9.98366E-01  1.00918E+00 -1.08133E-02
    9022.718     29.236   3.040  9.84051E-01  1.00858E+00 -2.45275E-02
    9023.651     30.168   3.080  9.69763E-01  1.00790E+00 -3.81339E-02
    9024.596     31.113   3.120  9.57947E-01  1.00716E+00 -4.92135E-02
    9025.553     32.070   3.160  9.50064E-01  1.00636E+00 -5.62910E-02
    9026.522     33.039   3.200  9.46384E-01  1.00551E+00 -5.91240E-02
    9027.503     34.021   3.240  9.46167E-01  1.00464E+00 -5.84764E-02
    9028.497     35.015   3.280  9.48351E-01  1.00375E+00 -5.53949E-02
    9029.503     36.020   3.320  9.51790E-01  1.00284E+00 -5.10488E-02
    9030.521     37.038   3.360  9.55426E-01  1.00193E+00 -4.65015E-02
    9031.551     38.069   3.400  9.58411E-01  1.00100E+00 -4.25844E-02
    9032.594     39.111   3.440  9.60222E-01  1.00009E+00 -3.98653E-02
    9033.648     40.166   3.480  9.60715E-01  9.99207E-01 -3.84915E-02
    9034.715     41.232   3.520  9.59919E-01  9.98336E-01 -3.84169E-02
    9035.794     42.311   3.560  9.58108E-01  9.97499E-01 -3.93917E-02
    9036.885     43.403   3.600  9.55672E-01  9.96677E-01 -4.10044E-02
    9037.989     44.506   3.640  9.53105E-01  9.95914E-01 -4.28089E-02
    9039.104     45.622   3.680  9.50820E-01  9.95191E-01 -4.43711E-02
    9040.232     46.749   3.720  9.49262E-01  9.94510E-01 -4.52486E-02
    9041.372     47.889   3.760  9.48794E-01  9.93873E-01 -4.50791E-02
    9042.524     49.041   3.800  9.49678E-01  9.93280E-01 -4.36013E-02
    9043.688     50.206   3.840  9.52083E-01  9.92753E-01 -4.06701E-02
    9044.865     51.382   3.880  9.55961E-01  9.92276E-01 -3.63149E-02
    9046.054     52.571   3.920  9.61172E-01  9.91867E-01 -3.06949E-02
    9047.254     53.772   3.960  9.67461E-01  9.91507E-01 -2.40460E-02
    9048.468     54.985   4.000  9.74627E-01  9.91216E-01 -1.65888E-02
    9049.693     56.210   4.040  9.82456E-01  9.90974E-01 -8.51818E-03
    9050.930     57.448   4.080  9.90740E-01  9.90780E-01 -3.98376E-05
    9052.180     58.697   4.120  9.99285E-01  9.90676E-01  8.60900E-03
    9053.442     59.959   4.160  1.00781E+00  9.90600E-01  1.72079E-02
    9054.716     61.233   4.200  1.01616E+00  9.90591E-01  2.55730E-02
    9056.002     62.520   4.240  1.02425E+00  9.90630E-01  3.36162E-02
    9057.301     63.818   4.280  1.03204E+00  9.90735E-01  4.13057E-02
    9058.611     65.129   4.320  1.03949E+00  9.90885E-01  4.86052E-02
    9059.934     66.451   4.360  1.04646E+00  9.91079E-01  5.53769E-02
    9061.269     67.786   4.400  1.05263E+00  9.91314E-01  6.13162E-02
    9062.616     69.134   4.440  1.05760E+00  9.91590E-01  6.60077E-02
    9063.976     70.493   4.480  1.06089E+00  9.91929E-01  6.89629E-02
    9065.347     71.865   4.520  1.06201E+00  9.92284E-01  6.97234E-02
    9066.731     73.248   4.560  1.06066E+00  9.92676E-01  6.79846E-02
    9068.127     74.644   4.600  1.05675E+00  9.93104E-01  6.36418E-02
    9069.535     76.053   4.640  1.05044E+00  9.93564E-01  5.68734E-02
    9070.956     77.473   4.680  1.04214E+00  9.94033E-01  4.81073E-02
    9072.388     78.906   4.720  1.03242E+00  9.94509E-01  3.79092E-02
    9073.833     80.350   4.760  1.02192E+00  9.95013E-01  2.69116E-02
    9075.290     81.807   4.800  1.01125E+00  9.95524E-01  1.57290E-02
    9076.759     83.276   4.840  1.00098E+00  9.96057E-01  4.91990E-03
    9078.240     84.758   4.880  9.91516E-01  9.96569E-01 -5.05266E-03
    9079.734     86.251   4.920  9.83171E-01  9.97080E-01 -1.39089E-02
    9081.239     87.757   4.960  9.76019E-01  9.97609E-01 -2.15899E-02
    9082.757     89.275   5.000  9.69883E-01  9.98111E-01 -2.82283E-02
    9084.287     90.805   5.040  9.64520E-01  9.98583E-01 -3.40636E-02
    9085.830     92.347   5.080  9.59753E-01  9.99047E-01 -3.92941E-02
    9087.384     93.902   5.120  9.55541E-01  9.99501E-01 -4.39596E-02
    9088.951     95.468   5.160  9.52036E-01  9.99923E-01 -4.78869E-02
    9090.530     97.047   5.200  9.49608E-01  1.00033E+00 -5.07217E-02
    9092.121     98.638   5.240  9.48604E-01  1.00068E+00 -5.20741E-02
    9093.724    100.241   5.280  9.49359E-01  1.00101E+00 -5.16521E-02
    9095.339    101.857   5.320  9.51917E-01  1.00131E+00 -4.93881E-02
    9096.967    103.485   5.360  9.56109E-01  1.00156E+00 -4.54490E-02
    9098.607    105.124   5.400  9.61576E-01  1.00177E+00 -4.01922E-02
    9100.259    106.776   5.440  9.67894E-01  1.00191E+00 -3.40197E-02
    9101.923    108.441   5.480  9.74751E-01  1.00204E+00 -2.72865E-02
    9103.600    110.117   5.520  9.81807E-01  1.00210E+00 -2.02898E-02
    9105.288    111.806   5.560  9.88818E-01  1.00213E+00 -1.33162E-02
    9106.989    113.506   5.600  9.95450E-01  1.00210E+00 -6.65425E-03
    9108.702    115.219   5.640  1.00147E+00  1.00201E+00 -5.39961E-04
    9110.427    116.944   5.680  1.00679E+00  1.00189E+00  4.90485E-03
    9112.164    118.682   5.720  1.01134E+00  1.00170E+00  9.64133E-03
    9113.914    120.431   5.760  1.01512E+00  1.00147E+00  1.36479E-02
    9115.676    122.193   5.800  1.01809E+00  1.00120E+00  1.68912E-02
    9117.450    123.967   5.840  1.02025E+00  1.00089E+00  1.93642E-02
    9119.236    125.753   5.880  1.02165E+00  1.00051E+00  2.11399E-02
    9121.034    127.551   5.920  1.02246E+00  1.00012E+00  2.23388E-02
    9122.844    129.362   5.960  1.02267E+00  9.99667E-01  2.30054E-02
    9124.667    131.185   6.000  1.02210E+00  9.99139E-01  2.29655E-02
