# # comment:                                                     FEFF 9.9.1  
# # Source:
# # Structure
# # Reduced
# # space
# # abc:
# # angles:
# # sites:
# # POT  SCF 100  7.0000   0, screened core-hole, AFOLP (folp(0)= 1.150)
# # Abs   Z=29 Rmt= 1.300 Rnm= 1.369 K  shell
# # Pot 1 Z=29 Rmt= 1.282 Rnm= 1.373
# # Pot 2 Z=15 Rmt= 0.943 Rnm= 1.158
# # Pot 3 Z= 8 Rmt= 0.923 Rnm= 1.042
# # Gam_ch=1.729E+00 H-L exch Vi= 0.000E+00 Vr= 0.000E+00
# # Mu=-6.838E+00eV kf=2.412E+00 Vint=-1.704E+01eV Rs_int= 1.504
# FMS rfms= 9.0000
# # PATH  Rmax=-1.000,  Keep_limit= 0.00, Heap_limit 0.00  Pwcrit= 2.50%
#  S02=0.950  Temp=   0.00  Debye_temp=   0.00  Global_sig2= 0.00000
#  Energy zero shift, vr, vi    0.00000E+00   0.00000E+00
#  Curved wave amplitude ratio filter   4.000%
#     file         sig2 tot  cw amp ratio   deg  nlegs   reff  inp sig2
#     0/   0 paths used
#  xsedge+ 50, used to normalize mu           2.4890E-04
#  -----------------------------------------------------------------------
#  omega    e    k    mu    mu0     chi     @#
    8983.314    -10.648  -1.000  4.30599E-02  5.18093E-02 -8.74937E-03
    8983.613    -10.349  -0.960  4.56379E-02  5.55452E-02 -9.90733E-03
    8983.899    -10.063  -0.920  4.84442E-02  5.96965E-02 -1.12524E-02
    8984.174     -9.788  -0.880  5.15057E-02  6.43246E-02 -1.28189E-02
    8984.436     -9.526  -0.840  5.48528E-02  6.95009E-02 -1.46481E-02
    8984.686     -9.276  -0.800  5.85196E-02  7.53083E-02 -1.67888E-02
    8984.923     -9.039  -0.760  6.25436E-02  8.18421E-02 -1.92985E-02
    8985.149     -8.813  -0.720  6.69657E-02  8.92096E-02 -2.22439E-02
    8985.362     -8.600  -0.680  7.18291E-02  9.75296E-02 -2.57004E-02
    8985.564     -8.399  -0.640  7.71773E-02  1.06927E-01 -2.97498E-02
    8985.752     -8.210  -0.600  8.30501E-02  1.17525E-01 -3.44752E-02
    8985.929     -8.033  -0.560  8.94786E-02  1.29429E-01 -3.99506E-02
    8986.094     -7.868  -0.520  9.64761E-02  1.42702E-01 -4.62256E-02
    8986.246     -7.716  -0.480  1.04027E-01  1.57329E-01 -5.33022E-02
    8986.386     -7.576  -0.440  1.12073E-01  1.73182E-01 -6.11097E-02
    8986.514     -7.448  -0.400  1.20503E-01  1.89985E-01 -6.94826E-02
    8986.630     -7.332  -0.360  1.29147E-01  2.07303E-01 -7.81558E-02
    8986.734     -7.228  -0.320  1.37782E-01  2.24569E-01 -8.67872E-02
    8986.825     -7.137  -0.280  1.46151E-01  2.41158E-01 -9.50070E-02
    8986.905     -7.057  -0.240  1.53987E-01  2.56465E-01 -1.02479E-01
    8986.972     -6.990  -0.200  1.61041E-01  2.69989E-01 -1.08948E-01
    8987.027     -6.936  -0.160  1.67100E-01  2.81362E-01 -1.14262E-01
    8987.069     -6.893  -0.120  1.71993E-01  2.90349E-01 -1.18356E-01
    8987.100     -6.862  -0.080  1.75592E-01  2.96822E-01 -1.21230E-01
    8987.124     -6.838   0.000  1.78572E-01  3.02022E-01 -1.23451E-01
    8987.179     -6.783   0.120  1.85254E-01  3.13739E-01 -1.28485E-01
    8987.222     -6.740   0.160  1.90535E-01  3.22848E-01 -1.32313E-01
    8987.276     -6.686   0.200  1.97435E-01  3.34462E-01 -1.37027E-01
    8987.344     -6.619   0.240  2.06057E-01  3.48417E-01 -1.42360E-01
    8987.423     -6.539   0.280  2.16488E-01  3.64425E-01 -1.47937E-01
    8987.514     -6.448   0.320  2.28808E-01  3.82068E-01 -1.53260E-01
    8987.618     -6.344   0.360  2.43094E-01  4.00826E-01 -1.57732E-01
    8987.734     -6.228   0.400  2.59393E-01  4.20150E-01 -1.60757E-01
    8987.862     -6.100   0.440  2.77717E-01  4.39496E-01 -1.61779E-01
    8988.002     -5.960   0.480  2.98131E-01  4.58517E-01 -1.60386E-01
    8988.154     -5.808   0.520  3.20591E-01  4.76928E-01 -1.56337E-01
    8988.319     -5.643   0.560  3.44938E-01  4.94618E-01 -1.49680E-01
    8988.496     -5.466   0.600  3.70524E-01  5.11577E-01 -1.41053E-01
    8988.685     -5.277   0.640  3.95692E-01  5.27866E-01 -1.32174E-01
    8988.886     -5.076   0.680  4.17484E-01  5.43558E-01 -1.26074E-01
    8989.099     -4.863   0.720  4.32942E-01  5.58720E-01 -1.25778E-01
    8989.325     -4.637   0.760  4.41566E-01  5.73500E-01 -1.31935E-01
    8989.562     -4.400   0.800  4.45864E-01  5.87958E-01 -1.42094E-01
    8989.812     -4.150   0.840  4.49745E-01  6.02180E-01 -1.52435E-01
    8990.075     -3.888   0.880  4.56596E-01  6.16198E-01 -1.59601E-01
    8990.349     -3.613   0.920  4.68671E-01  6.30093E-01 -1.61422E-01
    8990.635     -3.327   0.960  4.86331E-01  6.43874E-01 -1.57543E-01
    8990.934     -3.028   1.000  5.07755E-01  6.57600E-01 -1.49845E-01
    8991.245     -2.717   1.040  5.29580E-01  6.71239E-01 -1.41659E-01
    8991.568     -2.394   1.080  5.49419E-01  6.84815E-01 -1.35396E-01
    8991.903     -2.059   1.120  5.67968E-01  6.98341E-01 -1.30374E-01
    8992.251     -1.711   1.160  5.87594E-01  7.11790E-01 -1.24196E-01
    8992.610     -1.352   1.200  6.09768E-01  7.25145E-01 -1.15377E-01
    8992.982     -0.980   1.240  6.35174E-01  7.38431E-01 -1.03258E-01
    8993.366     -0.596   1.280  6.63547E-01  7.51607E-01 -8.80607E-02
    8993.763     -0.199   1.320  6.92438E-01  7.64629E-01 -7.21912E-02
    8994.171      0.209   1.360  7.19542E-01  7.77512E-01 -5.79700E-02
    8994.592      0.630   1.400  7.46234E-01  7.90210E-01 -4.39760E-02
    8995.024      1.062   1.440  7.74203E-01  8.02716E-01 -2.85131E-02
    8995.469      1.507   1.480  8.04364E-01  8.15000E-01 -1.06361E-02
    8995.927      1.965   1.520  8.42417E-01  8.27015E-01  1.54014E-02
    8996.396      2.434   1.560  8.92115E-01  8.38774E-01  5.33413E-02
    8996.878      2.916   1.600  9.47729E-01  8.50245E-01  9.74840E-02
    8997.371      3.409   1.640  9.96456E-01  8.61400E-01  1.35056E-01
    8997.877      3.915   1.680  1.02767E+00  8.72212E-01  1.55462E-01
    8998.396      4.433   1.720  1.04170E+00  8.82673E-01  1.59029E-01
    8998.926      4.964   1.760  1.04159E+00  8.92755E-01  1.48835E-01
    8999.468      5.506   1.800  1.03713E+00  9.02472E-01  1.34656E-01
    9000.023      6.061   1.840  1.04527E+00  9.11779E-01  1.33495E-01
    9000.590      6.628   1.880  1.07039E+00  9.20671E-01  1.49718E-01
    9001.169      7.207   1.920  1.10349E+00  9.29143E-01  1.74343E-01
    9001.761      7.798   1.960  1.13583E+00  9.37194E-01  1.98632E-01
    9002.364      8.402   2.000  1.16436E+00  9.44802E-01  2.19562E-01
    9002.980      9.018   2.040  1.18538E+00  9.52005E-01  2.33378E-01
    9003.608      9.646   2.080  1.19449E+00  9.58744E-01  2.35742E-01
    9004.248     10.286   2.120  1.19327E+00  9.65058E-01  2.28209E-01
    9004.900     10.938   2.160  1.18631E+00  9.70929E-01  2.15385E-01
    9005.564     11.602   2.200  1.17928E+00  9.76382E-01  2.02894E-01
    9006.241     12.279   2.240  1.17545E+00  9.81418E-01  1.94030E-01
    9006.930     12.968   2.280  1.17286E+00  9.86022E-01  1.86840E-01
    9007.631     13.669   2.320  1.16612E+00  9.90239E-01  1.75883E-01
    9008.344     14.382   2.360  1.15239E+00  9.94053E-01  1.58338E-01
    9009.070     15.108   2.400  1.13322E+00  9.97471E-01  1.35752E-01
    9009.807     15.845   2.440  1.11189E+00  1.00054E+00  1.11348E-01
    9010.557     16.595   2.480  1.09054E+00  1.00322E+00  8.73185E-02
    9011.319     17.357   2.520  1.07060E+00  1.00557E+00  6.50276E-02
    9012.093     18.131   2.560  1.05302E+00  1.00759E+00  4.54249E-02
    9012.880     18.918   2.600  1.03673E+00  1.00932E+00  2.74185E-02
    9013.678     19.716   2.640  1.02042E+00  1.01073E+00  9.69900E-03
    9014.489     20.527   2.680  1.00384E+00  1.01185E+00 -8.00879E-03
    9015.312     21.350   2.720  9.85407E-01  1.01272E+00 -2.73134E-02
    9016.147     22.185   2.760  9.63416E-01  1.01332E+00 -4.99050E-02
    9016.994     23.032   2.800  9.41137E-01  1.01370E+00 -7.25664E-02
    9017.854     23.892   2.840  9.25569E-01  1.01385E+00 -8.82850E-02
    9018.726     24.764   2.880  9.16572E-01  1.01382E+00 -9.72510E-02
    9019.610     25.647   2.920  9.11599E-01  1.01360E+00 -1.01996E-01
    9020.506     26.544   2.960  9.08194E-01  1.01318E+00 -1.04986E-01
    9021.414     27.452   3.000  9.04691E-01  1.01263E+00 -1.07936E-01
    9022.334     28.372   3.040  9.00490E-01  1.01194E+00 -1.11453E-01
    9023.267     29.305   3.080  8.95691E-01  1.01114E+00 -1.15445E-01
    9024.212     30.250   3.120  8.90684E-01  1.01021E+00 -1.19527E-01
    9025.169     31.207   3.160  8.85896E-01  1.00917E+00 -1.23279E-01
    9026.138     32.176   3.200  8.81493E-01  1.00807E+00 -1.26582E-01
    9027.120     33.158   3.240  8.77998E-01  1.00688E+00 -1.28879E-01
    9028.113     34.151   3.280  8.76365E-01  1.00565E+00 -1.29283E-01
    9029.119     35.157   3.320  8.77347E-01  1.00436E+00 -1.27009E-01
    9030.137     36.175   3.360  8.81413E-01  1.00302E+00 -1.21608E-01
    9031.167     37.205   3.400  8.88518E-01  1.00167E+00 -1.13154E-01
    9032.210     38.248   3.440  8.98050E-01  1.00029E+00 -1.02244E-01
    9033.265     39.302   3.480  9.09357E-01  9.98911E-01 -8.95544E-02
    9034.331     40.369   3.520  9.22165E-01  9.97548E-01 -7.53828E-02
    9035.410     41.448   3.560  9.36331E-01  9.96167E-01 -5.98363E-02
    9036.501     42.539   3.600  9.51701E-01  9.94814E-01 -4.31131E-02
    9037.605     43.643   3.640  9.67973E-01  9.93492E-01 -2.55191E-02
    9038.720     44.758   3.680  9.84640E-01  9.92182E-01 -7.54196E-03
    9039.848     45.886   3.720  1.00103E+00  9.90908E-01  1.01172E-02
    9040.988     47.026   3.760  1.01638E+00  9.89674E-01  2.67109E-02
    9042.140     48.178   3.800  1.03014E+00  9.88502E-01  4.16385E-02
    9043.305     49.343   3.840  1.04175E+00  9.87353E-01  5.43927E-02
    9044.481     50.519   3.880  1.05106E+00  9.86272E-01  6.47849E-02
    9045.670     51.708   3.920  1.05815E+00  9.85260E-01  7.28906E-02
    9046.871     52.909   3.960  1.06319E+00  9.84298E-01  7.88940E-02
    9048.084     54.122   4.000  1.06640E+00  9.83407E-01  8.29977E-02
    9049.309     55.347   4.040  1.06814E+00  9.82566E-01  8.55720E-02
    9050.547     56.585   4.080  1.06885E+00  9.81797E-01  8.70530E-02
    9051.796     57.834   4.120  1.06896E+00  9.81103E-01  8.78581E-02
    9053.058     59.096   4.160  1.06871E+00  9.80460E-01  8.82498E-02
    9054.332     60.370   4.200  1.06806E+00  9.79892E-01  8.81714E-02
    9055.618     61.656   4.240  1.06658E+00  9.79400E-01  8.71808E-02
    9056.917     62.955   4.280  1.06365E+00  9.78982E-01  8.46678E-02
    9058.228     64.265   4.320  1.05881E+00  9.78616E-01  8.01964E-02
    9059.550     65.588   4.360  1.05192E+00  9.78325E-01  7.35991E-02
    9060.885     66.923   4.400  1.04315E+00  9.78109E-01  6.50381E-02
    9062.233     68.271   4.440  1.03287E+00  9.77967E-01  5.49061E-02
    9063.592     69.630   4.480  1.02145E+00  9.77876E-01  4.35739E-02
    9064.964     71.002   4.520  1.00919E+00  9.77854E-01  3.13328E-02
    9066.347     72.385   4.560  9.96374E-01  9.77883E-01  1.84912E-02
    9067.743     73.781   4.600  9.83447E-01  9.77980E-01  5.46696E-03
    9069.152     75.189   4.640  9.71010E-01  9.78123E-01 -7.11279E-03
    9070.572     76.610   4.680  9.59890E-01  9.78312E-01 -1.84221E-02
    9072.004     78.042   4.720  9.50897E-01  9.78566E-01 -2.76693E-02
    9073.449     79.487   4.760  9.44563E-01  9.78863E-01 -3.43000E-02
    9074.906     80.944   4.800  9.41028E-01  9.79200E-01 -3.81726E-02
    9076.375     82.413   4.840  9.39952E-01  9.79554E-01 -3.96024E-02
    9077.857     83.895   4.880  9.40768E-01  9.79968E-01 -3.91998E-02
    9079.350     85.388   4.920  9.42759E-01  9.80419E-01 -3.76602E-02
    9080.856     86.894   4.960  9.45276E-01  9.80883E-01 -3.56078E-02
    9082.374     88.412   5.000  9.47919E-01  9.81381E-01 -3.34612E-02
    9083.904     89.942   5.040  9.50424E-01  9.81909E-01 -3.14855E-02
    9085.446     91.484   5.080  9.52576E-01  9.82445E-01 -2.98688E-02
    9087.001     93.038   5.120  9.54183E-01  9.82986E-01 -2.88029E-02
    9088.567     94.605   5.160  9.55044E-01  9.83550E-01 -2.85055E-02
    9090.146     96.184   5.200  9.55064E-01  9.84094E-01 -2.90300E-02
    9091.737     97.775   5.240  9.54470E-01  9.84659E-01 -3.01894E-02
    9093.340     99.378   5.280  9.53624E-01  9.85200E-01 -3.15759E-02
    9094.956    100.994   5.320  9.53022E-01  9.85736E-01 -3.27137E-02
    9096.583    102.621   5.360  9.53107E-01  9.86268E-01 -3.31612E-02
    9098.223    104.261   5.400  9.54210E-01  9.86794E-01 -3.25843E-02
    9099.875    105.913   5.440  9.56421E-01  9.87289E-01 -3.08687E-02
    9101.539    107.577   5.480  9.59568E-01  9.87774E-01 -2.82053E-02
    9103.216    109.254   5.520  9.63188E-01  9.88223E-01 -2.50356E-02
    9104.904    110.942   5.560  9.66779E-01  9.88636E-01 -2.18574E-02
    9106.605    112.643   5.600  9.70043E-01  9.89013E-01 -1.89702E-02
    9108.318    114.356   5.640  9.73039E-01  9.89375E-01 -1.63364E-02
    9110.043    116.081   5.680  9.76069E-01  9.89698E-01 -1.36290E-02
    9111.781    117.819   5.720  9.79527E-01  9.89957E-01 -1.04295E-02
    9113.530    119.568   5.760  9.83786E-01  9.90197E-01 -6.41077E-03
    9115.292    121.330   5.800  9.88936E-01  9.90372E-01 -1.43650E-03
    9117.066    123.104   5.840  9.94863E-01  9.90505E-01  4.35775E-03
    9118.852    124.890   5.880  1.00112E+00  9.90619E-01  1.04987E-02
    9120.650    126.688   5.920  1.00689E+00  9.90642E-01  1.62447E-02
    9122.461    128.499   5.960  1.01143E+00  9.90637E-01  2.07936E-02
    9124.284    130.321   6.000  1.01410E+00  9.90563E-01  2.35417E-02
