# # comment:                                                     FEFF 9.9.1  
# # Source:
# # Structure
# # Reduced
# # space
# # abc:
# # angles:
# # sites:
# # POT  SCF 100  7.0000   0, screened core-hole, AFOLP (folp(0)= 1.150)
# # Abs   Z=29 Rmt= 1.182 Rnm= 1.435 K  shell
# # Pot 1 Z=63 Rmt= 1.554 Rnm= 1.858
# # Pot 2 Z=29 Rmt= 1.182 Rnm= 1.435
# # Pot 3 Z=34 Rmt= 1.432 Rnm= 1.656
# # Pot 4 Z= 8 Rmt= 0.968 Rnm= 1.236
# # Gam_ch=1.729E+00 H-L exch Vi= 0.000E+00 Vr= 0.000E+00
# # Mu=-6.436E+00eV kf=1.691E+00 Vint=-1.180E+01eV Rs_int= 2.144
# FMS rfms= 9.0000
# # PATH  Rmax=-1.000,  Keep_limit= 0.00, Heap_limit 0.00  Pwcrit= 2.50%
#  S02=0.950  Temp=   0.00  Debye_temp=   0.00  Global_sig2= 0.00000
#  Energy zero shift, vr, vi    0.00000E+00   0.00000E+00
#  Curved wave amplitude ratio filter   4.000%
#     file         sig2 tot  cw amp ratio   deg  nlegs   reff  inp sig2
#     0/   0 paths used
#  xsedge+ 50, used to normalize mu           2.3906E-04
#  -----------------------------------------------------------------------
#  omega    e    k    mu    mu0     chi     @#
    8983.461    -10.246  -1.000  5.14410E-02  6.16337E-02 -1.01927E-02
    8983.760     -9.947  -0.960  5.47757E-02  6.61157E-02 -1.13400E-02
    8984.046     -9.661  -0.920  5.84353E-02  7.10822E-02 -1.26470E-02
    8984.321     -9.387  -0.880  6.24632E-02  7.66020E-02 -1.41388E-02
    8984.583     -9.124  -0.840  6.69096E-02  8.27546E-02 -1.58450E-02
    8984.833     -8.875  -0.800  7.18323E-02  8.96318E-02 -1.77995E-02
    8985.070     -8.637  -0.760  7.72970E-02  9.73382E-02 -2.00412E-02
    8985.296     -8.411  -0.720  8.33779E-02  1.05992E-01 -2.26139E-02
    8985.509     -8.198  -0.680  9.01557E-02  1.15721E-01 -2.55655E-02
    8985.710     -7.997  -0.640  9.77154E-02  1.26662E-01 -2.89467E-02
    8985.899     -7.808  -0.600  1.06139E-01  1.38946E-01 -3.28069E-02
    8986.076     -7.631  -0.560  1.15497E-01  1.52685E-01 -3.71882E-02
    8986.241     -7.466  -0.520  1.25827E-01  1.67943E-01 -4.21158E-02
    8986.393     -7.314  -0.480  1.37116E-01  1.84700E-01 -4.75843E-02
    8986.533     -7.174  -0.440  1.49268E-01  2.02811E-01 -5.35433E-02
    8986.661     -7.046  -0.400  1.62086E-01  2.21970E-01 -5.98840E-02
    8986.777     -6.930  -0.360  1.75261E-01  2.41698E-01 -6.64366E-02
    8986.881     -6.826  -0.320  1.88388E-01  2.61369E-01 -7.29815E-02
    8986.972     -6.735  -0.280  2.01013E-01  2.80290E-01 -7.92770E-02
    8987.052     -6.656  -0.240  2.12694E-01  2.97786E-01 -8.50923E-02
    8987.119     -6.589  -0.200  2.23049E-01  3.13284E-01 -9.02348E-02
    8987.173     -6.534  -0.160  2.31792E-01  3.26355E-01 -9.45623E-02
    8987.216     -6.491  -0.120  2.38735E-01  3.36715E-01 -9.79799E-02
    8987.247     -6.461  -0.080  2.43767E-01  3.44197E-01 -1.00430E-01
    8987.271     -6.436   0.000  2.47865E-01  3.50223E-01 -1.02358E-01
    8987.326     -6.381   0.120  2.56946E-01  3.63823E-01 -1.06877E-01
    8987.369     -6.339   0.160  2.63983E-01  3.74452E-01 -1.10469E-01
    8987.423     -6.284   0.200  2.72940E-01  3.88078E-01 -1.15139E-01
    8987.490     -6.217   0.240  2.83667E-01  4.04555E-01 -1.20888E-01
    8987.570     -6.137   0.280  2.95976E-01  4.23676E-01 -1.27700E-01
    8987.661     -6.046   0.320  3.09451E-01  4.45000E-01 -1.35549E-01
    8987.765     -5.942   0.360  3.23652E-01  4.68060E-01 -1.44408E-01
    8987.881     -5.827   0.400  3.38104E-01  4.92308E-01 -1.54204E-01
    8988.009     -5.699   0.440  3.52483E-01  5.17259E-01 -1.64776E-01
    8988.149     -5.558   0.480  3.66725E-01  5.42467E-01 -1.75742E-01
    8988.301     -5.406   0.520  3.81221E-01  5.67683E-01 -1.86463E-01
    8988.466     -5.241   0.560  3.96719E-01  5.92762E-01 -1.96043E-01
    8988.643     -5.065   0.600  4.14095E-01  6.17632E-01 -2.03536E-01
    8988.832     -4.876   0.640  4.34212E-01  6.42282E-01 -2.08070E-01
    8989.033     -4.674   0.680  4.57847E-01  6.66730E-01 -2.08883E-01
    8989.246     -4.461   0.720  4.85767E-01  6.90981E-01 -2.05214E-01
    8989.472     -4.235   0.760  5.18546E-01  7.15077E-01 -1.96531E-01
    8989.709     -3.998   0.800  5.54784E-01  7.38984E-01 -1.84200E-01
    8989.959     -3.748   0.840  5.88673E-01  7.62695E-01 -1.74022E-01
    8990.221     -3.486   0.880  6.10911E-01  7.86163E-01 -1.75252E-01
    8990.496     -3.211   0.920  6.17244E-01  8.09312E-01 -1.92068E-01
    8990.782     -2.925   0.960  6.15580E-01  8.32070E-01 -2.16491E-01
    8991.081     -2.626   1.000  6.20649E-01  8.54358E-01 -2.33709E-01
    8991.392     -2.315   1.040  6.44122E-01  8.76111E-01 -2.31989E-01
    8991.715     -1.992   1.080  6.90569E-01  8.97216E-01 -2.06647E-01
    8992.050     -1.657   1.120  7.58593E-01  9.17578E-01 -1.58986E-01
    8992.398     -1.309   1.160  8.41517E-01  9.37104E-01 -9.55866E-02
    8992.757     -0.950   1.200  9.27055E-01  9.55741E-01 -2.86865E-02
    8993.129     -0.578   1.240  1.00176E+00  9.73377E-01  2.83820E-02
    8993.513     -0.194   1.280  1.06008E+00  9.89987E-01  7.00904E-02
    8993.910      0.202   1.320  1.09825E+00  1.00549E+00  9.27642E-02
    8994.318      0.611   1.360  1.10248E+00  1.01985E+00  8.26378E-02
    8994.739      1.031   1.400  1.07034E+00  1.03305E+00  3.72949E-02
    8995.171      1.464   1.440  1.01921E+00  1.04507E+00 -2.58601E-02
    8995.616      1.909   1.480  9.63000E-01  1.05589E+00 -9.28887E-02
    8996.074      2.366   1.520  9.11142E-01  1.06556E+00 -1.54417E-01
    8996.543      2.836   1.560  8.71101E-01  1.07405E+00 -2.02946E-01
    8997.025      3.317   1.600  8.49779E-01  1.08141E+00 -2.31632E-01
    8997.518      3.811   1.640  8.52348E-01  1.08767E+00 -2.35324E-01
    8998.024      4.317   1.680  8.77257E-01  1.09289E+00 -2.15636E-01
    8998.542      4.835   1.720  9.16703E-01  1.09713E+00 -1.80422E-01
    8999.073      5.366   1.760  9.67097E-01  1.10039E+00 -1.33296E-01
    8999.615      5.908   1.800  1.03713E+00  1.10279E+00 -6.56589E-02
    9000.170      6.463   1.840  1.13297E+00  1.10435E+00  2.86260E-02
    9000.737      7.030   1.880  1.23792E+00  1.10514E+00  1.32780E-01
    9001.316      7.609   1.920  1.31804E+00  1.10524E+00  2.12797E-01
    9001.907      8.200   1.960  1.35544E+00  1.10468E+00  2.50757E-01
    9002.511      8.804   2.000  1.35242E+00  1.10356E+00  2.48864E-01
    9003.127      9.420   2.040  1.30926E+00  1.10192E+00  2.07336E-01
    9003.755     10.047   2.080  1.23498E+00  1.09982E+00  1.35157E-01
    9004.395     10.687   2.120  1.15429E+00  1.09732E+00  5.69658E-02
    9005.047     11.340   2.160  1.09630E+00  1.09446E+00  1.83922E-03
    9005.711     12.004   2.200  1.06104E+00  1.09131E+00 -3.02721E-02
    9006.388     12.681   2.240  1.04060E+00  1.08789E+00 -4.72901E-02
    9007.077     13.370   2.280  1.03032E+00  1.08426E+00 -5.39429E-02
    9007.778     14.071   2.320  1.02737E+00  1.08048E+00 -5.31087E-02
    9008.491     14.784   2.360  1.03016E+00  1.07654E+00 -4.63795E-02
    9009.217     15.509   2.400  1.03737E+00  1.07254E+00 -3.51718E-02
    9009.954     16.247   2.440  1.04770E+00  1.06844E+00 -2.07395E-02
    9010.704     16.997   2.480  1.05951E+00  1.06434E+00 -4.82417E-03
    9011.466     17.759   2.520  1.07045E+00  1.06021E+00  1.02430E-02
    9012.240     18.533   2.560  1.07751E+00  1.05609E+00  2.14162E-02
    9013.027     19.319   2.600  1.07788E+00  1.05203E+00  2.58454E-02
    9013.825     20.118   2.640  1.07058E+00  1.04802E+00  2.25617E-02
    9014.636     20.929   2.680  1.05723E+00  1.04410E+00  1.31320E-02
    9015.459     21.752   2.720  1.04113E+00  1.04025E+00  8.73533E-04
    9016.294     22.587   2.760  1.02549E+00  1.03652E+00 -1.10334E-02
    9017.141     23.434   2.800  1.01239E+00  1.03292E+00 -2.05339E-02
    9018.001     24.294   2.840  1.00272E+00  1.02944E+00 -2.67273E-02
    9018.873     25.165   2.880  9.96953E-01  1.02610E+00 -2.91466E-02
    9019.756     26.049   2.920  9.95183E-01  1.02291E+00 -2.77244E-02
    9020.653     26.945   2.960  9.97154E-01  1.01988E+00 -2.27233E-02
    9021.561     27.854   3.000  1.00239E+00  1.01702E+00 -1.46360E-02
    9022.481     28.774   3.040  1.01001E+00  1.01433E+00 -4.32019E-03
    9023.414     29.707   3.080  1.01874E+00  1.01181E+00  6.92721E-03
    9024.359     30.652   3.120  1.02655E+00  1.00945E+00  1.70969E-02
    9025.316     31.609   3.160  1.03134E+00  1.00729E+00  2.40566E-02
    9026.285     32.578   3.200  1.03161E+00  1.00530E+00  2.63031E-02
    9027.267     33.560   3.240  1.02736E+00  1.00349E+00  2.38775E-02
    9028.260     34.553   3.280  1.01981E+00  1.00186E+00  1.79446E-02
    9029.266     35.559   3.320  1.01056E+00  1.00039E+00  1.01641E-02
    9030.284     36.577   3.360  1.00125E+00  9.99134E-01  2.11690E-03
    9031.314     37.607   3.400  9.92894E-01  9.98028E-01 -5.13396E-03
    9032.357     38.650   3.440  9.86197E-01  9.97112E-01 -1.09150E-02
    9033.411     39.704   3.480  9.81526E-01  9.96344E-01 -1.48184E-02
    9034.478     40.771   3.520  9.79283E-01  9.95766E-01 -1.64837E-02
    9035.557     41.850   3.560  9.79674E-01  9.95354E-01 -1.56797E-02
    9036.648     42.941   3.600  9.82778E-01  9.95105E-01 -1.23262E-02
    9037.752     44.045   3.640  9.88329E-01  9.94996E-01 -6.66662E-03
    9038.867     45.160   3.680  9.95815E-01  9.95047E-01  7.67829E-04
    9039.995     46.288   3.720  1.00456E+00  9.95255E-01  9.30640E-03
    9041.135     47.428   3.760  1.01383E+00  9.95596E-01  1.82356E-02
    9042.287     48.580   3.800  1.02284E+00  9.96067E-01  2.67715E-02
    9043.452     49.744   3.840  1.03075E+00  9.96687E-01  3.40625E-02
    9044.628     50.921   3.880  1.03676E+00  9.97410E-01  3.93451E-02
    9045.817     52.110   3.920  1.04030E+00  9.98276E-01  4.20256E-02
    9047.018     53.311   3.960  1.04099E+00  9.99238E-01  4.17478E-02
    9048.231     54.524   4.000  1.03877E+00  1.00029E+00  3.84789E-02
    9049.456     55.749   4.040  1.03392E+00  1.00145E+00  3.24680E-02
    9050.694     56.986   4.080  1.02696E+00  1.00270E+00  2.42627E-02
    9051.943     58.236   4.120  1.01872E+00  1.00401E+00  1.47124E-02
    9053.205     59.498   4.160  1.01027E+00  1.00542E+00  4.85786E-03
    9054.479     60.772   4.200  1.00265E+00  1.00688E+00 -4.22563E-03
    9055.765     62.058   4.240  9.96703E-01  1.00838E+00 -1.16804E-02
    9057.064     63.357   4.280  9.92962E-01  1.00996E+00 -1.69933E-02
    9058.374     64.667   4.320  9.91536E-01  1.01154E+00 -2.00082E-02
    9059.697     65.990   4.360  9.92250E-01  1.01317E+00 -2.09181E-02
    9061.032     67.325   4.400  9.94660E-01  1.01483E+00 -2.01666E-02
    9062.380     68.672   4.440  9.98108E-01  1.01649E+00 -1.83824E-02
    9063.739     70.032   4.480  1.00200E+00  1.01815E+00 -1.61580E-02
    9065.111     71.403   4.520  1.00594E+00  1.01982E+00 -1.38746E-02
    9066.494     72.787   4.560  1.00974E+00  1.02147E+00 -1.17290E-02
    9067.890     74.183   4.600  1.01322E+00  1.02310E+00 -9.87741E-03
    9069.298     75.591   4.640  1.01620E+00  1.02471E+00 -8.50558E-03
    9070.719     77.012   4.680  1.01848E+00  1.02628E+00 -7.80088E-03
    9072.151     78.444   4.720  1.01993E+00  1.02781E+00 -7.88413E-03
    9073.596     79.889   4.760  1.02044E+00  1.02927E+00 -8.82339E-03
    9075.053     81.346   4.800  1.01998E+00  1.03068E+00 -1.06912E-02
    9076.522     82.815   4.840  1.01846E+00  1.03203E+00 -1.35756E-02
    9078.004     84.296   4.880  1.01581E+00  1.03331E+00 -1.75012E-02
    9079.497     85.790   4.920  1.01224E+00  1.03454E+00 -2.22962E-02
    9081.003     87.296   4.960  1.00822E+00  1.03566E+00 -2.74390E-02
    9082.521     88.813   5.000  1.00470E+00  1.03671E+00 -3.20157E-02
    9084.051     90.344   5.040  1.00295E+00  1.03766E+00 -3.47096E-02
    9085.593     91.886   5.080  1.00442E+00  1.03852E+00 -3.41010E-02
    9087.147     93.440   5.120  1.01004E+00  1.03929E+00 -2.92407E-02
    9088.714     95.007   5.160  1.01980E+00  1.03994E+00 -2.01399E-02
    9090.293     96.586   5.200  1.03274E+00  1.04050E+00 -7.75982E-03
    9091.884     98.177   5.240  1.04751E+00  1.04097E+00  6.53603E-03
    9093.487     99.780   5.280  1.06293E+00  1.04133E+00  2.16062E-02
    9095.103    101.396   5.320  1.07818E+00  1.04159E+00  3.65870E-02
    9096.730    103.023   5.360  1.09213E+00  1.04174E+00  5.03920E-02
    9098.370    104.663   5.400  1.10313E+00  1.04179E+00  6.13430E-02
    9100.022    106.315   5.440  1.10919E+00  1.04173E+00  6.74564E-02
    9101.686    107.979   5.480  1.10889E+00  1.04160E+00  6.72849E-02
    9103.363    109.656   5.520  1.10200E+00  1.04134E+00  6.06546E-02
    9105.051    111.344   5.560  1.08983E+00  1.04101E+00  4.88201E-02
    9106.752    113.045   5.600  1.07452E+00  1.04058E+00  3.39462E-02
    9108.465    114.758   5.640  1.05844E+00  1.04008E+00  1.83584E-02
    9110.190    116.483   5.680  1.04349E+00  1.03948E+00  4.01037E-03
    9111.928    118.220   5.720  1.03116E+00  1.03882E+00 -7.65400E-03
    9113.677    119.970   5.760  1.02236E+00  1.03805E+00 -1.56917E-02
    9115.439    121.732   5.800  1.01755E+00  1.03724E+00 -1.96874E-02
    9117.213    123.506   5.840  1.01663E+00  1.03638E+00 -1.97571E-02
    9118.999    125.292   5.880  1.01894E+00  1.03546E+00 -1.65160E-02
    9120.797    127.090   5.920  1.02349E+00  1.03450E+00 -1.10110E-02
    9122.608    128.901   5.960  1.02886E+00  1.03348E+00 -4.61600E-03
    9124.430    130.723   6.000  1.03359E+00  1.03241E+00  1.18781E-03
