# # comment:                                                     FEFF 9.9.1  
# # Source:
# # Structure
# # Reduced
# # space
# # abc:
# # angles:100.010332
# # sites:
# # POT  SCF 100  7.0000   0, screened core-hole, AFOLP (folp(0)= 1.150)
# # Abs   Z=29 Rmt= 1.184 Rnm= 1.260 K  shell
# # Pot 1 Z=57 Rmt= 1.747 Rnm= 1.827
# # Pot 2 Z=29 Rmt= 1.150 Rnm= 1.240
# # Pot 3 Z= 8 Rmt= 1.040 Rnm= 1.086
# # Gam_ch=1.729E+00 H-L exch Vi= 0.000E+00 Vr= 0.000E+00
# # Mu=-8.176E+00eV kf=2.075E+00 Vint=-1.901E+01eV Rs_int= 1.748
# FMS rfms= 9.0000
# # PATH  Rmax=-1.000,  Keep_limit= 0.00, Heap_limit 0.00  Pwcrit= 2.50%
#  S02=0.950  Temp=   0.00  Debye_temp=   0.00  Global_sig2= 0.00000
#  Energy zero shift, vr, vi    0.00000E+00   0.00000E+00
#  Curved wave amplitude ratio filter   4.000%
#     file         sig2 tot  cw amp ratio   deg  nlegs   reff  inp sig2
#     0/   0 paths used
#  xsedge+ 50, used to normalize mu           2.4546E-04
#  -----------------------------------------------------------------------
#  omega    e    k    mu    mu0     chi     @#
    8985.344    -11.986  -1.000  4.09599E-02  5.82216E-02 -1.72616E-02
    8985.643    -11.687  -0.960  4.31517E-02  6.26085E-02 -1.94568E-02
    8985.929    -11.401  -0.920  4.55193E-02  6.74981E-02 -2.19788E-02
    8986.204    -11.126  -0.880  4.80848E-02  7.29657E-02 -2.48809E-02
    8986.466    -10.864  -0.840  5.08741E-02  7.90994E-02 -2.82253E-02
    8986.716    -10.614  -0.800  5.39173E-02  8.60011E-02 -3.20837E-02
    8986.953    -10.376  -0.760  5.72495E-02  9.37882E-02 -3.65386E-02
    8987.179    -10.151  -0.720  6.09105E-02  1.02593E-01 -4.16830E-02
    8987.392     -9.937  -0.680  6.49445E-02  1.12564E-01 -4.76191E-02
    8987.593     -9.736  -0.640  6.93985E-02  1.23853E-01 -5.44548E-02
    8987.782     -9.547  -0.600  7.43186E-02  1.36615E-01 -6.22967E-02
    8987.959     -9.371  -0.560  7.97437E-02  1.50981E-01 -7.12368E-02
    8988.124     -9.206  -0.520  8.56945E-02  1.67028E-01 -8.13332E-02
    8988.276     -9.054  -0.480  9.21597E-02  1.84742E-01 -9.25824E-02
    8988.416     -8.913  -0.440  9.90788E-02  2.03967E-01 -1.04889E-01
    8988.544     -8.785  -0.400  1.06328E-01  2.24365E-01 -1.18037E-01
    8988.660     -8.670  -0.360  1.13716E-01  2.45401E-01 -1.31685E-01
    8988.764     -8.566  -0.320  1.20999E-01  2.66382E-01 -1.45383E-01
    8988.855     -8.474  -0.280  1.27911E-01  2.86540E-01 -1.58630E-01
    8988.935     -8.395  -0.240  1.34204E-01  3.05138E-01 -1.70934E-01
    8989.002     -8.328  -0.200  1.39686E-01  3.21561E-01 -1.81875E-01
    8989.057     -8.273  -0.160  1.44229E-01  3.35363E-01 -1.91134E-01
    8989.099     -8.231  -0.120  1.47771E-01  3.46263E-01 -1.98492E-01
    8989.130     -8.200  -0.080  1.50291E-01  3.54109E-01 -2.03818E-01
    8989.154     -8.176   0.000  1.52286E-01  3.60408E-01 -2.08122E-01
    8989.209     -8.121   0.120  1.56744E-01  3.74596E-01 -2.17851E-01
    8989.252     -8.078   0.160  1.60139E-01  3.85616E-01 -2.25477E-01
    8989.306     -8.023   0.200  1.64378E-01  3.99657E-01 -2.35280E-01
    8989.374     -7.956   0.240  1.69275E-01  4.16484E-01 -2.47209E-01
    8989.453     -7.877   0.280  1.74716E-01  4.35772E-01 -2.61056E-01
    8989.544     -7.786   0.320  1.80392E-01  4.56928E-01 -2.76535E-01
    8989.648     -7.682   0.360  1.86158E-01  4.79336E-01 -2.93179E-01
    8989.764     -7.566   0.400  1.91907E-01  5.02282E-01 -3.10375E-01
    8989.892     -7.438   0.440  1.97680E-01  5.25091E-01 -3.27412E-01
    8990.032     -7.298   0.480  2.03736E-01  5.47318E-01 -3.43581E-01
    8990.184     -7.146   0.520  2.10353E-01  5.68608E-01 -3.58255E-01
    8990.349     -6.981   0.560  2.17783E-01  5.88800E-01 -3.71017E-01
    8990.526     -6.804   0.600  2.26196E-01  6.07899E-01 -3.81702E-01
    8990.715     -6.615   0.640  2.35832E-01  6.25934E-01 -3.90102E-01
    8990.916     -6.414   0.680  2.47243E-01  6.43002E-01 -3.95759E-01
    8991.129     -6.201   0.720  2.61310E-01  6.59257E-01 -3.97947E-01
    8991.355     -5.975   0.760  2.78905E-01  6.74791E-01 -3.95886E-01
    8991.592     -5.737   0.800  3.00269E-01  6.89704E-01 -3.89435E-01
    8991.842     -5.487   0.840  3.24140E-01  7.04105E-01 -3.79965E-01
    8992.105     -5.225   0.880  3.47268E-01  7.18065E-01 -3.70797E-01
    8992.379     -4.951   0.920  3.66565E-01  7.31620E-01 -3.65055E-01
    8992.665     -4.664   0.960  3.82256E-01  7.44851E-01 -3.62594E-01
    8992.964     -4.366   1.000  3.97121E-01  7.57747E-01 -3.60626E-01
    8993.275     -4.055   1.040  4.13484E-01  7.70370E-01 -3.56886E-01
    8993.598     -3.732   1.080  4.32819E-01  7.82706E-01 -3.49888E-01
    8993.933     -3.396   1.120  4.58470E-01  7.94781E-01 -3.36311E-01
    8994.281     -3.049   1.160  4.96158E-01  8.06571E-01 -3.10413E-01
    8994.640     -2.689   1.200  5.51992E-01  8.18109E-01 -2.66116E-01
    8995.012     -2.318   1.240  6.30773E-01  8.29342E-01 -1.98569E-01
    8995.396     -1.933   1.280  7.36535E-01  8.40276E-01 -1.03740E-01
    8995.793     -1.537   1.320  8.73949E-01  8.50914E-01  2.30348E-02
    8996.201     -1.129   1.360  1.04448E+00  8.61238E-01  1.83239E-01
    8996.622     -0.708   1.400  1.21747E+00  8.71229E-01  3.46238E-01
    8997.054     -0.275   1.440  1.30204E+00  8.80885E-01  4.21157E-01
    8997.499      0.170   1.480  1.24697E+00  8.90164E-01  3.56808E-01
    8997.957      0.627   1.520  1.13023E+00  8.99108E-01  2.31126E-01
    8998.426      1.096   1.560  1.04074E+00  9.07674E-01  1.33068E-01
    8998.908      1.578   1.600  1.01657E+00  9.15862E-01  1.00703E-01
    8999.401      2.072   1.640  1.06942E+00  9.23652E-01  1.45764E-01
    8999.907      2.578   1.680  1.18992E+00  9.31062E-01  2.58862E-01
    9000.426      3.096   1.720  1.33201E+00  9.38074E-01  3.93940E-01
    9000.956      3.626   1.760  1.41210E+00  9.44690E-01  4.67409E-01
    9001.498      4.169   1.800  1.38999E+00  9.50911E-01  4.39082E-01
    9002.053      4.723   1.840  1.31453E+00  9.56739E-01  3.57793E-01
    9002.620      5.290   1.880  1.23770E+00  9.62200E-01  2.75499E-01
    9003.199      5.869   1.920  1.17352E+00  9.67255E-01  2.06262E-01
    9003.790      6.461   1.960  1.12050E+00  9.71952E-01  1.48545E-01
    9004.394      7.064   2.000  1.08561E+00  9.76272E-01  1.09338E-01
    9005.010      7.680   2.040  1.08205E+00  9.80243E-01  1.01805E-01
    9005.638      8.308   2.080  1.10217E+00  9.83871E-01  1.18296E-01
    9006.278      8.948   2.120  1.12859E+00  9.87162E-01  1.41428E-01
    9006.930      9.600   2.160  1.14962E+00  9.90124E-01  1.59493E-01
    9007.594     10.265   2.200  1.15874E+00  9.92783E-01  1.65954E-01
    9008.271     10.941   2.240  1.15430E+00  9.95147E-01  1.59156E-01
    9008.960     11.630   2.280  1.13374E+00  9.97244E-01  1.36497E-01
    9009.661     12.331   2.320  1.09778E+00  9.99061E-01  9.87149E-02
    9010.374     13.044   2.360  1.05686E+00  1.00063E+00  5.62389E-02
    9011.100     13.770   2.400  1.02674E+00  1.00197E+00  2.47740E-02
    9011.837     14.507   2.440  1.01754E+00  1.00307E+00  1.44730E-02
    9012.587     15.257   2.480  1.02893E+00  1.00396E+00  2.49696E-02
    9013.349     16.019   2.520  1.04797E+00  1.00468E+00  4.32976E-02
    9014.123     16.793   2.560  1.06008E+00  1.00522E+00  5.48572E-02
    9014.910     17.580   2.600  1.06518E+00  1.00557E+00  5.96068E-02
    9015.708     18.378   2.640  1.06459E+00  1.00581E+00  5.87779E-02
    9016.519     19.189   2.680  1.06077E+00  1.00590E+00  5.48748E-02
    9017.342     20.012   2.720  1.05505E+00  1.00586E+00  4.91937E-02
    9018.177     20.847   2.760  1.04710E+00  1.00570E+00  4.13994E-02
    9019.024     21.695   2.800  1.03538E+00  1.00547E+00  2.99147E-02
    9019.884     22.554   2.840  1.01905E+00  1.00513E+00  1.39176E-02
    9020.756     23.426   2.880  9.98688E-01  1.00472E+00 -6.03059E-03
    9021.640     24.310   2.920  9.76021E-01  1.00425E+00 -2.82298E-02
    9022.536     25.206   2.960  9.52915E-01  1.00373E+00 -5.08192E-02
    9023.444     26.114   3.000  9.31530E-01  1.00317E+00 -7.16433E-02
    9024.364     27.035   3.040  9.13687E-01  1.00257E+00 -8.88872E-02
    9025.297     27.967   3.080  9.00220E-01  1.00196E+00 -1.01741E-01
    9026.242     28.912   3.120  8.91043E-01  1.00132E+00 -1.10275E-01
    9027.199     29.869   3.160  8.85424E-01  1.00067E+00 -1.15243E-01
    9028.168     30.839   3.200  8.82500E-01  1.00001E+00 -1.17512E-01
    9029.150     31.820   3.240  8.81900E-01  9.99357E-01 -1.17457E-01
    9030.143     32.814   3.280  8.83546E-01  9.98706E-01 -1.15159E-01
    9031.149     33.819   3.320  8.87357E-01  9.98081E-01 -1.10724E-01
    9032.167     34.837   3.360  8.92990E-01  9.97465E-01 -1.04475E-01
    9033.197     35.868   3.400  8.99781E-01  9.96882E-01 -9.71010E-02
    9034.240     36.910   3.440  9.06587E-01  9.96333E-01 -8.97458E-02
    9035.294     37.965   3.480  9.12594E-01  9.95820E-01 -8.32259E-02
    9036.361     39.031   3.520  9.17557E-01  9.95322E-01 -7.77658E-02
    9037.440     40.110   3.560  9.21897E-01  9.94883E-01 -7.29864E-02
    9038.531     41.202   3.600  9.26164E-01  9.94461E-01 -6.82971E-02
    9039.635     42.305   3.640  9.31072E-01  9.94101E-01 -6.30287E-02
    9040.750     43.421   3.680  9.36882E-01  9.93762E-01 -5.68796E-02
    9041.878     44.548   3.720  9.43435E-01  9.93486E-01 -5.00510E-02
    9043.018     45.688   3.760  9.50382E-01  9.93255E-01 -4.28721E-02
    9044.170     46.840   3.800  9.57603E-01  9.93086E-01 -3.54827E-02
    9045.335     48.005   3.840  9.65042E-01  9.92939E-01 -2.78976E-02
    9046.511     49.181   3.880  9.72866E-01  9.92855E-01 -1.99888E-02
    9047.700     50.370   3.920  9.81255E-01  9.92792E-01 -1.15378E-02
    9048.901     51.571   3.960  9.90331E-01  9.92793E-01 -2.46200E-03
    9050.114     52.784   4.000  9.99912E-01  9.92834E-01  7.07734E-03
    9051.339     54.009   4.040  1.00951E+00  9.92920E-01  1.65919E-02
    9052.577     55.247   4.080  1.01845E+00  9.93068E-01  2.53816E-02
    9053.826     56.496   4.120  1.02589E+00  9.93234E-01  3.26579E-02
    9055.088     57.758   4.160  1.03144E+00  9.93437E-01  3.80077E-02
    9056.362     59.032   4.200  1.03533E+00  9.93680E-01  4.16513E-02
    9057.648     60.319   4.240  1.03825E+00  9.93959E-01  4.42860E-02
    9058.947     61.617   4.280  1.04088E+00  9.94276E-01  4.66058E-02
    9060.257     62.928   4.320  1.04371E+00  9.94629E-01  4.90779E-02
    9061.580     64.251   4.360  1.04682E+00  9.94993E-01  5.18293E-02
    9062.915     65.586   4.400  1.04994E+00  9.95391E-01  5.45534E-02
    9064.263     66.933   4.440  1.05265E+00  9.95819E-01  5.68260E-02
    9065.622     68.292   4.480  1.05467E+00  9.96256E-01  5.84143E-02
    9066.994     69.664   4.520  1.05628E+00  9.96698E-01  5.95800E-02
    9068.377     71.048   4.560  1.05818E+00  9.97169E-01  6.10114E-02
    9069.773     72.444   4.600  1.06103E+00  9.97646E-01  6.33825E-02
    9071.181     73.852   4.640  1.06504E+00  9.98147E-01  6.68970E-02
    9072.602     75.272   4.680  1.06975E+00  9.98628E-01  7.11222E-02
    9074.034     76.705   4.720  1.07421E+00  9.99130E-01  7.50780E-02
    9075.479     78.149   4.760  1.07708E+00  9.99608E-01  7.74676E-02
    9076.936     79.606   4.800  1.07714E+00  1.00008E+00  7.70608E-02
    9078.405     81.075   4.840  1.07354E+00  1.00058E+00  7.29663E-02
    9079.887     82.557   4.880  1.06584E+00  1.00104E+00  6.47955E-02
    9081.380     84.050   4.920  1.05434E+00  1.00148E+00  5.28561E-02
    9082.886     85.556   4.960  1.04010E+00  1.00193E+00  3.81662E-02
    9084.404     87.074   5.000  1.02453E+00  1.00233E+00  2.21928E-02
    9085.934     88.604   5.040  1.00914E+00  1.00274E+00  6.39113E-03
    9087.476     90.146   5.080  9.94968E-01  1.00312E+00 -8.15525E-03
    9089.030     91.701   5.120  9.82879E-01  1.00347E+00 -2.05877E-02
    9090.597     93.267   5.160  9.73582E-01  1.00377E+00 -3.01924E-02
    9092.176     94.846   5.200  9.67703E-01  1.00407E+00 -3.63655E-02
    9093.767     96.437   5.240  9.65365E-01  1.00433E+00 -3.89635E-02
    9095.370     98.041   5.280  9.66077E-01  1.00457E+00 -3.84962E-02
    9096.986     99.656   5.320  9.68781E-01  1.00476E+00 -3.59759E-02
    9098.613    101.284   5.360  9.72366E-01  1.00493E+00 -3.25596E-02
    9100.253    102.923   5.400  9.75720E-01  1.00505E+00 -2.93349E-02
    9101.905    104.575   5.440  9.77805E-01  1.00514E+00 -2.73369E-02
    9103.569    106.240   5.480  9.77745E-01  1.00517E+00 -2.74228E-02
    9105.246    107.916   5.520  9.75311E-01  1.00518E+00 -2.98668E-02
    9106.934    109.605   5.560  9.71052E-01  1.00517E+00 -3.41196E-02
    9108.635    111.305   5.600  9.65837E-01  1.00510E+00 -3.92646E-02
    9110.348    113.018   5.640  9.60385E-01  1.00499E+00 -4.46054E-02
    9112.073    114.743   5.680  9.54976E-01  1.00484E+00 -4.98633E-02
    9113.811    116.481   5.720  9.49660E-01  1.00465E+00 -5.49910E-02
    9115.560    118.230   5.760  9.44675E-01  1.00445E+00 -5.97717E-02
    9117.322    119.992   5.800  9.40600E-01  1.00418E+00 -6.35822E-02
    9119.096    121.766   5.840  9.38461E-01  1.00391E+00 -6.54443E-02
    9120.882    123.552   5.880  9.39154E-01  1.00359E+00 -6.44391E-02
    9122.680    125.350   5.920  9.42978E-01  1.00325E+00 -6.02696E-02
    9124.491    127.161   5.960  9.49369E-01  1.00287E+00 -5.34975E-02
    9126.313    128.984   6.000  9.57427E-01  1.00243E+00 -4.50008E-02
