# # comment:                                                     FEFF 9.9.1  
# # Source:
# # Structure
# # Reduced
# # space
# # abc:
# # angles:
# # sites:
# # POT  SCF 100  7.0000   0, screened core-hole, AFOLP (folp(0)= 1.150)
# # Abs   Z=29 Rmt= 1.193 Rnm= 1.290 K  shell
# # Pot 1 Z=29 Rmt= 1.193 Rnm= 1.290
# # Pot 2 Z=15 Rmt= 0.938 Rnm= 1.157
# # Pot 3 Z= 7 Rmt= 1.668 Rnm= 1.668
# # Pot 4 Z= 8 Rmt= 0.882 Rnm= 1.045
# # Gam_ch=1.729E+00 H-L exch Vi= 0.000E+00 Vr= 0.000E+00
# # Mu=-7.505E+00eV kf=2.523E+00 Vint=-1.670E+01eV Rs_int= 1.438
# FMS rfms= 9.0000
# # PATH  Rmax=-1.000,  Keep_limit= 0.00, Heap_limit 0.00  Pwcrit= 2.50%
#  S02=0.950  Temp=   0.00  Debye_temp=   0.00  Global_sig2= 0.00000
#  Energy zero shift, vr, vi    0.00000E+00   0.00000E+00
#  Curved wave amplitude ratio filter   4.000%
#     file         sig2 tot  cw amp ratio   deg  nlegs   reff  inp sig2
#     0/   0 paths used
#  xsedge+ 50, used to normalize mu           2.4849E-04
#  -----------------------------------------------------------------------
#  omega    e    k    mu    mu0     chi     @#
    8983.290    -11.315  -1.000  3.26340E-02  4.92136E-02 -1.65796E-02
    8983.588    -11.017  -0.960  3.41440E-02  5.27015E-02 -1.85575E-02
    8983.875    -10.730  -0.920  3.57422E-02  5.65723E-02 -2.08302E-02
    8984.149    -10.456  -0.880  3.74341E-02  6.08822E-02 -2.34482E-02
    8984.411    -10.194  -0.840  3.92255E-02  6.56965E-02 -2.64710E-02
    8984.661     -9.944  -0.800  4.11226E-02  7.10909E-02 -2.99683E-02
    8984.899     -9.706  -0.760  4.31314E-02  7.71523E-02 -3.40209E-02
    8985.124     -9.480  -0.720  4.52576E-02  8.39788E-02 -3.87212E-02
    8985.338     -9.267  -0.680  4.75067E-02  9.16784E-02 -4.41717E-02
    8985.539     -9.066  -0.640  4.98829E-02  1.00365E-01 -5.04823E-02
    8985.728     -8.877  -0.600  5.23884E-02  1.10151E-01 -5.77627E-02
    8985.905     -8.700  -0.560  5.50220E-02  1.21131E-01 -6.61094E-02
    8986.069     -8.536  -0.520  5.77775E-02  1.33363E-01 -7.55853E-02
    8986.222     -8.383  -0.480  6.06407E-02  1.46832E-01 -8.61916E-02
    8986.362     -8.243  -0.440  6.35869E-02  1.61422E-01 -9.78347E-02
    8986.490     -8.115  -0.400  6.65786E-02  1.76877E-01 -1.10299E-01
    8986.606     -7.999  -0.360  6.95649E-02  1.92801E-01 -1.23236E-01
    8986.709     -7.895  -0.320  7.24829E-02  2.08677E-01 -1.36194E-01
    8986.801     -7.804  -0.280  7.52629E-02  2.23929E-01 -1.48666E-01
    8986.880     -7.725  -0.240  7.78342E-02  2.38007E-01 -1.60173E-01
    8986.947     -7.658  -0.200  8.01309E-02  2.50448E-01 -1.70317E-01
    8987.002     -7.603  -0.160  8.20960E-02  2.60913E-01 -1.78817E-01
    8987.045     -7.560  -0.120  8.36825E-02  2.69185E-01 -1.85502E-01
    8987.075     -7.530  -0.080  8.48538E-02  2.75144E-01 -1.90291E-01
    8987.100     -7.505   0.000  8.58359E-02  2.79932E-01 -1.94096E-01
    8987.154     -7.450   0.120  8.80737E-02  2.90744E-01 -2.02671E-01
    8987.197     -7.408   0.160  8.97725E-02  2.99132E-01 -2.09360E-01
    8987.252     -7.353   0.200  9.19823E-02  3.09848E-01 -2.17865E-01
    8987.319     -7.286   0.240  9.47499E-02  3.22748E-01 -2.27998E-01
    8987.398     -7.207   0.280  9.80762E-02  3.37557E-01 -2.39481E-01
    8987.490     -7.115   0.320  1.02021E-01  3.53921E-01 -2.51900E-01
    8987.593     -7.012   0.360  1.06617E-01  3.71333E-01 -2.64716E-01
    8987.709     -6.896   0.400  1.11987E-01  3.89339E-01 -2.77352E-01
    8987.837     -6.768   0.440  1.18248E-01  4.07468E-01 -2.89220E-01
    8987.977     -6.628   0.480  1.25545E-01  4.25351E-01 -2.99806E-01
    8988.130     -6.475   0.520  1.34134E-01  4.42747E-01 -3.08614E-01
    8988.294     -6.311   0.560  1.44430E-01  4.59597E-01 -3.15167E-01
    8988.471     -6.134   0.600  1.56864E-01  4.75851E-01 -3.18988E-01
    8988.660     -5.945   0.640  1.71983E-01  4.91563E-01 -3.19580E-01
    8988.861     -5.744   0.680  1.90321E-01  5.06796E-01 -3.16476E-01
    8989.075     -5.530   0.720  2.12156E-01  5.21648E-01 -3.09492E-01
    8989.300     -5.305   0.760  2.37368E-01  5.36193E-01 -2.98825E-01
    8989.538     -5.067   0.800  2.65676E-01  5.50518E-01 -2.84842E-01
    8989.788     -4.817   0.840  2.97294E-01  5.64679E-01 -2.67384E-01
    8990.050     -4.555   0.880  3.32916E-01  5.78740E-01 -2.45824E-01
    8990.324     -4.281   0.920  3.72289E-01  5.92693E-01 -2.20403E-01
    8990.611     -3.994   0.960  4.13679E-01  6.06620E-01 -1.92940E-01
    8990.910     -3.695   1.000  4.55583E-01  6.20512E-01 -1.64929E-01
    8991.220     -3.384   1.040  4.97890E-01  6.34354E-01 -1.36464E-01
    8991.544     -3.061   1.080  5.37760E-01  6.48203E-01 -1.10443E-01
    8991.879     -2.726   1.120  5.66048E-01  6.61990E-01 -9.59415E-02
    8992.226     -2.379   1.160  5.73737E-01  6.75761E-01 -1.02024E-01
    8992.586     -2.019   1.200  5.64530E-01  6.89460E-01 -1.24930E-01
    8992.958     -1.647   1.240  5.55413E-01  7.03065E-01 -1.47652E-01
    8993.342     -1.263   1.280  5.58090E-01  7.16595E-01 -1.58505E-01
    8993.738     -0.867   1.320  5.69595E-01  7.30004E-01 -1.60409E-01
    8994.147     -0.458   1.360  5.82816E-01  7.43263E-01 -1.60447E-01
    8994.567     -0.038   1.400  5.95077E-01  7.56366E-01 -1.61290E-01
    8995.000      0.395   1.440  6.02429E-01  7.69264E-01 -1.66836E-01
    8995.445      0.840   1.480  6.02533E-01  7.81949E-01 -1.79416E-01
    8995.902      1.297   1.520  5.99417E-01  7.94368E-01 -1.94951E-01
    8996.372      1.767   1.560  5.98825E-01  8.06535E-01 -2.07711E-01
    8996.853      2.248   1.600  6.05280E-01  8.18421E-01 -2.13141E-01
    8997.347      2.742   1.640  6.20282E-01  8.29995E-01 -2.09712E-01
    8997.853      3.248   1.680  6.46736E-01  8.41230E-01 -1.94494E-01
    8998.371      3.766   1.720  6.88728E-01  8.52117E-01 -1.63389E-01
    8998.901      4.296   1.760  7.44816E-01  8.62650E-01 -1.17834E-01
    8999.444      4.839   1.800  8.15335E-01  8.72802E-01 -5.74678E-02
    8999.999      5.394   1.840  8.99152E-01  8.82550E-01  1.66027E-02
    9000.566      5.961   1.880  9.73098E-01  8.91907E-01  8.11914E-02
    9001.145      6.540   1.920  1.01600E+00  9.00849E-01  1.15151E-01
    9001.736      7.131   1.960  1.04264E+00  9.09356E-01  1.33288E-01
    9002.340      7.735   2.000  1.07805E+00  9.17466E-01  1.60580E-01
    9002.955      8.350   2.040  1.12921E+00  9.25159E-01  2.04053E-01
    9003.583      8.978   2.080  1.18034E+00  9.32413E-01  2.47930E-01
    9004.223      9.618   2.120  1.20804E+00  9.39249E-01  2.68793E-01
    9004.875     10.271   2.160  1.20148E+00  9.45672E-01  2.55807E-01
    9005.540     10.935   2.200  1.16883E+00  9.51663E-01  2.17166E-01
    9006.217     11.612   2.240  1.12940E+00  9.57266E-01  1.72139E-01
    9006.905     12.300   2.280  1.09955E+00  9.62466E-01  1.37082E-01
    9007.606     13.002   2.320  1.09065E+00  9.67286E-01  1.23367E-01
    9008.320     13.715   2.360  1.10509E+00  9.71712E-01  1.33376E-01
    9009.045     14.440   2.400  1.13597E+00  9.75769E-01  1.60198E-01
    9009.783     15.178   2.440  1.17547E+00  9.79487E-01  1.95983E-01
    9010.533     15.928   2.480  1.21765E+00  9.82848E-01  2.34805E-01
    9011.295     16.690   2.520  1.25717E+00  9.85881E-01  2.71288E-01
    9012.069     17.464   2.560  1.29215E+00  9.88591E-01  3.03557E-01
    9012.855     18.250   2.600  1.32176E+00  9.91008E-01  3.30747E-01
    9013.654     19.049   2.640  1.33637E+00  9.93140E-01  3.43228E-01
    9014.464     19.860   2.680  1.32297E+00  9.94993E-01  3.27980E-01
    9015.287     20.682   2.720  1.27913E+00  9.96594E-01  2.82533E-01
    9016.123     21.518   2.760  1.20860E+00  9.97953E-01  2.10647E-01
    9016.970     22.365   2.800  1.12286E+00  9.99097E-01  1.23766E-01
    9017.829     23.224   2.840  1.04331E+00  1.00001E+00  4.32991E-02
    9018.701     24.096   2.880  9.83189E-01  1.00074E+00 -1.75556E-02
    9019.585     24.980   2.920  9.47245E-01  1.00128E+00 -5.40383E-02
    9020.481     25.876   2.960  9.25412E-01  1.00163E+00 -7.62212E-02
    9021.389     26.785   3.000  9.10680E-01  1.00185E+00 -9.11655E-02
    9022.310     27.705   3.040  9.00518E-01  1.00192E+00 -1.01405E-01
    9023.243     28.638   3.080  8.93954E-01  1.00186E+00 -1.07902E-01
    9024.188     29.583   3.120  8.90226E-01  1.00169E+00 -1.11462E-01
    9025.145     30.540   3.160  8.88111E-01  1.00141E+00 -1.13296E-01
    9026.114     31.509   3.200  8.86237E-01  1.00101E+00 -1.14777E-01
    9027.095     32.490   3.240  8.83804E-01  1.00056E+00 -1.16757E-01
    9028.089     33.484   3.280  8.80688E-01  1.00003E+00 -1.19340E-01
    9029.095     34.490   3.320  8.76838E-01  9.99425E-01 -1.22588E-01
    9030.113     35.508   3.360  8.72358E-01  9.98796E-01 -1.26437E-01
    9031.143     36.538   3.400  8.67502E-01  9.98102E-01 -1.30599E-01
    9032.185     37.581   3.440  8.62622E-01  9.97368E-01 -1.34746E-01
    9033.240     38.635   3.480  8.58275E-01  9.96621E-01 -1.38346E-01
    9034.307     39.702   3.520  8.55265E-01  9.95843E-01 -1.40578E-01
    9035.386     40.781   3.560  8.54626E-01  9.95058E-01 -1.40432E-01
    9036.477     41.872   3.600  8.57028E-01  9.94271E-01 -1.37243E-01
    9037.580     42.975   3.640  8.62960E-01  9.93505E-01 -1.30545E-01
    9038.696     44.091   3.680  8.72396E-01  9.92719E-01 -1.20323E-01
    9039.824     45.219   3.720  8.84786E-01  9.91936E-01 -1.07150E-01
    9040.964     46.359   3.760  8.99233E-01  9.91180E-01 -9.19471E-02
    9042.116     47.511   3.800  9.14814E-01  9.90456E-01 -7.56420E-02
    9043.280     48.675   3.840  9.30579E-01  9.89743E-01 -5.91642E-02
    9044.457     49.852   3.880  9.45710E-01  9.89063E-01 -4.33527E-02
    9045.645     51.040   3.920  9.59730E-01  9.88417E-01 -2.86872E-02
    9046.846     52.241   3.960  9.72265E-01  9.87786E-01 -1.55216E-02
    9048.059     53.454   4.000  9.83130E-01  9.87214E-01 -4.08328E-03
    9049.285     54.680   4.040  9.92271E-01  9.86659E-01  5.61182E-03
    9050.522     55.917   4.080  9.99913E-01  9.86164E-01  1.37486E-02
    9051.772     57.167   4.120  1.00635E+00  9.85687E-01  2.06585E-02
    9053.034     58.429   4.160  1.01218E+00  9.85272E-01  2.69094E-02
    9054.308     59.703   4.200  1.01808E+00  9.84877E-01  3.32082E-02
    9055.594     60.989   4.240  1.02469E+00  9.84544E-01  4.01456E-02
    9056.892     62.287   4.280  1.03226E+00  9.84254E-01  4.80104E-02
    9058.203     63.598   4.320  1.04070E+00  9.84005E-01  5.66931E-02
    9059.526     64.921   4.360  1.04946E+00  9.83820E-01  6.56421E-02
    9060.861     66.256   4.400  1.05765E+00  9.83653E-01  7.39984E-02
    9062.208     67.603   4.440  1.06445E+00  9.83524E-01  8.09217E-02
    9063.567     68.963   4.480  1.06907E+00  9.83436E-01  8.56333E-02
    9064.939     70.334   4.520  1.07093E+00  9.83411E-01  8.75188E-02
    9066.323     71.718   4.560  1.06978E+00  9.83404E-01  8.63739E-02
    9067.719     73.114   4.600  1.06587E+00  9.83455E-01  8.24182E-02
    9069.127     74.522   4.640  1.05978E+00  9.83524E-01  7.62600E-02
    9070.547     75.942   4.680  1.05237E+00  9.83628E-01  6.87368E-02
    9071.980     77.375   4.720  1.04438E+00  9.83769E-01  6.06096E-02
    9073.425     78.820   4.760  1.03636E+00  9.83944E-01  5.24159E-02
    9074.882     80.277   4.800  1.02867E+00  9.84130E-01  4.45387E-02
    9076.351     81.746   4.840  1.02161E+00  9.84350E-01  3.72601E-02
    9077.832     83.227   4.880  1.01537E+00  9.84602E-01  3.07651E-02
    9079.326     84.721   4.920  1.00998E+00  9.84862E-01  2.51226E-02
    9080.831     86.226   4.960  1.00538E+00  9.85129E-01  2.02553E-02
    9082.349     87.744   5.000  1.00143E+00  9.85424E-01  1.60083E-02
    9083.879     89.274   5.040  9.97988E-01  9.85748E-01  1.22404E-02
    9085.422     90.817   5.080  9.94915E-01  9.86054E-01  8.86103E-03
    9086.976     92.371   5.120  9.92214E-01  9.86385E-01  5.82867E-03
    9088.543     93.938   5.160  9.89820E-01  9.86719E-01  3.10055E-03
    9090.122     95.517   5.200  9.87694E-01  9.87052E-01  6.41597E-04
    9091.713     97.108   5.240  9.85771E-01  9.87384E-01 -1.61326E-03
    9093.316     98.711   5.280  9.83891E-01  9.87714E-01 -3.82288E-03
    9094.931    100.326   5.320  9.81761E-01  9.88018E-01 -6.25639E-03
    9096.559    101.954   5.360  9.79096E-01  9.88340E-01 -9.24365E-03
    9098.199    103.594   5.400  9.75588E-01  9.88636E-01 -1.30472E-02
    9099.851    105.246   5.440  9.71183E-01  9.88925E-01 -1.77420E-02
    9101.515    106.910   5.480  9.66058E-01  9.89209E-01 -2.31505E-02
    9103.191    108.586   5.520  9.60610E-01  9.89463E-01 -2.88523E-02
    9104.880    110.275   5.560  9.55431E-01  9.89706E-01 -3.42754E-02
    9106.581    111.976   5.600  9.51098E-01  9.89916E-01 -3.88177E-02
    9108.294    113.689   5.640  9.48042E-01  9.90091E-01 -4.20494E-02
    9110.019    115.414   5.680  9.46441E-01  9.90258E-01 -4.38164E-02
    9111.756    117.151   5.720  9.46192E-01  9.90413E-01 -4.42214E-02
    9113.506    118.901   5.760  9.47006E-01  9.90511E-01 -4.35053E-02
    9115.267    120.663   5.800  9.48576E-01  9.90595E-01 -4.20186E-02
    9117.041    122.436   5.840  9.50459E-01  9.90642E-01 -4.01835E-02
    9118.828    124.223   5.880  9.52261E-01  9.90655E-01 -3.83943E-02
    9120.626    126.021   5.920  9.53800E-01  9.90654E-01 -3.68546E-02
    9122.436    127.831   5.960  9.55141E-01  9.90589E-01 -3.54475E-02
    9124.259    129.654   6.000  9.56838E-01  9.90492E-01 -3.36544E-02
