# # comment:                                                     FEFF 9.9.1  
# # Source:
# # Structure
# # Reduced
# # space
# # abc:
# # angles:
# # sites:
# # POT  SCF 100  7.0000   0, screened core-hole, AFOLP (folp(0)= 1.150)
# # Abs   Z=29 Rmt= 1.270 Rnm= 1.339 K  shell
# # Pot 1 Z= 3 Rmt= 1.219 Rnm= 1.314
# # Pot 2 Z=29 Rmt= 1.270 Rnm= 1.340
# # Pot 3 Z=15 Rmt= 0.938 Rnm= 1.154
# # Pot 4 Z= 8 Rmt= 0.907 Rnm= 1.045
# # Gam_ch=1.729E+00 H-L exch Vi= 0.000E+00 Vr= 0.000E+00
# # Mu=-7.261E+00eV kf=2.403E+00 Vint=-1.698E+01eV Rs_int= 1.509
# FMS rfms= 9.0000
# # PATH  Rmax=-1.000,  Keep_limit= 0.00, Heap_limit 0.00  Pwcrit= 2.50%
#  S02=0.950  Temp=   0.00  Debye_temp=   0.00  Global_sig2= 0.00000
#  Energy zero shift, vr, vi    0.00000E+00   0.00000E+00
#  Curved wave amplitude ratio filter   4.000%
#     file         sig2 tot  cw amp ratio   deg  nlegs   reff  inp sig2
#     0/   0 paths used
#  xsedge+ 50, used to normalize mu           2.4746E-04
#  -----------------------------------------------------------------------
#  omega    e    k    mu    mu0     chi     @#
    8983.529    -11.071  -1.000  3.85916E-02  5.36346E-02 -1.50430E-02
    8983.828    -10.772  -0.960  4.05840E-02  5.75432E-02 -1.69591E-02
    8984.114    -10.486  -0.920  4.27173E-02  6.18886E-02 -1.91713E-02
    8984.389    -10.211  -0.880  4.50047E-02  6.67356E-02 -2.17310E-02
    8984.651     -9.949  -0.840  4.74608E-02  7.21594E-02 -2.46986E-02
    8984.901     -9.699  -0.800  5.01018E-02  7.82472E-02 -2.81454E-02
    8985.138     -9.462  -0.760  5.29456E-02  8.50992E-02 -3.21536E-02
    8985.364     -9.236  -0.720  5.60112E-02  9.28287E-02 -3.68175E-02
    8985.577     -9.023  -0.680  5.93182E-02  1.01560E-01 -4.22421E-02
    8985.778     -8.821  -0.640  6.28863E-02  1.11426E-01 -4.85398E-02
    8985.967     -8.632  -0.600  6.67326E-02  1.22556E-01 -5.58229E-02
    8986.144     -8.456  -0.560  7.08690E-02  1.35059E-01 -6.41901E-02
    8986.309     -8.291  -0.520  7.52971E-02  1.49003E-01 -7.37059E-02
    8986.461     -8.139  -0.480  8.00024E-02  1.64373E-01 -8.43707E-02
    8986.601     -7.998  -0.440  8.49467E-02  1.81034E-01 -9.60874E-02
    8986.729     -7.870  -0.400  9.00623E-02  1.98695E-01 -1.08633E-01
    8986.845     -7.755  -0.360  9.52491E-02  2.16899E-01 -1.21650E-01
    8986.949     -7.651  -0.320  1.00379E-01  2.35051E-01 -1.34672E-01
    8987.040     -7.560  -0.280  1.05306E-01  2.52491E-01 -1.47185E-01
    8987.120     -7.480  -0.240  1.09882E-01  2.68586E-01 -1.58704E-01
    8987.187     -7.413  -0.200  1.13974E-01  2.82806E-01 -1.68832E-01
    8987.242     -7.358  -0.160  1.17468E-01  2.94764E-01 -1.77297E-01
    8987.284     -7.316  -0.120  1.20277E-01  3.04214E-01 -1.83937E-01
    8987.315     -7.285  -0.080  1.22341E-01  3.11021E-01 -1.88680E-01
    8987.339     -7.261   0.000  1.24052E-01  3.16489E-01 -1.92437E-01
    8987.394     -7.206   0.120  1.27864E-01  3.28818E-01 -2.00954E-01
    8987.437     -7.163   0.160  1.30810E-01  3.38386E-01 -2.07576E-01
    8987.491     -7.108   0.200  1.34650E-01  3.50611E-01 -2.15961E-01
    8987.559     -7.041   0.240  1.39366E-01  3.65281E-01 -2.25915E-01
    8987.638     -6.962   0.280  1.45008E-01  3.82136E-01 -2.37127E-01
    8987.729     -6.871   0.320  1.51534E-01  4.00693E-01 -2.49159E-01
    8987.833     -6.767   0.360  1.58966E-01  4.20431E-01 -2.61465E-01
    8987.949     -6.651   0.400  1.67261E-01  4.40751E-01 -2.73490E-01
    8988.077     -6.523   0.440  1.76454E-01  4.61124E-01 -2.84670E-01
    8988.217     -6.383   0.480  1.86557E-01  4.81123E-01 -2.94566E-01
    8988.369     -6.231   0.520  1.97682E-01  5.00490E-01 -3.02808E-01
    8988.534     -6.066   0.560  2.09967E-01  5.19106E-01 -3.09139E-01
    8988.711     -5.889   0.600  2.23597E-01  5.36918E-01 -3.13321E-01
    8988.900     -5.700   0.640  2.38976E-01  5.54009E-01 -3.15033E-01
    8989.101     -5.499   0.680  2.56796E-01  5.70454E-01 -3.13658E-01
    8989.314     -5.286   0.720  2.78067E-01  5.86344E-01 -3.08277E-01
    8989.540     -5.060   0.760  3.03961E-01  6.01790E-01 -2.97830E-01
    8989.777     -4.822   0.800  3.35214E-01  6.16853E-01 -2.81638E-01
    8990.027     -4.573   0.840  3.71420E-01  6.31619E-01 -2.60199E-01
    8990.290     -4.310   0.880  4.09976E-01  6.46144E-01 -2.36167E-01
    8990.564     -4.036   0.920  4.46313E-01  6.60486E-01 -2.14174E-01
    8990.850     -3.750   0.960  4.76546E-01  6.74657E-01 -1.98110E-01
    8991.149     -3.451   1.000  5.01303E-01  6.88673E-01 -1.87369E-01
    8991.460     -3.140   1.040  5.25289E-01  7.02562E-01 -1.77273E-01
    8991.783     -2.817   1.080  5.52938E-01  7.16306E-01 -1.63368E-01
    8992.118     -2.482   1.120  5.85924E-01  7.29919E-01 -1.43995E-01
    8992.466     -2.134   1.160  6.22784E-01  7.43390E-01 -1.20606E-01
    8992.825     -1.774   1.200  6.59004E-01  7.56683E-01 -9.76793E-02
    8993.197     -1.403   1.240  6.87754E-01  7.69802E-01 -8.20486E-02
    8993.581     -1.019   1.280  7.05063E-01  7.82744E-01 -7.76815E-02
    8993.978     -0.622   1.320  7.15648E-01  7.95445E-01 -7.97972E-02
    8994.386     -0.214   1.360  7.28791E-01  8.07901E-01 -7.91106E-02
    8994.807      0.207   1.400  7.49955E-01  8.20086E-01 -7.01316E-02
    8995.239      0.640   1.440  7.78142E-01  8.31992E-01 -5.38498E-02
    8995.684      1.085   1.480  8.10617E-01  8.43594E-01 -3.29770E-02
    8996.142      1.542   1.520  8.45288E-01  8.54864E-01 -9.57630E-03
    8996.611      2.011   1.560  8.81258E-01  8.65794E-01  1.54641E-02
    8997.093      2.493   1.600  9.14693E-01  8.76339E-01  3.83542E-02
    8997.586      2.986   1.640  9.42198E-01  8.86512E-01  5.56869E-02
    8998.092      3.492   1.680  9.67357E-01  8.96266E-01  7.10909E-02
    8998.611      4.011   1.720  9.93334E-01  9.05640E-01  8.76937E-02
    8999.141      4.541   1.760  1.02158E+00  9.14569E-01  1.07012E-01
    8999.683      5.083   1.800  1.05192E+00  9.23069E-01  1.28852E-01
    9000.238      5.638   1.840  1.08599E+00  9.31138E-01  1.54856E-01
    9000.805      6.205   1.880  1.12662E+00  9.38778E-01  1.87843E-01
    9001.384      6.784   1.920  1.17018E+00  9.45968E-01  2.24207E-01
    9001.975      7.376   1.960  1.20866E+00  9.52728E-01  2.55933E-01
    9002.579      7.979   2.000  1.23147E+00  9.59062E-01  2.72410E-01
    9003.195      8.595   2.040  1.23180E+00  9.64930E-01  2.66869E-01
    9003.823      9.223   2.080  1.21823E+00  9.70399E-01  2.47831E-01
    9004.463      9.863   2.120  1.20750E+00  9.75451E-01  2.32045E-01
    9005.115     10.515   2.160  1.20659E+00  9.80092E-01  2.26498E-01
    9005.779     11.179   2.200  1.21269E+00  9.84327E-01  2.28366E-01
    9006.456     11.856   2.240  1.22022E+00  9.88183E-01  2.32039E-01
    9007.145     12.545   2.280  1.22548E+00  9.91668E-01  2.33809E-01
    9007.846     13.246   2.320  1.22720E+00  9.94787E-01  2.32409E-01
    9008.559     13.959   2.360  1.22382E+00  9.97569E-01  2.26248E-01
    9009.285     14.685   2.400  1.21274E+00  1.00002E+00  2.12714E-01
    9010.022     15.422   2.440  1.19374E+00  1.00215E+00  1.91591E-01
    9010.772     16.172   2.480  1.16903E+00  1.00399E+00  1.65037E-01
    9011.534     16.934   2.520  1.14009E+00  1.00554E+00  1.34543E-01
    9012.308     17.708   2.560  1.10776E+00  1.00684E+00  1.00916E-01
    9013.095     18.495   2.600  1.07321E+00  1.00789E+00  6.53129E-02
    9013.893     19.293   2.640  1.04002E+00  1.00870E+00  3.13125E-02
    9014.704     20.104   2.680  1.01011E+00  1.00930E+00  8.09355E-04
    9015.527     20.927   2.720  9.80739E-01  1.00970E+00 -2.89618E-02
    9016.362     21.762   2.760  9.48319E-01  1.00992E+00 -6.16043E-02
    9017.209     22.609   2.800  9.16364E-01  1.00996E+00 -9.35940E-02
    9018.069     23.469   2.840  8.91347E-01  1.00985E+00 -1.18507E-01
    9018.941     24.341   2.880  8.73919E-01  1.00962E+00 -1.35700E-01
    9019.825     25.225   2.920  8.63602E-01  1.00924E+00 -1.45638E-01
    9020.721     26.121   2.960  8.60003E-01  1.00876E+00 -1.48759E-01
    9021.629     27.029   3.000  8.61988E-01  1.00817E+00 -1.46186E-01
    9022.549     27.949   3.040  8.67346E-01  1.00752E+00 -1.40176E-01
    9023.482     28.882   3.080  8.73588E-01  1.00679E+00 -1.33203E-01
    9024.427     29.827   3.120  8.79173E-01  1.00599E+00 -1.26813E-01
    9025.384     30.784   3.160  8.83671E-01  1.00513E+00 -1.21462E-01
    9026.353     31.753   3.200  8.87467E-01  1.00424E+00 -1.16770E-01
    9027.335     32.735   3.240  8.91405E-01  1.00330E+00 -1.11899E-01
    9028.328     33.728   3.280  8.96433E-01  1.00234E+00 -1.05903E-01
    9029.334     34.734   3.320  9.02818E-01  1.00138E+00 -9.85648E-02
    9030.352     35.752   3.360  9.10594E-01  1.00041E+00 -8.98114E-02
    9031.382     36.783   3.400  9.19651E-01  9.99447E-01 -7.97959E-02
    9032.425     37.825   3.440  9.29528E-01  9.98469E-01 -6.89415E-02
    9033.479     38.880   3.480  9.39721E-01  9.97519E-01 -5.77983E-02
    9034.546     39.946   3.520  9.49639E-01  9.96599E-01 -4.69603E-02
    9035.625     41.025   3.560  9.58617E-01  9.95689E-01 -3.70721E-02
    9036.716     42.117   3.600  9.66048E-01  9.94812E-01 -2.87636E-02
    9037.820     43.220   3.640  9.71686E-01  9.93950E-01 -2.22636E-02
    9038.935     44.335   3.680  9.75645E-01  9.93146E-01 -1.75015E-02
    9040.063     45.463   3.720  9.78309E-01  9.92384E-01 -1.40753E-02
    9041.203     46.603   3.760  9.80330E-01  9.91663E-01 -1.13336E-02
    9042.355     47.755   3.800  9.82442E-01  9.90985E-01 -8.54276E-03
    9043.520     48.920   3.840  9.85315E-01  9.90348E-01 -5.03363E-03
    9044.696     50.096   3.880  9.89496E-01  9.89776E-01 -2.80408E-04
    9045.885     51.285   3.920  9.95273E-01  9.89229E-01  6.04399E-03
    9047.086     52.486   3.960  1.00277E+00  9.88769E-01  1.40060E-02
    9048.299     53.699   4.000  1.01171E+00  9.88334E-01  2.33792E-02
    9049.524     54.924   4.040  1.02165E+00  9.87967E-01  3.36878E-02
    9050.762     56.162   4.080  1.03190E+00  9.87645E-01  4.42558E-02
    9052.011     57.411   4.120  1.04177E+00  9.87391E-01  5.43803E-02
    9053.273     58.673   4.160  1.05072E+00  9.87183E-01  6.35354E-02
    9054.547     59.947   4.200  1.05845E+00  9.87021E-01  7.14253E-02
    9055.833     61.234   4.240  1.06480E+00  9.86925E-01  7.78702E-02
    9057.132     62.532   4.280  1.06953E+00  9.86874E-01  8.26532E-02
    9058.443     63.843   4.320  1.07243E+00  9.86863E-01  8.55676E-02
    9059.765     65.165   4.360  1.07327E+00  9.86895E-01  8.63777E-02
    9061.100     66.500   4.400  1.07197E+00  9.86968E-01  8.50043E-02
    9062.448     67.848   4.440  1.06877E+00  9.87082E-01  8.16889E-02
    9063.807     69.207   4.480  1.06412E+00  9.87258E-01  7.68637E-02
    9065.179     70.579   4.520  1.05839E+00  9.87451E-01  7.09367E-02
    9066.562     71.962   4.560  1.05185E+00  9.87683E-01  6.41630E-02
    9067.958     73.358   4.600  1.04459E+00  9.87972E-01  5.66135E-02
    9069.366     74.767   4.640  1.03645E+00  9.88253E-01  4.81958E-02
    9070.787     76.187   4.680  1.02741E+00  9.88589E-01  3.88258E-02
    9072.219     77.619   4.720  1.01748E+00  9.88937E-01  2.85441E-02
    9073.664     79.064   4.760  1.00686E+00  9.89314E-01  1.75446E-02
    9075.121     80.521   4.800  9.95869E-01  9.89699E-01  6.17099E-03
    9076.590     81.990   4.840  9.84906E-01  9.90088E-01 -5.18261E-03
    9078.072     83.472   4.880  9.74389E-01  9.90505E-01 -1.61152E-02
    9079.565     84.965   4.920  9.64714E-01  9.90925E-01 -2.62111E-02
    9081.071     86.471   4.960  9.56252E-01  9.91346E-01 -3.50940E-02
    9082.589     87.989   5.000  9.49324E-01  9.91768E-01 -4.24434E-02
    9084.119     89.519   5.040  9.44098E-01  9.92189E-01 -4.80902E-02
    9085.661     91.061   5.080  9.40561E-01  9.92607E-01 -5.20460E-02
    9087.215     92.616   5.120  9.38546E-01  9.93022E-01 -5.44766E-02
    9088.782     94.182   5.160  9.37773E-01  9.93433E-01 -5.56599E-02
    9090.361     95.761   5.200  9.38008E-01  9.93814E-01 -5.58062E-02
    9091.952     97.352   5.240  9.39246E-01  9.94185E-01 -5.49396E-02
    9093.555     98.955   5.280  9.41688E-01  9.94526E-01 -5.28380E-02
    9095.171    100.571   5.320  9.45648E-01  9.94856E-01 -4.92083E-02
    9096.798    102.198   5.360  9.51170E-01  9.95154E-01 -4.39847E-02
    9098.438    103.838   5.400  9.57914E-01  9.95441E-01 -3.75271E-02
    9100.090    105.490   5.440  9.65148E-01  9.95692E-01 -3.05436E-02
    9101.754    107.154   5.480  9.72051E-01  9.95905E-01 -2.38539E-02
    9103.431    108.831   5.520  9.77941E-01  9.96082E-01 -1.81411E-02
    9105.119    110.519   5.560  9.82441E-01  9.96245E-01 -1.38046E-02
    9106.820    112.220   5.600  9.85446E-01  9.96369E-01 -1.09238E-02
    9108.533    113.933   5.640  9.87128E-01  9.96431E-01 -9.30281E-03
    9110.258    115.658   5.680  9.87949E-01  9.96475E-01 -8.52633E-03
    9111.996    117.396   5.720  9.88426E-01  9.96483E-01 -8.05696E-03
    9113.745    119.145   5.760  9.89066E-01  9.96452E-01 -7.38574E-03
    9115.507    120.907   5.800  9.90149E-01  9.96381E-01 -6.23213E-03
    9117.281    122.681   5.840  9.91622E-01  9.96272E-01 -4.65033E-03
    9119.067    124.467   5.880  9.93145E-01  9.96124E-01 -2.97977E-03
    9120.865    126.265   5.920  9.94289E-01  9.95940E-01 -1.65074E-03
    9122.676    128.076   5.960  9.94768E-01  9.95742E-01 -9.73921E-04
    9124.498    129.899   6.000  9.94497E-01  9.95454E-01 -9.56826E-04
