# # comment:                                                     FEFF 9.9.1  
# # Source:
# # Structure
# # Reduced
# # space
# # abc:
# # angles:
# # sites:
# # POT  SCF 100  7.0000   0, screened core-hole, AFOLP (folp(0)= 1.150)
# # Abs   Z=29 Rmt= 1.247 Rnm= 1.305 K  shell
# # Pot 1 Z=20 Rmt= 1.469 Rnm= 1.542
# # Pot 2 Z=12 Rmt= 1.361 Rnm= 1.426
# # Pot 3 Z=29 Rmt= 1.248 Rnm= 1.305
# # Pot 4 Z= 8 Rmt= 1.049 Rnm= 1.096
# # Gam_ch=1.729E+00 H-L exch Vi= 0.000E+00 Vr= 0.000E+00
# # Mu=-9.721E+00eV kf=2.090E+00 Vint=-2.132E+01eV Rs_int= 1.736
# FMS rfms= 9.0000
# # PATH  Rmax=-1.000,  Keep_limit= 0.00, Heap_limit 0.00  Pwcrit= 2.50%
#  S02=0.950  Temp=   0.00  Debye_temp=   0.00  Global_sig2= 0.00000
#  Energy zero shift, vr, vi    0.00000E+00   0.00000E+00
#  Curved wave amplitude ratio filter   4.000%
#     file         sig2 tot  cw amp ratio   deg  nlegs   reff  inp sig2
#     0/   0 paths used
#  xsedge+ 50, used to normalize mu           2.4841E-04
#  -----------------------------------------------------------------------
#  omega    e    k    mu    mu0     chi     @#
    8985.845    -13.531  -1.000  4.56357E-02  5.51098E-02 -9.47408E-03
    8986.143    -13.233  -0.960  4.82360E-02  5.91886E-02 -1.09525E-02
    8986.430    -12.946  -0.920  5.10395E-02  6.37300E-02 -1.26905E-02
    8986.704    -12.672  -0.880  5.40661E-02  6.88031E-02 -1.47371E-02
    8986.966    -12.410  -0.840  5.73379E-02  7.44887E-02 -1.71508E-02
    8987.216    -12.160  -0.800  6.08789E-02  8.08801E-02 -2.00012E-02
    8987.454    -11.922  -0.760  6.47151E-02  8.80850E-02 -2.33699E-02
    8987.680    -11.697  -0.720  6.88734E-02  9.62251E-02 -2.73516E-02
    8987.893    -11.483  -0.680  7.33816E-02  1.05435E-01 -3.20530E-02
    8988.094    -11.282  -0.640  7.82657E-02  1.15855E-01 -3.75898E-02
    8988.283    -11.093  -0.600  8.35482E-02  1.27628E-01 -4.40793E-02
    8988.460    -10.916  -0.560  8.92436E-02  1.40870E-01 -5.16268E-02
    8988.625    -10.752  -0.520  9.53527E-02  1.55656E-01 -6.03035E-02
    8988.777    -10.599  -0.480  1.01855E-01  1.71971E-01 -7.01154E-02
    8988.917    -10.459  -0.440  1.08702E-01  1.89670E-01 -8.09680E-02
    8989.045    -10.331  -0.400  1.15807E-01  2.08443E-01 -9.26363E-02
    8989.161    -10.215  -0.360  1.23043E-01  2.27800E-01 -1.04757E-01
    8989.265    -10.112  -0.320  1.30245E-01  2.47104E-01 -1.16859E-01
    8989.356    -10.020  -0.280  1.37221E-01  2.65648E-01 -1.28427E-01
    8989.435     -9.941  -0.240  1.43767E-01  2.82756E-01 -1.38989E-01
    8989.502     -9.874  -0.200  1.49686E-01  2.97864E-01 -1.48178E-01
    8989.557     -9.819  -0.160  1.54797E-01  3.10562E-01 -1.55765E-01
    8989.600     -9.776  -0.120  1.58949E-01  3.20590E-01 -1.61641E-01
    8989.630     -9.746  -0.080  1.62022E-01  3.27808E-01 -1.65786E-01
    8989.655     -9.721   0.000  1.64590E-01  3.33603E-01 -1.69013E-01
    8989.710     -9.667   0.120  1.70370E-01  3.46672E-01 -1.76302E-01
    8989.752     -9.624   0.160  1.74946E-01  3.56807E-01 -1.81861E-01
    8989.807     -9.569   0.200  1.80951E-01  3.69721E-01 -1.88770E-01
    8989.874     -9.502   0.240  1.88567E-01  3.85219E-01 -1.96652E-01
    8989.953     -9.423   0.280  1.97907E-01  4.02964E-01 -2.05057E-01
    8990.045     -9.331   0.320  2.09177E-01  4.22471E-01 -2.13293E-01
    8990.149     -9.228   0.360  2.22559E-01  4.43136E-01 -2.20578E-01
    8990.264     -9.112   0.400  2.38231E-01  4.64285E-01 -2.26053E-01
    8990.392     -8.984   0.440  2.56391E-01  4.85378E-01 -2.28987E-01
    8990.533     -8.844   0.480  2.77114E-01  5.05928E-01 -2.28814E-01
    8990.685     -8.691   0.520  3.00469E-01  5.25673E-01 -2.25203E-01
    8990.850     -8.527   0.560  3.26520E-01  5.44441E-01 -2.17922E-01
    8991.026     -8.350   0.600  3.55432E-01  5.62245E-01 -2.06812E-01
    8991.215     -8.161   0.640  3.86836E-01  5.79129E-01 -1.92293E-01
    8991.416     -7.960   0.680  4.18784E-01  5.95185E-01 -1.76401E-01
    8991.630     -7.746   0.720  4.47530E-01  6.10559E-01 -1.63028E-01
    8991.855     -7.521   0.760  4.69505E-01  6.25313E-01 -1.55808E-01
    8992.093     -7.283   0.800  4.84646E-01  6.39603E-01 -1.54957E-01
    8992.343     -7.033   0.840  4.96904E-01  6.53490E-01 -1.56586E-01
    8992.605     -6.771   0.880  5.10517E-01  6.67040E-01 -1.56524E-01
    8992.880     -6.497   0.920  5.25170E-01  6.80328E-01 -1.55158E-01
    8993.166     -6.210   0.960  5.36469E-01  6.93412E-01 -1.56943E-01
    8993.465     -5.911   1.000  5.41993E-01  7.06300E-01 -1.64307E-01
    8993.776     -5.601   1.040  5.45505E-01  7.19008E-01 -1.73503E-01
    8994.099     -5.278   1.080  5.55508E-01  7.31587E-01 -1.76079E-01
    8994.434     -4.942   1.120  5.80029E-01  7.43999E-01 -1.63969E-01
    8994.781     -4.595   1.160  6.19768E-01  7.56300E-01 -1.36532E-01
    8995.141     -4.235   1.200  6.65007E-01  7.68442E-01 -1.03435E-01
    8995.513     -3.863   1.240  7.06574E-01  7.80412E-01 -7.38378E-02
    8995.897     -3.479   1.280  7.44143E-01  7.92234E-01 -4.80902E-02
    8996.293     -3.083   1.320  7.74146E-01  8.03890E-01 -2.97441E-02
    8996.702     -2.675   1.360  7.96712E-01  8.15340E-01 -1.86279E-02
    8997.122     -2.254   1.400  8.28864E-01  8.26580E-01  2.28346E-03
    8997.555     -1.821   1.440  8.92819E-01  8.37589E-01  5.52298E-02
    8998.000     -1.376   1.480  1.00801E+00  8.48362E-01  1.59643E-01
    8998.457     -0.919   1.520  1.18684E+00  8.58874E-01  3.27968E-01
    8998.927     -0.449   1.560  1.41769E+00  8.69120E-01  5.48574E-01
    8999.408      0.032   1.600  1.64462E+00  8.79054E-01  7.65568E-01
    8999.902      0.526   1.640  1.78798E+00  8.88691E-01  8.99288E-01
    9000.408      1.032   1.680  1.80445E+00  8.97986E-01  9.06462E-01
    9000.926      1.550   1.720  1.73296E+00  9.06954E-01  8.26006E-01
    9001.457      2.080   1.760  1.62829E+00  9.15571E-01  7.12721E-01
    9001.999      2.623   1.800  1.50790E+00  9.23833E-01  5.84070E-01
    9002.554      3.178   1.840  1.38822E+00  9.31718E-01  4.56504E-01
    9003.121      3.745   1.880  1.27274E+00  9.39243E-01  3.33502E-01
    9003.700      4.324   1.920  1.15662E+00  9.46364E-01  2.10255E-01
    9004.291      4.915   1.960  1.06033E+00  9.53103E-01  1.07227E-01
    9004.895      5.518   2.000  1.00459E+00  9.59460E-01  4.51286E-02
    9005.510      6.134   2.040  9.81857E-01  9.65434E-01  1.64226E-02
    9006.138      6.762   2.080  9.73838E-01  9.71027E-01  2.81049E-03
    9006.778      7.402   2.120  9.75958E-01  9.76220E-01 -2.62435E-04
    9007.431      8.054   2.160  9.91109E-01  9.81057E-01  1.00523E-02
    9008.095      8.719   2.200  1.01302E+00  9.85499E-01  2.75207E-02
    9008.772      9.395   2.240  1.03052E+00  9.89570E-01  4.09508E-02
    9009.461     10.084   2.280  1.03382E+00  9.93296E-01  4.05256E-02
    9010.162     10.785   2.320  1.01636E+00  9.96660E-01  1.96994E-02
    9010.875     11.499   2.360  9.77016E-01  9.99689E-01 -2.26736E-02
    9011.600     12.224   2.400  9.23738E-01  1.00239E+00 -7.86505E-02
    9012.338     12.962   2.440  8.72583E-01  1.00476E+00 -1.32181E-01
    9013.088     13.711   2.480  8.36167E-01  1.00682E+00 -1.70653E-01
    9013.850     14.473   2.520  8.22268E-01  1.00861E+00 -1.86339E-01
    9014.624     15.248   2.560  8.16177E-01  1.01009E+00 -1.93911E-01
    9015.410     16.034   2.600  8.10467E-01  1.01134E+00 -2.00869E-01
    9016.209     16.833   2.640  8.03563E-01  1.01231E+00 -2.08750E-01
    9017.020     17.643   2.680  7.96987E-01  1.01305E+00 -2.16060E-01
    9017.843     18.466   2.720  7.93162E-01  1.01357E+00 -2.20405E-01
    9018.678     19.301   2.760  7.93478E-01  1.01388E+00 -2.20400E-01
    9019.525     20.149   2.800  7.98323E-01  1.01399E+00 -2.15666E-01
    9020.385     21.008   2.840  8.08057E-01  1.01391E+00 -2.05851E-01
    9021.256     21.880   2.880  8.22449E-01  1.01368E+00 -1.91231E-01
    9022.140     22.764   2.920  8.41040E-01  1.01329E+00 -1.72254E-01
    9023.036     23.660   2.960  8.63475E-01  1.01275E+00 -1.49279E-01
    9023.945     24.568   3.000  8.88807E-01  1.01211E+00 -1.23304E-01
    9024.865     25.489   3.040  9.15025E-01  1.01133E+00 -9.63037E-02
    9025.798     26.422   3.080  9.40549E-01  1.01045E+00 -6.99048E-02
    9026.743     27.366   3.120  9.64445E-01  1.00951E+00 -4.50694E-02
    9027.700     28.323   3.160  9.86360E-01  1.00847E+00 -2.21139E-02
    9028.669     29.293   3.200  1.00717E+00  1.00738E+00 -2.08577E-04
    9029.650     30.274   3.240  1.02798E+00  1.00621E+00  2.17664E-02
    9030.644     31.268   3.280  1.04966E+00  1.00500E+00  4.46543E-02
    9031.650     32.274   3.320  1.07271E+00  1.00378E+00  6.89306E-02
    9032.668     33.292   3.360  1.09708E+00  1.00252E+00  9.45655E-02
    9033.698     34.322   3.400  1.12178E+00  1.00125E+00  1.20533E-01
    9034.741     35.364   3.440  1.14421E+00  9.99953E-01  1.44252E-01
    9035.795     36.419   3.480  1.16015E+00  9.98675E-01  1.61474E-01
    9036.862     37.486   3.520  1.16579E+00  9.97378E-01  1.68408E-01
    9037.941     38.565   3.560  1.15935E+00  9.96108E-01  1.63244E-01
    9039.032     39.656   3.600  1.14193E+00  9.94869E-01  1.47064E-01
    9040.136     40.759   3.640  1.11636E+00  9.93643E-01  1.22716E-01
    9041.251     41.875   3.680  1.08574E+00  9.92472E-01  9.32698E-02
    9042.379     43.003   3.720  1.05261E+00  9.91317E-01  6.12896E-02
    9043.519     44.143   3.760  1.01921E+00  9.90201E-01  2.90130E-02
    9044.671     45.295   3.800  9.88291E-01  9.89127E-01 -8.35303E-04
    9045.835     46.459   3.840  9.63248E-01  9.88118E-01 -2.48699E-02
    9047.012     47.636   3.880  9.47022E-01  9.87153E-01 -4.01308E-02
    9048.200     48.824   3.920  9.40631E-01  9.86235E-01 -4.56033E-02
    9049.401     50.025   3.960  9.42671E-01  9.85384E-01 -4.27128E-02
    9050.614     51.238   4.000  9.49862E-01  9.84583E-01 -3.47213E-02
    9051.840     52.464   4.040  9.58377E-01  9.83852E-01 -2.54752E-02
    9053.077     53.701   4.080  9.65902E-01  9.83171E-01 -1.72683E-02
    9054.327     54.951   4.120  9.72135E-01  9.82561E-01 -1.04262E-02
    9055.589     56.213   4.160  9.77645E-01  9.82024E-01 -4.37877E-03
    9056.863     57.487   4.200  9.82280E-01  9.81540E-01  7.40341E-04
    9058.149     58.773   4.240  9.84904E-01  9.81127E-01  3.77675E-03
    9059.448     60.071   4.280  9.84440E-01  9.80786E-01  3.65405E-03
    9060.758     61.382   4.320  9.81168E-01  9.80495E-01  6.73589E-04
    9062.081     62.705   4.360  9.76756E-01  9.80254E-01 -3.49766E-03
    9063.416     64.040   4.400  9.73411E-01  9.80104E-01 -6.69307E-03
    9064.763     65.387   4.440  9.72728E-01  9.79984E-01 -7.25560E-03
    9066.123     66.746   4.480  9.75364E-01  9.79952E-01 -4.58855E-03
    9067.494     68.118   4.520  9.80596E-01  9.79948E-01  6.48477E-04
    9068.878     69.502   4.560  9.86773E-01  9.80010E-01  6.76345E-03
    9070.274     70.898   4.600  9.91885E-01  9.80118E-01  1.17670E-02
    9071.682     72.306   4.640  9.94622E-01  9.80293E-01  1.43286E-02
    9073.103     73.726   4.680  9.94997E-01  9.80513E-01  1.44846E-02
    9074.535     75.159   4.720  9.94493E-01  9.80772E-01  1.37217E-02
    9075.980     76.604   4.760  9.95376E-01  9.81069E-01  1.43066E-02
    9077.437     78.061   4.800  9.99530E-01  9.81384E-01  1.81460E-02
    9078.906     79.530   4.840  1.00764E+00  9.81758E-01  2.58820E-02
    9080.387     81.011   4.880  1.01849E+00  9.82169E-01  3.63214E-02
    9081.881     82.505   4.920  1.02886E+00  9.82592E-01  4.62709E-02
    9083.386     84.010   4.960  1.03413E+00  9.83046E-01  5.10805E-02
    9084.904     85.528   5.000  1.02961E+00  9.83510E-01  4.60966E-02
    9086.434     87.058   5.040  1.01308E+00  9.84002E-01  2.90763E-02
    9087.977     88.600   5.080  9.86446E-01  9.84499E-01  1.94657E-03
    9089.531     90.155   5.120  9.54892E-01  9.85001E-01 -3.01088E-02
    9091.098     91.722   5.160  9.24034E-01  9.85526E-01 -6.14923E-02
    9092.677     93.300   5.200  8.97752E-01  9.86030E-01 -8.82787E-02
    9094.268     94.892   5.240  8.78029E-01  9.86555E-01 -1.08525E-01
    9095.871     96.495   5.280  8.65639E-01  9.87055E-01 -1.21416E-01
    9097.486     98.110   5.320  8.61156E-01  9.87551E-01 -1.26395E-01
    9099.114     99.738   5.360  8.65260E-01  9.88041E-01 -1.22781E-01
    9100.754    101.378   5.400  8.78388E-01  9.88525E-01 -1.10137E-01
    9102.406    103.030   5.440  9.00435E-01  9.88978E-01 -8.85426E-02
    9104.070    104.694   5.480  9.30457E-01  9.89395E-01 -5.89380E-02
    9105.746    106.370   5.520  9.66207E-01  9.89801E-01 -2.35941E-02
    9107.435    108.059   5.560  1.00381E+00  9.90173E-01  1.36368E-02
    9109.136    109.760   5.600  1.03858E+00  9.90509E-01  4.80711E-02
    9110.849    111.473   5.640  1.06690E+00  9.90830E-01  7.60668E-02
    9112.574    113.198   5.680  1.08732E+00  9.91113E-01  9.62099E-02
    9114.311    114.935   5.720  1.09921E+00  9.91335E-01  1.07873E-01
    9116.061    116.685   5.760  1.10109E+00  9.91538E-01  1.09547E-01
    9117.823    118.446   5.800  1.09194E+00  9.91700E-01  1.00235E-01
    9119.597    120.220   5.840  1.07392E+00  9.91799E-01  8.21263E-02
    9121.383    122.006   5.880  1.05248E+00  9.91878E-01  6.06017E-02
    9123.181    123.805   5.920  1.03327E+00  9.91890E-01  4.13836E-02
    9124.991    125.615   5.960  1.01962E+00  9.91854E-01  2.77704E-02
    9126.814    127.438   6.000  1.01136E+00  9.91748E-01  1.96136E-02
