# # comment:                                                     FEFF 9.9.1  
# # Source:
# # Structure
# # Reduced
# # space
# # abc:
# # angles:
# # sites:
# # POT  SCF 100  7.0000   0, screened core-hole, AFOLP (folp(0)= 1.150)
# # Abs   Z=29 Rmt= 1.342 Rnm= 1.401 K  shell
# # Pot 1 Z= 3 Rmt= 1.242 Rnm= 1.303
# # Pot 2 Z=29 Rmt= 1.348 Rnm= 1.409
# # Pot 3 Z=15 Rmt= 0.944 Rnm= 1.155
# # Pot 4 Z= 8 Rmt= 0.941 Rnm= 1.043
# # Gam_ch=1.729E+00 H-L exch Vi= 0.000E+00 Vr= 0.000E+00
# # Mu=-6.656E+00eV kf=2.362E+00 Vint=-1.761E+01eV Rs_int= 1.535
# FMS rfms= 9.0000
# # PATH  Rmax=-1.000,  Keep_limit= 0.00, Heap_limit 0.00  Pwcrit= 2.50%
#  S02=0.950  Temp=   0.00  Debye_temp=   0.00  Global_sig2= 0.00000
#  Energy zero shift, vr, vi    0.00000E+00   0.00000E+00
#  Curved wave amplitude ratio filter   4.000%
#     file         sig2 tot  cw amp ratio   deg  nlegs   reff  inp sig2
#     0/   0 paths used
#  xsedge+ 50, used to normalize mu           2.4675E-04
#  -----------------------------------------------------------------------
#  omega    e    k    mu    mu0     chi     @#
    8983.793    -10.466  -1.000  5.00060E-02  5.48118E-02 -4.80582E-03
    8984.092    -10.167  -0.960  5.32464E-02  5.88253E-02 -5.57885E-03
    8984.378     -9.881  -0.920  5.68023E-02  6.32895E-02 -6.48719E-03
    8984.653     -9.606  -0.880  6.07152E-02  6.82713E-02 -7.55615E-03
    8984.915     -9.344  -0.840  6.50329E-02  7.38488E-02 -8.81592E-03
    8985.165     -9.094  -0.800  6.98100E-02  8.01124E-02 -1.03023E-02
    8985.402     -8.856  -0.760  7.51085E-02  8.71659E-02 -1.20574E-02
    8985.628     -8.631  -0.720  8.09969E-02  9.51270E-02 -1.41301E-02
    8985.841     -8.417  -0.680  8.75499E-02  1.04125E-01 -1.65752E-02
    8986.042     -8.216  -0.640  9.48447E-02  1.14297E-01 -1.94527E-02
    8986.231     -8.027  -0.600  1.02955E-01  1.25778E-01 -2.28230E-02
    8986.408     -7.851  -0.560  1.11942E-01  1.38683E-01 -2.67407E-02
    8986.573     -7.686  -0.520  1.21838E-01  1.53080E-01 -3.12425E-02
    8986.725     -7.534  -0.480  1.32625E-01  1.68956E-01 -3.63315E-02
    8986.865     -7.393  -0.440  1.44212E-01  1.86171E-01 -4.19583E-02
    8986.993     -7.265  -0.400  1.56416E-01  2.04422E-01 -4.80060E-02
    8987.109     -7.150  -0.360  1.68951E-01  2.23237E-01 -5.42851E-02
    8987.213     -7.046  -0.320  1.81448E-01  2.41998E-01 -6.05499E-02
    8987.304     -6.954  -0.280  1.93489E-01  2.60022E-01 -6.65325E-02
    8987.384     -6.875  -0.240  2.04666E-01  2.76653E-01 -7.19869E-02
    8987.451     -6.808  -0.200  2.14618E-01  2.91342E-01 -7.67244E-02
    8987.505     -6.753  -0.160  2.23063E-01  3.03692E-01 -8.06291E-02
    8987.548     -6.711  -0.120  2.29794E-01  3.13448E-01 -8.36537E-02
    8987.579     -6.680  -0.080  2.34673E-01  3.20472E-01 -8.57988E-02
    8987.603     -6.656   0.000  2.38594E-01  3.26113E-01 -8.75182E-02
    8987.658     -6.601   0.120  2.47624E-01  3.38824E-01 -9.11999E-02
    8987.701     -6.558   0.160  2.54761E-01  3.48705E-01 -9.39436E-02
    8987.755     -6.503   0.200  2.64029E-01  3.61300E-01 -9.72710E-02
    8987.822     -6.436   0.240  2.75444E-01  3.76426E-01 -1.00983E-01
    8987.902     -6.357   0.280  2.88978E-01  3.93764E-01 -1.04785E-01
    8987.993     -6.266   0.320  3.04562E-01  4.12829E-01 -1.08267E-01
    8988.097     -6.162   0.360  3.22139E-01  4.33091E-01 -1.10952E-01
    8988.213     -6.046   0.400  3.41597E-01  4.53900E-01 -1.12303E-01
    8988.341     -5.918   0.440  3.62879E-01  4.74684E-01 -1.11805E-01
    8988.481     -5.778   0.480  3.85946E-01  4.95059E-01 -1.09113E-01
    8988.633     -5.626   0.520  4.10471E-01  5.14711E-01 -1.04240E-01
    8988.798     -5.461   0.560  4.35582E-01  5.33518E-01 -9.79356E-02
    8988.975     -5.284   0.600  4.59452E-01  5.51470E-01 -9.20184E-02
    8989.164     -5.095   0.640  4.79329E-01  5.68612E-01 -8.92834E-02
    8989.365     -4.894   0.680  4.92458E-01  5.85028E-01 -9.25701E-02
    8989.578     -4.681   0.720  4.97661E-01  6.00856E-01 -1.03195E-01
    8989.804     -4.455   0.760  4.96374E-01  6.16175E-01 -1.19802E-01
    8990.041     -4.217   0.800  4.92863E-01  6.31094E-01 -1.38232E-01
    8990.291     -3.967   0.840  4.93117E-01  6.45709E-01 -1.52593E-01
    8990.553     -3.705   0.880  5.02824E-01  6.60040E-01 -1.57216E-01
    8990.828     -3.431   0.920  5.25496E-01  6.74195E-01 -1.48699E-01
    8991.114     -3.144   0.960  5.60961E-01  6.88188E-01 -1.27227E-01
    8991.413     -2.846   1.000  6.04337E-01  7.02042E-01 -9.77046E-02
    8991.724     -2.535   1.040  6.46247E-01  7.15769E-01 -6.95218E-02
    8992.047     -2.212   1.080  6.77432E-01  7.29396E-01 -5.19639E-02
    8992.382     -1.877   1.120  6.94764E-01  7.42921E-01 -4.81567E-02
    8992.730     -1.529   1.160  7.03924E-01  7.56335E-01 -5.24108E-02
    8993.089     -1.169   1.200  7.16834E-01  7.69606E-01 -5.27714E-02
    8993.461     -0.798   1.240  7.43147E-01  7.82756E-01 -3.96088E-02
    8993.845     -0.413   1.280  7.83975E-01  7.95747E-01 -1.17718E-02
    8994.242     -0.017   1.320  8.33230E-01  8.08554E-01  2.46758E-02
    8994.650      0.391   1.360  8.84531E-01  8.21155E-01  6.33759E-02
    8995.071      0.812   1.400  9.36613E-01  8.33544E-01  1.03069E-01
    8995.503      1.245   1.440  9.87974E-01  8.45693E-01  1.42280E-01
    8995.948      1.690   1.480  1.03648E+00  8.57554E-01  1.78926E-01
    8996.406      2.147   1.520  1.08667E+00  8.69137E-01  2.17537E-01
    8996.875      2.616   1.560  1.14168E+00  8.80396E-01  2.61283E-01
    8997.357      3.098   1.600  1.19629E+00  8.91321E-01  3.04968E-01
    8997.850      3.592   1.640  1.24682E+00  9.01884E-01  3.44933E-01
    8998.356      4.098   1.680  1.29417E+00  9.12058E-01  3.82114E-01
    8998.874      4.616   1.720  1.32960E+00  9.21855E-01  4.07740E-01
    8999.405      5.146   1.760  1.33120E+00  9.31207E-01  3.99990E-01
    8999.947      5.689   1.800  1.28748E+00  9.40149E-01  3.47326E-01
    9000.502      6.243   1.840  1.21425E+00  9.48659E-01  2.65594E-01
    9001.069      6.810   1.880  1.14408E+00  9.56709E-01  1.87376E-01
    9001.648      7.389   1.920  1.09546E+00  9.64298E-01  1.31165E-01
    9002.239      7.981   1.960  1.07076E+00  9.71425E-01  9.93376E-02
    9002.843      8.584   2.000  1.06327E+00  9.78090E-01  8.51812E-02
    9003.459      9.200   2.040  1.06639E+00  9.84293E-01  8.20984E-02
    9004.087      9.828   2.080  1.07447E+00  9.90035E-01  8.44304E-02
    9004.727     10.468   2.120  1.08129E+00  9.95318E-01  8.59740E-02
    9005.379     11.120   2.160  1.08182E+00  1.00015E+00  8.16734E-02
    9006.043     11.785   2.200  1.07280E+00  1.00452E+00  6.82751E-02
    9006.720     12.461   2.240  1.05642E+00  1.00848E+00  4.79477E-02
    9007.409     13.150   2.280  1.03843E+00  1.01199E+00  2.64461E-02
    9008.110     13.851   2.320  1.02151E+00  1.01511E+00  6.40512E-03
    9008.823     14.564   2.360  1.00454E+00  1.01782E+00 -1.32852E-02
    9009.549     15.290   2.400  9.87440E-01  1.02014E+00 -3.27000E-02
    9010.286     16.027   2.440  9.71805E-01  1.02211E+00 -5.03031E-02
    9011.036     16.777   2.480  9.59566E-01  1.02371E+00 -6.41480E-02
    9011.798     17.539   2.520  9.52319E-01  1.02499E+00 -7.26710E-02
    9012.572     18.313   2.560  9.49276E-01  1.02597E+00 -7.66900E-02
    9013.358     19.100   2.600  9.47886E-01  1.02663E+00 -7.87422E-02
    9014.157     19.898   2.640  9.46778E-01  1.02703E+00 -8.02499E-02
    9014.968     20.709   2.680  9.46098E-01  1.02715E+00 -8.10564E-02
    9015.791     21.532   2.720  9.43743E-01  1.02706E+00 -8.33164E-02
    9016.626     22.367   2.760  9.35740E-01  1.02673E+00 -9.09894E-02
    9017.473     23.215   2.800  9.25981E-01  1.02622E+00 -1.00237E-01
    9018.333     24.074   2.840  9.19740E-01  1.02551E+00 -1.05770E-01
    9019.205     24.946   2.880  9.18462E-01  1.02464E+00 -1.06177E-01
    9020.088     25.830   2.920  9.21070E-01  1.02363E+00 -1.02561E-01
    9020.985     26.726   2.960  9.25541E-01  1.02248E+00 -9.69346E-02
    9021.893     27.634   3.000  9.30703E-01  1.02122E+00 -9.05173E-02
    9022.813     28.555   3.040  9.35985E-01  1.01986E+00 -8.38711E-02
    9023.746     29.487   3.080  9.41241E-01  1.01843E+00 -7.71881E-02
    9024.691     30.432   3.120  9.46511E-01  1.01693E+00 -7.04166E-02
    9025.648     31.389   3.160  9.51831E-01  1.01538E+00 -6.35501E-02
    9026.617     32.358   3.200  9.57058E-01  1.01379E+00 -5.67325E-02
    9027.599     33.340   3.240  9.62346E-01  1.01216E+00 -4.98191E-02
    9028.592     34.334   3.280  9.67931E-01  1.01053E+00 -4.26013E-02
    9029.598     35.339   3.320  9.73973E-01  1.00890E+00 -3.49228E-02
    9030.616     36.357   3.360  9.80536E-01  1.00726E+00 -2.67250E-02
    9031.646     37.388   3.400  9.87435E-01  1.00566E+00 -1.82199E-02
    9032.689     38.430   3.440  9.94135E-01  1.00406E+00 -9.92592E-03
    9033.743     39.485   3.480  1.00015E+00  1.00251E+00 -2.35048E-03
    9034.810     40.551   3.520  1.00523E+00  1.00101E+00  4.21618E-03
    9035.889     41.630   3.560  1.00950E+00  9.99563E-01  9.93179E-03
    9036.980     42.722   3.600  1.01362E+00  9.98162E-01  1.54581E-02
    9038.084     43.825   3.640  1.01852E+00  9.96831E-01  2.16917E-02
    9039.199     44.941   3.680  1.02494E+00  9.95555E-01  2.93834E-02
    9040.327     46.068   3.720  1.03318E+00  9.94374E-01  3.88030E-02
    9041.467     47.208   3.760  1.04298E+00  9.93251E-01  4.97334E-02
    9042.619     48.360   3.800  1.05372E+00  9.92208E-01  6.15092E-02
    9043.784     49.525   3.840  1.06435E+00  9.91267E-01  7.30852E-02
    9044.960     50.701   3.880  1.07374E+00  9.90388E-01  8.33558E-02
    9046.149     51.890   3.920  1.08106E+00  9.89612E-01  9.14487E-02
    9047.350     53.091   3.960  1.08573E+00  9.88920E-01  9.68078E-02
    9048.563     54.304   4.000  1.08749E+00  9.88313E-01  9.91765E-02
    9049.788     55.529   4.040  1.08643E+00  9.87789E-01  9.86444E-02
    9051.026     56.767   4.080  1.08277E+00  9.87372E-01  9.53940E-02
    9052.275     58.016   4.120  1.07663E+00  9.87040E-01  8.95920E-02
    9053.537     59.278   4.160  1.06810E+00  9.86789E-01  8.13126E-02
    9054.811     60.552   4.200  1.05725E+00  9.86620E-01  7.06284E-02
    9056.097     61.839   4.240  1.04416E+00  9.86534E-01  5.76271E-02
    9057.396     63.137   4.280  1.02918E+00  9.86528E-01  4.26528E-02
    9058.706     64.448   4.320  1.01298E+00  9.86602E-01  2.63760E-02
    9060.029     65.771   4.360  9.96446E-01  9.86778E-01  9.66812E-03
    9061.364     67.106   4.400  9.80511E-01  9.87008E-01 -6.49705E-03
    9062.712     68.453   4.440  9.66108E-01  9.87291E-01 -2.11830E-02
    9064.071     69.812   4.480  9.53934E-01  9.87667E-01 -3.37334E-02
    9065.443     71.184   4.520  9.44243E-01  9.88074E-01 -4.38307E-02
    9066.826     72.568   4.560  9.37075E-01  9.88569E-01 -5.14942E-02
    9068.222     73.964   4.600  9.32046E-01  9.89089E-01 -5.70430E-02
    9069.630     75.372   4.640  9.28758E-01  9.89674E-01 -6.09160E-02
    9071.051     76.792   4.680  9.26815E-01  9.90299E-01 -6.34842E-02
    9072.483     78.225   4.720  9.25884E-01  9.90941E-01 -6.50574E-02
    9073.928     79.669   4.760  9.25877E-01  9.91639E-01 -6.57624E-02
    9075.385     81.126   4.800  9.26812E-01  9.92350E-01 -6.55376E-02
    9076.854     82.595   4.840  9.28906E-01  9.93068E-01 -6.41622E-02
    9078.335     84.077   4.880  9.32548E-01  9.93815E-01 -6.12670E-02
    9079.829     85.570   4.920  9.38144E-01  9.94590E-01 -5.64461E-02
    9081.335     87.076   4.960  9.45867E-01  9.95343E-01 -4.94760E-02
    9082.853     88.594   5.000  9.55669E-01  9.96094E-01 -4.04242E-02
    9084.383     90.124   5.040  9.67047E-01  9.96840E-01 -2.97932E-02
    9085.925     91.666   5.080  9.79135E-01  9.97580E-01 -1.84450E-02
    9087.479     93.221   5.120  9.90973E-01  9.98291E-01 -7.31750E-03
    9089.046     94.787   5.160  1.00186E+00  9.98989E-01  2.87543E-03
    9090.625     96.366   5.200  1.01142E+00  9.99653E-01  1.17645E-02
    9092.216     97.957   5.240  1.01944E+00  1.00028E+00  1.91597E-02
    9093.819     99.561   5.280  1.02571E+00  1.00089E+00  2.48224E-02
    9095.435    101.176   5.320  1.02984E+00  1.00144E+00  2.84036E-02
    9097.062    102.804   5.360  1.03149E+00  1.00194E+00  2.95569E-02
    9098.702    104.443   5.400  1.03046E+00  1.00239E+00  2.80725E-02
    9100.354    106.095   5.440  1.02677E+00  1.00278E+00  2.39894E-02
    9102.018    107.760   5.480  1.02084E+00  1.00314E+00  1.77033E-02
    9103.695    109.436   5.520  1.01339E+00  1.00341E+00  9.98002E-03
    9105.383    111.125   5.560  1.00543E+00  1.00365E+00  1.78087E-03
    9107.084    112.825   5.600  9.97880E-01  1.00380E+00 -5.91538E-03
    9108.797    114.538   5.640  9.91686E-01  1.00389E+00 -1.22042E-02
    9110.522    116.263   5.680  9.87641E-01  1.00394E+00 -1.62949E-02
    9112.260    118.001   5.720  9.86279E-01  1.00391E+00 -1.76289E-02
    9114.009    119.750   5.760  9.87715E-01  1.00380E+00 -1.60890E-02
    9115.771    121.512   5.800  9.91536E-01  1.00365E+00 -1.21144E-02
    9117.545    123.286   5.840  9.96837E-01  1.00340E+00 -6.56351E-03
    9119.331    125.072   5.880  1.00274E+00  1.00313E+00 -3.85455E-04
    9121.129    126.870   5.920  1.00849E+00  1.00279E+00  5.69991E-03
    9122.940    128.681   5.960  1.01368E+00  1.00237E+00  1.13106E-02
    9124.762    130.504   6.000  1.01828E+00  1.00186E+00  1.64258E-02
