# # comment:                                                     FEFF 9.9.1  
# # Source:
# # Structure
# # Reduced
# # space
# # abc:
# # angles:
# # sites:
# # POT  SCF 100  7.0000   0, screened core-hole, AFOLP (folp(0)= 1.150)
# # Abs   Z=29 Rmt= 1.127 Rnm= 1.240 K  shell
# # Pot 1 Z=27 Rmt= 1.179 Rnm= 1.305
# # Pot 2 Z=29 Rmt= 1.134 Rnm= 1.244
# # Pot 3 Z= 8 Rmt= 0.991 Rnm= 1.089
# # Gam_ch=1.729E+00 H-L exch Vi= 0.000E+00 Vr= 0.000E+00
# # Mu=-1.052E+01eV kf=2.264E+00 Vint=-1.779E+01eV Rs_int= 1.602
# FMS rfms= 9.0000
# # PATH  Rmax=-1.000,  Keep_limit= 0.00, Heap_limit 0.00  Pwcrit= 2.50%
#  S02=0.950  Temp=   0.00  Debye_temp=   0.00  Global_sig2= 0.00000
#  Energy zero shift, vr, vi    0.00000E+00   0.00000E+00
#  Curved wave amplitude ratio filter   4.000%
#     file         sig2 tot  cw amp ratio   deg  nlegs   reff  inp sig2
#     0/   0 paths used
#  xsedge+ 50, used to normalize mu           2.4641E-04
#  -----------------------------------------------------------------------
#  omega    e    k    mu    mu0     chi     @#
    8984.476    -14.333  -1.000  3.02941E-02  5.09348E-02 -2.06407E-02
    8984.775    -14.034  -0.960  3.16418E-02  5.44998E-02 -2.28580E-02
    8985.061    -13.748  -0.920  3.30805E-02  5.84479E-02 -2.53674E-02
    8985.336    -13.473  -0.880  3.46207E-02  6.28340E-02 -2.82132E-02
    8985.598    -13.211  -0.840  3.62749E-02  6.77220E-02 -3.14471E-02
    8985.848    -12.961  -0.800  3.80573E-02  7.31860E-02 -3.51287E-02
    8986.085    -12.724  -0.760  3.99843E-02  7.93105E-02 -3.93262E-02
    8986.311    -12.498  -0.720  4.20745E-02  8.61908E-02 -4.41164E-02
    8986.524    -12.285  -0.680  4.43482E-02  9.39319E-02 -4.95836E-02
    8986.725    -12.084  -0.640  4.68270E-02  1.02644E-01 -5.58168E-02
    8986.914    -11.895  -0.600  4.95319E-02  1.12435E-01 -6.29028E-02
    8987.091    -11.718  -0.560  5.24807E-02  1.23396E-01 -7.09154E-02
    8987.256    -11.553  -0.520  5.56840E-02  1.35581E-01 -7.98972E-02
    8987.408    -11.401  -0.480  5.91395E-02  1.48976E-01 -8.98362E-02
    8987.548    -11.261  -0.440  6.28250E-02  1.63463E-01 -1.00638E-01
    8987.676    -11.133  -0.400  6.66927E-02  1.78794E-01 -1.12101E-01
    8987.792    -11.017  -0.360  7.06654E-02  1.94579E-01 -1.23914E-01
    8987.896    -10.913  -0.320  7.46385E-02  2.10315E-01 -1.35676E-01
    8987.987    -10.822  -0.280  7.84889E-02  2.25437E-01 -1.46948E-01
    8988.067    -10.742  -0.240  8.20888E-02  2.39404E-01 -1.57315E-01
    8988.134    -10.675  -0.200  8.53196E-02  2.51758E-01 -1.66438E-01
    8988.188    -10.621  -0.160  8.80830E-02  2.62161E-01 -1.74078E-01
    8988.231    -10.578  -0.120  9.03061E-02  2.70394E-01 -1.80088E-01
    8988.262    -10.547  -0.080  9.19409E-02  2.76331E-01 -1.84390E-01
    8988.286    -10.523   0.000  9.33139E-02  2.81105E-01 -1.87791E-01
    8988.341    -10.468   0.120  9.63810E-02  2.91876E-01 -1.95495E-01
    8988.384    -10.425   0.160  9.86975E-02  3.00267E-01 -2.01570E-01
    8988.438    -10.371   0.200  1.01628E-01  3.11004E-01 -2.09376E-01
    8988.505    -10.304   0.240  1.05111E-01  3.23962E-01 -2.18851E-01
    8988.585    -10.224   0.280  1.09050E-01  3.38911E-01 -2.29861E-01
    8988.676    -10.133   0.320  1.13230E-01  3.55489E-01 -2.42259E-01
    8988.780    -10.029   0.360  1.17396E-01  3.73290E-01 -2.55894E-01
    8988.896     -9.913   0.400  1.21237E-01  3.91812E-01 -2.70576E-01
    8989.024     -9.785   0.440  1.24530E-01  4.10659E-01 -2.86128E-01
    8989.164     -9.645   0.480  1.27252E-01  4.29503E-01 -3.02252E-01
    8989.316     -9.493   0.520  1.29575E-01  4.48120E-01 -3.18544E-01
    8989.481     -9.328   0.560  1.31896E-01  4.66391E-01 -3.34495E-01
    8989.658     -9.151   0.600  1.34692E-01  4.84289E-01 -3.49597E-01
    8989.847     -8.962   0.640  1.38326E-01  5.01878E-01 -3.63552E-01
    8990.048     -8.761   0.680  1.42842E-01  5.19213E-01 -3.76371E-01
    8990.261     -8.548   0.720  1.47907E-01  5.36337E-01 -3.88430E-01
    8990.487     -8.322   0.760  1.52599E-01  5.53332E-01 -4.00733E-01
    8990.724     -8.085   0.800  1.55614E-01  5.70252E-01 -4.14639E-01
    8990.974     -7.835   0.840  1.56332E-01  5.87138E-01 -4.30806E-01
    8991.236     -7.573   0.880  1.55786E-01  6.03999E-01 -4.48212E-01
    8991.511     -7.298   0.920  1.56290E-01  6.20872E-01 -4.64582E-01
    8991.797     -7.012   0.960  1.59942E-01  6.37746E-01 -4.77804E-01
    8992.096     -6.713   1.000  1.68183E-01  6.54617E-01 -4.86434E-01
    8992.407     -6.402   1.040  1.82158E-01  6.71476E-01 -4.89318E-01
    8992.730     -6.079   1.080  2.03430E-01  6.88284E-01 -4.84854E-01
    8993.065     -5.744   1.120  2.34908E-01  7.05021E-01 -4.70113E-01
    8993.413     -5.396   1.160  2.81766E-01  7.21658E-01 -4.39892E-01
    8993.772     -5.037   1.200  3.53185E-01  7.38124E-01 -3.84939E-01
    8994.144     -4.665   1.240  4.64020E-01  7.54429E-01 -2.90409E-01
    8994.528     -4.281   1.280  6.30288E-01  7.70495E-01 -1.40208E-01
    8994.925     -3.884   1.320  8.39189E-01  7.86267E-01  5.29215E-02
    8995.333     -3.476   1.360  1.00013E+00  8.01748E-01  1.98377E-01
    8995.754     -3.055   1.400  1.01157E+00  8.16860E-01  1.94705E-01
    8996.186     -2.623   1.440  9.11679E-01  8.31568E-01  8.01104E-02
    8996.631     -2.178   1.480  7.85033E-01  8.45856E-01 -6.08231E-02
    8997.089     -1.720   1.520  6.66484E-01  8.59667E-01 -1.93183E-01
    8997.558     -1.251   1.560  5.80204E-01  8.72968E-01 -2.92764E-01
    8998.040     -0.769   1.600  5.36030E-01  8.85747E-01 -3.49717E-01
    8998.533     -0.276   1.640  5.30435E-01  8.97994E-01 -3.67559E-01
    8999.039      0.230   1.680  5.48875E-01  9.09640E-01 -3.60764E-01
    8999.557      0.748   1.720  5.68173E-01  9.20719E-01 -3.52545E-01
    9000.088      1.279   1.760  5.77994E-01  9.31184E-01 -3.53190E-01
    9000.630      1.821   1.800  5.91953E-01  9.41051E-01 -3.49098E-01
    9001.185      2.376   1.840  6.31797E-01  9.50300E-01 -3.18503E-01
    9001.752      2.943   1.880  7.08598E-01  9.58932E-01 -2.50334E-01
    9002.331      3.522   1.920  8.23454E-01  9.66948E-01 -1.43494E-01
    9002.922      4.113   1.960  9.64633E-01  9.74372E-01 -9.73860E-03
    9003.526      4.717   2.000  1.07953E+00  9.81190E-01  9.83420E-02
    9004.142      5.333   2.040  1.11913E+00  9.87449E-01  1.31680E-01
    9004.770      5.961   2.080  1.13179E+00  9.93114E-01  1.38675E-01
    9005.410      6.601   2.120  1.19092E+00  9.98237E-01  1.92683E-01
    9006.062      7.253   2.160  1.29898E+00  1.00283E+00  2.96150E-01
    9006.726      7.917   2.200  1.39684E+00  1.00691E+00  3.89930E-01
    9007.403      8.594   2.240  1.41922E+00  1.01051E+00  4.08713E-01
    9008.092      9.283   2.280  1.37948E+00  1.01362E+00  3.65861E-01
    9008.793      9.984   2.320  1.32605E+00  1.01631E+00  3.09749E-01
    9009.506     10.697   2.360  1.28165E+00  1.01856E+00  2.63090E-01
    9010.232     11.423   2.400  1.27120E+00  1.02042E+00  2.50780E-01
    9010.969     12.160   2.440  1.30356E+00  1.02190E+00  2.81659E-01
    9011.719     12.910   2.480  1.35073E+00  1.02306E+00  3.27675E-01
    9012.481     13.672   2.520  1.36724E+00  1.02387E+00  3.43373E-01
    9013.255     14.446   2.560  1.34644E+00  1.02439E+00  3.22052E-01
    9014.042     15.232   2.600  1.30545E+00  1.02465E+00  2.80795E-01
    9014.840     16.031   2.640  1.24575E+00  1.02464E+00  2.21107E-01
    9015.651     16.842   2.680  1.18501E+00  1.02441E+00  1.60596E-01
    9016.474     17.665   2.720  1.14952E+00  1.02398E+00  1.25544E-01
    9017.309     18.500   2.760  1.12779E+00  1.02335E+00  1.04441E-01
    9018.156     19.347   2.800  1.10749E+00  1.02255E+00  8.49396E-02
    9019.016     20.207   2.840  1.08446E+00  1.02162E+00  6.28384E-02
    9019.888     21.079   2.880  1.06080E+00  1.02056E+00  4.02400E-02
    9020.771     21.962   2.920  1.04029E+00  1.01937E+00  2.09280E-02
    9021.668     22.859   2.960  1.02501E+00  1.01810E+00  6.90635E-03
    9022.576     23.767   3.000  1.01446E+00  1.01675E+00 -2.29856E-03
    9023.496     24.687   3.040  1.00636E+00  1.01533E+00 -8.97161E-03
    9024.429     25.620   3.080  9.98770E-01  1.01387E+00 -1.50990E-02
    9025.374     26.565   3.120  9.90472E-01  1.01238E+00 -2.19120E-02
    9026.331     27.522   3.160  9.80095E-01  1.01085E+00 -3.07504E-02
    9027.300     28.491   3.200  9.66296E-01  1.00932E+00 -4.30232E-02
    9028.282     29.473   3.240  9.48767E-01  1.00777E+00 -5.90022E-02
    9029.275     30.466   3.280  9.28749E-01  1.00624E+00 -7.74935E-02
    9030.281     31.472   3.320  9.08436E-01  1.00472E+00 -9.62873E-02
    9031.299     32.490   3.360  8.90114E-01  1.00321E+00 -1.13098E-01
    9032.329     33.520   3.400  8.75173E-01  1.00176E+00 -1.26585E-01
    9033.372     34.563   3.440  8.63984E-01  1.00032E+00 -1.36339E-01
    9034.426     35.617   3.480  8.56278E-01  9.98951E-01 -1.42674E-01
    9035.493     36.684   3.520  8.51549E-01  9.97623E-01 -1.46074E-01
    9036.572     37.763   3.560  8.48980E-01  9.96342E-01 -1.47361E-01
    9037.663     38.854   3.600  8.48333E-01  9.95129E-01 -1.46796E-01
    9038.767     39.958   3.640  8.49713E-01  9.93968E-01 -1.44255E-01
    9039.882     41.073   3.680  8.53291E-01  9.92881E-01 -1.39590E-01
    9041.010     42.201   3.720  8.59058E-01  9.91869E-01 -1.32810E-01
    9042.150     43.341   3.760  8.66993E-01  9.90933E-01 -1.23940E-01
    9043.302     44.493   3.800  8.76993E-01  9.90054E-01 -1.13062E-01
    9044.467     45.658   3.840  8.88909E-01  9.89274E-01 -1.00366E-01
    9045.643     46.834   3.880  9.02509E-01  9.88551E-01 -8.60425E-02
    9046.832     48.023   3.920  9.17566E-01  9.87907E-01 -7.03413E-02
    9048.033     49.224   3.960  9.33535E-01  9.87363E-01 -5.38277E-02
    9049.246     50.437   4.000  9.49326E-01  9.86876E-01 -3.75500E-02
    9050.471     51.662   4.040  9.63627E-01  9.86468E-01 -2.28405E-02
    9051.709     52.900   4.080  9.75016E-01  9.86137E-01 -1.11213E-02
    9052.958     54.149   4.120  9.82470E-01  9.85883E-01 -3.41260E-03
    9054.220     55.411   4.160  9.85823E-01  9.85685E-01  1.38319E-04
    9055.494     56.685   4.200  9.86106E-01  9.85584E-01  5.22145E-04
    9056.780     57.971   4.240  9.85197E-01  9.85539E-01 -3.41952E-04
    9058.079     59.270   4.280  9.85519E-01  9.85567E-01 -4.79904E-05
    9059.389     60.580   4.320  9.89137E-01  9.85647E-01  3.48936E-03
    9060.712     61.903   4.360  9.97125E-01  9.85821E-01  1.13041E-02
    9062.047     63.238   4.400  1.00917E+00  9.86023E-01  2.31481E-02
    9063.395     64.586   4.440  1.02406E+00  9.86295E-01  3.77638E-02
    9064.754     65.945   4.480  1.04020E+00  9.86636E-01  5.35631E-02
    9066.126     67.317   4.520  1.05612E+00  9.87024E-01  6.91010E-02
    9067.509     68.700   4.560  1.07063E+00  9.87453E-01  8.31784E-02
    9068.905     70.096   4.600  1.08217E+00  9.87923E-01  9.42447E-02
    9070.313     71.504   4.640  1.08877E+00  9.88432E-01  1.00339E-01
    9071.734     72.925   4.680  1.08887E+00  9.88979E-01  9.98913E-02
    9073.166     74.357   4.720  1.08235E+00  9.89540E-01  9.28127E-02
    9074.611     75.802   4.760  1.07108E+00  9.90157E-01  8.09222E-02
    9076.068     77.259   4.800  1.05811E+00  9.90784E-01  6.73263E-02
    9077.537     78.728   4.840  1.04659E+00  9.91422E-01  5.51675E-02
    9079.018     80.209   4.880  1.03904E+00  9.92088E-01  4.69509E-02
    9080.512     81.703   4.920  1.03676E+00  9.92782E-01  4.39752E-02
    9082.018     83.209   4.960  1.03947E+00  9.93458E-01  4.60155E-02
    9083.536     84.727   5.000  1.04568E+00  9.94154E-01  5.15291E-02
    9085.066     86.257   5.040  1.05313E+00  9.94830E-01  5.83037E-02
    9086.608     87.799   5.080  1.05965E+00  9.95524E-01  6.41256E-02
    9088.162     89.353   5.120  1.06332E+00  9.96193E-01  6.71323E-02
    9089.729     90.920   5.160  1.06288E+00  9.96856E-01  6.60234E-02
    9091.308     92.499   5.200  1.05797E+00  9.97510E-01  6.04557E-02
    9092.899     94.090   5.240  1.04937E+00  9.98132E-01  5.12365E-02
    9094.502     95.693   5.280  1.03844E+00  9.98721E-01  3.97208E-02
    9096.118     97.309   5.320  1.02614E+00  9.99296E-01  2.68474E-02
    9097.745     98.936   5.360  1.01263E+00  9.99836E-01  1.27958E-02
    9099.385    100.576   5.400  9.97803E-01  1.00034E+00 -2.53570E-03
    9101.037    102.228   5.440  9.81887E-01  1.00082E+00 -1.89380E-02
    9102.701    103.892   5.480  9.65435E-01  1.00125E+00 -3.58152E-02
    9104.378    105.569   5.520  9.49378E-01  1.00166E+00 -5.22790E-02
    9106.066    107.257   5.560  9.34649E-01  1.00200E+00 -6.73513E-02
    9107.767    108.958   5.600  9.22153E-01  1.00232E+00 -8.01699E-02
    9109.480    110.671   5.640  9.12506E-01  1.00258E+00 -9.00725E-02
    9111.205    112.396   5.680  9.06387E-01  1.00279E+00 -9.64024E-02
    9112.943    114.134   5.720  9.04615E-01  1.00293E+00 -9.83173E-02
    9114.692    115.883   5.760  9.08142E-01  1.00305E+00 -9.49127E-02
    9116.454    117.645   5.800  9.17384E-01  1.00311E+00 -8.57251E-02
    9118.228    119.419   5.840  9.31755E-01  1.00312E+00 -7.13644E-02
    9120.014    121.205   5.880  9.49559E-01  1.00309E+00 -5.35259E-02
    9121.812    123.003   5.920  9.68506E-01  1.00298E+00 -3.44751E-02
    9123.623    124.814   5.960  9.86486E-01  1.00282E+00 -1.63389E-02
    9125.445    126.636   6.000  1.00224E+00  1.00259E+00 -3.45171E-04
