# # comment:                                                     FEFF 9.9.1  
# # Source:
# # Structure
# # Reduced
# # space
# # abc:
# # angles:
# # sites:
# # POT  SCF 100  7.0000   0, screened core-hole, AFOLP (folp(0)= 1.150)
# # Abs   Z=29 Rmt= 1.278 Rnm= 1.350 K  shell
# # Pot 1 Z=29 Rmt= 1.278 Rnm= 1.350
# # Pot 2 Z=15 Rmt= 0.938 Rnm= 1.155
# # Pot 3 Z= 8 Rmt= 0.877 Rnm= 1.040
# # Gam_ch=1.729E+00 H-L exch Vi= 0.000E+00 Vr= 0.000E+00
# # Mu=-5.335E+00eV kf=2.540E+00 Vint=-1.780E+01eV Rs_int= 1.428
# FMS rfms= 9.0000
# # PATH  Rmax=-1.000,  Keep_limit= 0.00, Heap_limit 0.00  Pwcrit= 2.50%
#  S02=0.950  Temp=   0.00  Debye_temp=   0.00  Global_sig2= 0.00000
#  Energy zero shift, vr, vi    0.00000E+00   0.00000E+00
#  Curved wave amplitude ratio filter   4.000%
#     file         sig2 tot  cw amp ratio   deg  nlegs   reff  inp sig2
#     0/   0 paths used
#  xsedge+ 50, used to normalize mu           2.4902E-04
#  -----------------------------------------------------------------------
#  omega    e    k    mu    mu0     chi     @#
    8983.273     -9.145  -1.000  5.18215E-02  5.59875E-02 -4.16601E-03
    8983.572     -8.846  -0.960  5.51924E-02  6.01576E-02 -4.96524E-03
    8983.858     -8.560  -0.920  5.88808E-02  6.48031E-02 -5.92229E-03
    8984.133     -8.286  -0.880  6.29263E-02  6.99953E-02 -7.06900E-03
    8984.395     -8.024  -0.840  6.73739E-02  7.58175E-02 -8.44356E-03
    8984.645     -7.774  -0.800  7.22745E-02  8.23660E-02 -1.00915E-02
    8984.883     -7.536  -0.760  7.76855E-02  8.97521E-02 -1.20666E-02
    8985.108     -7.310  -0.720  8.36700E-02  9.81013E-02 -1.44313E-02
    8985.322     -7.097  -0.680  9.02962E-02  1.07552E-01 -1.72562E-02
    8985.523     -6.896  -0.640  9.76338E-02  1.18252E-01 -2.06183E-02
    8985.712     -6.707  -0.600  1.05749E-01  1.30345E-01 -2.45956E-02
    8985.888     -6.530  -0.560  1.14696E-01  1.43955E-01 -2.92587E-02
    8986.053     -6.365  -0.520  1.24501E-01  1.59156E-01 -3.46553E-02
    8986.205     -6.213  -0.480  1.35145E-01  1.75935E-01 -4.07903E-02
    8986.346     -6.073  -0.440  1.46542E-01  1.94144E-01 -4.76016E-02
    8986.474     -5.945  -0.400  1.58519E-01  2.13461E-01 -5.49411E-02
    8986.589     -5.829  -0.360  1.70811E-01  2.33380E-01 -6.25697E-02
    8986.693     -5.725  -0.320  1.83068E-01  2.53246E-01 -7.01789E-02
    8986.785     -5.634  -0.280  1.94895E-01  2.72331E-01 -7.74356E-02
    8986.864     -5.555  -0.240  2.05898E-01  2.89935E-01 -8.40374E-02
    8986.931     -5.488  -0.200  2.15722E-01  3.05479E-01 -8.97564E-02
    8986.986     -5.433  -0.160  2.24086E-01  3.18541E-01 -9.44550E-02
    8987.028     -5.390  -0.120  2.30780E-01  3.28855E-01 -9.80751E-02
    8987.059     -5.360  -0.080  2.35665E-01  3.36279E-01 -1.00614E-01
    8987.083     -5.335   0.000  2.39662E-01  3.42239E-01 -1.02577E-01
    8987.138     -5.280   0.120  2.48467E-01  3.55656E-01 -1.07189E-01
    8987.181     -5.238   0.160  2.55410E-01  3.66079E-01 -1.10668E-01
    8987.236     -5.183   0.200  2.64393E-01  3.79344E-01 -1.14951E-01
    8987.303     -5.116   0.240  2.75472E-01  3.95270E-01 -1.19798E-01
    8987.382     -5.036   0.280  2.88607E-01  4.13482E-01 -1.24875E-01
    8987.473     -4.945   0.320  3.03727E-01  4.33473E-01 -1.29746E-01
    8987.577     -4.841   0.360  3.20666E-01  4.54598E-01 -1.33932E-01
    8987.693     -4.726   0.400  3.39281E-01  4.76234E-01 -1.36953E-01
    8987.821     -4.598   0.440  3.59295E-01  4.97740E-01 -1.38445E-01
    8987.961     -4.457   0.480  3.80384E-01  5.18651E-01 -1.38267E-01
    8988.113     -4.305   0.520  4.02209E-01  5.38672E-01 -1.36463E-01
    8988.278     -4.140   0.560  4.24461E-01  5.57650E-01 -1.33189E-01
    8988.455     -3.964   0.600  4.47011E-01  5.75574E-01 -1.28564E-01
    8988.644     -3.775   0.640  4.70150E-01  5.92515E-01 -1.22364E-01
    8988.845     -3.573   0.680  4.94752E-01  6.08567E-01 -1.13815E-01
    8989.058     -3.360   0.720  5.22155E-01  6.23842E-01 -1.01687E-01
    8989.284     -3.135   0.760  5.53263E-01  6.38491E-01 -8.52283E-02
    8989.522     -2.897   0.800  5.87471E-01  6.52594E-01 -6.51233E-02
    8989.772     -2.647   0.840  6.23083E-01  6.66258E-01 -4.31750E-02
    8990.034     -2.385   0.880  6.58797E-01  6.79575E-01 -2.07780E-02
    8990.308     -2.110   0.920  6.94296E-01  6.92583E-01  1.71309E-03
    8990.595     -1.824   0.960  7.29147E-01  7.05364E-01  2.37832E-02
    8990.893     -1.525   1.000  7.60997E-01  7.17909E-01  4.30873E-02
    8991.204     -1.214   1.040  7.86316E-01  7.30301E-01  5.60155E-02
    8991.527     -0.891   1.080  8.04906E-01  7.42532E-01  6.23746E-02
    8991.863     -0.556   1.120  8.21809E-01  7.54607E-01  6.72023E-02
    8992.210     -0.208   1.160  8.41406E-01  7.66543E-01  7.48631E-02
    8992.570      0.151   1.200  8.62921E-01  7.78316E-01  8.46048E-02
    8992.941      0.523   1.240  8.82657E-01  7.89954E-01  9.27022E-02
    8993.326      0.907   1.280  8.98975E-01  8.01445E-01  9.75294E-02
    8993.722      1.303   1.320  9.15901E-01  8.12751E-01  1.03150E-01
    8994.130      1.712   1.360  9.37505E-01  8.23872E-01  1.13632E-01
    8994.551      2.132   1.400  9.57459E-01  8.34808E-01  1.22651E-01
    8994.984      2.565   1.440  9.64422E-01  8.45518E-01  1.18903E-01
    8995.429      3.010   1.480  9.63045E-01  8.56017E-01  1.07029E-01
    8995.886      3.467   1.520  9.75773E-01  8.66260E-01  1.09513E-01
    8996.355      3.937   1.560  1.01856E+00  8.76245E-01  1.42318E-01
    8996.837      4.418   1.600  1.08251E+00  8.85945E-01  1.96567E-01
    8997.331      4.912   1.640  1.14196E+00  8.95355E-01  2.46601E-01
    8997.837      5.418   1.680  1.17546E+00  9.04452E-01  2.71009E-01
    8998.355      5.936   1.720  1.18691E+00  9.13249E-01  2.73658E-01
    8998.885      6.467   1.760  1.19877E+00  9.21704E-01  2.77065E-01
    8999.428      7.009   1.800  1.22121E+00  9.29811E-01  2.91398E-01
    8999.982      7.564   1.840  1.23858E+00  9.37568E-01  3.01016E-01
    9000.549      8.131   1.880  1.22584E+00  9.44951E-01  2.80884E-01
    9001.128      8.710   1.920  1.17410E+00  9.51978E-01  2.22123E-01
    9001.720      9.301   1.960  1.09771E+00  9.58628E-01  1.39082E-01
    9002.323      9.905   2.000  1.02181E+00  9.64899E-01  5.69125E-02
    9002.939     10.520   2.040  9.67706E-01  9.70793E-01 -3.08680E-03
    9003.567     11.148   2.080  9.44958E-01  9.76309E-01 -3.13508E-02
    9004.207     11.788   2.120  9.49890E-01  9.81448E-01 -3.15584E-02
    9004.859     12.441   2.160  9.71087E-01  9.86213E-01 -1.51253E-02
    9005.524     13.105   2.200  9.98261E-01  9.90604E-01  7.65728E-03
    9006.200     13.782   2.240  1.02647E+00  9.94626E-01  3.18466E-02
    9006.889     14.471   2.280  1.05670E+00  9.98282E-01  5.84215E-02
    9007.590     15.172   2.320  1.09220E+00  1.00160E+00  9.06062E-02
    9008.303     15.885   2.360  1.13275E+00  1.00455E+00  1.28196E-01
    9009.029     16.610   2.400  1.17228E+00  1.00720E+00  1.65083E-01
    9009.766     17.348   2.440  1.19564E+00  1.00950E+00  1.86143E-01
    9010.516     18.098   2.480  1.18964E+00  1.01150E+00  1.78135E-01
    9011.278     18.860   2.520  1.15974E+00  1.01321E+00  1.46527E-01
    9012.052     19.634   2.560  1.11999E+00  1.01461E+00  1.05384E-01
    9012.839     20.420   2.600  1.08016E+00  1.01575E+00  6.44135E-02
    9013.637     21.219   2.640  1.04237E+00  1.01664E+00  2.57376E-02
    9014.448     22.030   2.680  1.00534E+00  1.01726E+00 -1.19134E-02
    9015.271     22.853   2.720  9.74174E-01  1.01766E+00 -4.34848E-02
    9016.106     23.688   2.760  9.53135E-01  1.01785E+00 -6.47154E-02
    9016.954     24.535   2.800  9.35115E-01  1.01784E+00 -8.27225E-02
    9017.813     25.395   2.840  9.11783E-01  1.01763E+00 -1.05843E-01
    9018.685     26.266   2.880  8.83957E-01  1.01725E+00 -1.33290E-01
    9019.569     27.150   2.920  8.66276E-01  1.01670E+00 -1.50427E-01
    9020.465     28.046   2.960  8.68492E-01  1.01600E+00 -1.47512E-01
    9021.373     28.955   3.000  8.82142E-01  1.01518E+00 -1.33035E-01
    9022.294     29.875   3.040  8.99788E-01  1.01425E+00 -1.14461E-01
    9023.226     30.808   3.080  9.16667E-01  1.01318E+00 -9.65157E-02
    9024.171     31.753   3.120  9.31347E-01  1.01205E+00 -8.07018E-02
    9025.128     32.710   3.160  9.43271E-01  1.01081E+00 -6.75427E-02
    9026.098     33.679   3.200  9.51756E-01  1.00952E+00 -5.77658E-02
    9027.079     34.660   3.240  9.56183E-01  1.00816E+00 -5.19769E-02
    9028.073     35.654   3.280  9.56622E-01  1.00677E+00 -5.01501E-02
    9029.078     36.660   3.320  9.53764E-01  1.00532E+00 -5.15597E-02
    9030.096     37.678   3.360  9.49075E-01  1.00386E+00 -5.47861E-02
    9031.127     38.708   3.400  9.44214E-01  1.00237E+00 -5.81548E-02
    9032.169     39.751   3.440  9.40633E-01  1.00089E+00 -6.02572E-02
    9033.224     40.805   3.480  9.39254E-01  9.99389E-01 -6.01344E-02
    9034.290     41.872   3.520  9.40578E-01  9.97890E-01 -5.73121E-02
    9035.369     42.951   3.560  9.44594E-01  9.96419E-01 -5.18251E-02
    9036.461     44.042   3.600  9.50734E-01  9.94979E-01 -4.42452E-02
    9037.564     45.146   3.640  9.58383E-01  9.93552E-01 -3.51687E-02
    9038.680     46.261   3.680  9.66959E-01  9.92161E-01 -2.52013E-02
    9039.807     47.389   3.720  9.75893E-01  9.90830E-01 -1.49371E-02
    9040.947     48.529   3.760  9.84603E-01  9.89521E-01 -4.91751E-03
    9042.099     49.681   3.800  9.92712E-01  9.88275E-01  4.43611E-03
    9043.264     50.845   3.840  9.99898E-01  9.87076E-01  1.28217E-02
    9044.440     52.022   3.880  1.00614E+00  9.85925E-01  2.02166E-02
    9045.629     53.211   3.920  1.01167E+00  9.84864E-01  2.68080E-02
    9046.830     54.411   3.960  1.01670E+00  9.83833E-01  3.28639E-02
    9048.043     55.625   4.000  1.02153E+00  9.82895E-01  3.86395E-02
    9049.268     56.850   4.040  1.02634E+00  9.82011E-01  4.43318E-02
    9050.506     58.087   4.080  1.03107E+00  9.81200E-01  4.98731E-02
    9051.755     59.337   4.120  1.03534E+00  9.80443E-01  5.48933E-02
    9053.017     60.599   4.160  1.03865E+00  9.79782E-01  5.88699E-02
    9054.291     61.873   4.200  1.04052E+00  9.79177E-01  6.13388E-02
    9055.578     63.159   4.240  1.04074E+00  9.78648E-01  6.20937E-02
    9056.876     64.458   4.280  1.03944E+00  9.78194E-01  6.12412E-02
    9058.187     65.768   4.320  1.03690E+00  9.77817E-01  5.90778E-02
    9059.510     67.091   4.360  1.03337E+00  9.77517E-01  5.58512E-02
    9060.845     68.426   4.400  1.02902E+00  9.77269E-01  5.17531E-02
    9062.192     69.773   4.440  1.02415E+00  9.77096E-01  4.70501E-02
    9063.551     71.133   4.480  1.01913E+00  9.76997E-01  4.21296E-02
    9064.923     72.504   4.520  1.01446E+00  9.76971E-01  3.74846E-02
    9066.307     73.888   4.560  1.01061E+00  9.76994E-01  3.36159E-02
    9067.703     75.284   4.600  1.00790E+00  9.77064E-01  3.08367E-02
    9069.111     76.692   4.640  1.00630E+00  9.77206E-01  2.90957E-02
    9070.531     78.113   4.680  1.00533E+00  9.77415E-01  2.79182E-02
    9071.964     79.545   4.720  1.00413E+00  9.77648E-01  2.64812E-02
    9073.408     80.990   4.760  1.00181E+00  9.77947E-01  2.38596E-02
    9074.865     82.447   4.800  9.97681E-01  9.78311E-01  1.93695E-02
    9076.334     83.916   4.840  9.91444E-01  9.78694E-01  1.27499E-02
    9077.816     85.397   4.880  9.83252E-01  9.79115E-01  4.13785E-03
    9079.309     86.891   4.920  9.73545E-01  9.79571E-01 -6.02601E-03
    9080.815     88.397   4.960  9.62930E-01  9.80063E-01 -1.71329E-02
    9082.333     89.914   5.000  9.52129E-01  9.80566E-01 -2.84368E-02
    9083.863     91.444   5.040  9.41983E-01  9.81100E-01 -3.91177E-02
    9085.405     92.987   5.080  9.33314E-01  9.81664E-01 -4.83507E-02
    9086.960     94.541   5.120  9.26857E-01  9.82213E-01 -5.53559E-02
    9088.526     96.108   5.160  9.23268E-01  9.82789E-01 -5.95203E-02
    9090.105     97.687   5.200  9.22914E-01  9.83388E-01 -6.04744E-02
    9091.696     99.278   5.240  9.25768E-01  9.83966E-01 -5.81977E-02
    9093.300    100.881   5.280  9.31584E-01  9.84541E-01 -5.29567E-02
    9094.915    102.496   5.320  9.39884E-01  9.85113E-01 -4.52289E-02
    9096.543    104.124   5.360  9.49999E-01  9.85678E-01 -3.56795E-02
    9098.182    105.764   5.400  9.61009E-01  9.86216E-01 -2.52068E-02
    9099.834    107.416   5.440  9.71853E-01  9.86743E-01 -1.48903E-02
    9101.499    109.080   5.480  9.81396E-01  9.87238E-01 -5.84241E-03
    9103.175    110.757   5.520  9.88721E-01  9.87723E-01  9.97946E-04
    9104.864    112.445   5.560  9.93206E-01  9.88172E-01  5.03486E-03
    9106.564    114.146   5.600  9.94681E-01  9.88582E-01  6.09911E-03
    9108.277    115.859   5.640  9.93365E-01  9.88956E-01  4.40918E-03
    9110.002    117.584   5.680  9.89840E-01  9.89313E-01  5.27098E-04
    9111.740    119.321   5.720  9.84903E-01  9.89606E-01 -4.70384E-03
    9113.489    121.071   5.760  9.79612E-01  9.89857E-01 -1.02449E-02
    9115.251    122.833   5.800  9.75048E-01  9.90066E-01 -1.50175E-02
    9117.025    124.607   5.840  9.72142E-01  9.90233E-01 -1.80907E-02
    9118.811    126.393   5.880  9.71445E-01  9.90355E-01 -1.89092E-02
    9120.609    128.191   5.920  9.72934E-01  9.90406E-01 -1.74720E-02
    9122.420    130.002   5.960  9.76030E-01  9.90406E-01 -1.43757E-02
    9124.243    131.824   6.000  9.79807E-01  9.90330E-01 -1.05234E-02
