# # comment:                                                     FEFF 9.9.1  
# # Source:
# # Structure
# # Reduced
# # space
# # abc:
# # angles:
# # sites:
# # POT  SCF 100  7.0000   0, screened core-hole, AFOLP (folp(0)= 1.150)
# # Abs   Z=29 Rmt= 1.266 Rnm= 1.346 K  shell
# # Pot 1 Z=23 Rmt= 1.174 Rnm= 1.342
# # Pot 2 Z=29 Rmt= 1.259 Rnm= 1.341
# # Pot 3 Z= 8 Rmt= 1.039 Rnm= 1.099
# # Gam_ch=1.729E+00 H-L exch Vi= 0.000E+00 Vr= 0.000E+00
# # Mu=-9.717E+00eV kf=2.224E+00 Vint=-1.840E+01eV Rs_int= 1.630
# FMS rfms= 9.0000
# # PATH  Rmax=-1.000,  Keep_limit= 0.00, Heap_limit 0.00  Pwcrit= 2.50%
#  S02=0.950  Temp=   0.00  Debye_temp=   0.00  Global_sig2= 0.00000
#  Energy zero shift, vr, vi    0.00000E+00   0.00000E+00
#  Curved wave amplitude ratio filter   4.000%
#     file         sig2 tot  cw amp ratio   deg  nlegs   reff  inp sig2
#     0/   0 paths used
#  xsedge+ 50, used to normalize mu           2.5007E-04
#  -----------------------------------------------------------------------
#  omega    e    k    mu    mu0     chi     @#
    8984.106    -13.527  -1.000  3.66140E-02  4.77783E-02 -1.11642E-02
    8984.405    -13.228  -0.960  3.86956E-02  5.10909E-02 -1.23953E-02
    8984.691    -12.942  -0.920  4.09741E-02  5.47605E-02 -1.37864E-02
    8984.965    -12.667  -0.880  4.34784E-02  5.88389E-02 -1.53606E-02
    8985.228    -12.405  -0.840  4.62426E-02  6.33864E-02 -1.71438E-02
    8985.478    -12.155  -0.800  4.93068E-02  6.84727E-02 -1.91659E-02
    8985.715    -11.917  -0.760  5.27175E-02  7.41776E-02 -2.14601E-02
    8985.941    -11.692  -0.720  5.65282E-02  8.05915E-02 -2.40633E-02
    8986.154    -11.479  -0.680  6.07986E-02  8.78135E-02 -2.70149E-02
    8986.355    -11.277  -0.640  6.55928E-02  9.59482E-02 -3.03555E-02
    8986.544    -11.088  -0.600  7.09749E-02  1.05098E-01 -3.41234E-02
    8986.721    -10.912  -0.560  7.70014E-02  1.15351E-01 -3.83496E-02
    8986.886    -10.747  -0.520  8.37084E-02  1.26757E-01 -4.30491E-02
    8987.038    -10.595  -0.480  9.10946E-02  1.39305E-01 -4.82102E-02
    8987.178    -10.454  -0.440  9.91006E-02  1.52883E-01 -5.37825E-02
    8987.306    -10.326  -0.400  1.07591E-01  1.67258E-01 -5.96667E-02
    8987.422    -10.211  -0.360  1.16349E-01  1.82062E-01 -6.57134E-02
    8987.526    -10.107  -0.320  1.25084E-01  1.96818E-01 -7.17342E-02
    8987.617    -10.016  -0.280  1.33470E-01  2.10994E-01 -7.75244E-02
    8987.696     -9.936  -0.240  1.41192E-01  2.24081E-01 -8.28890E-02
    8987.764     -9.869  -0.200  1.47988E-01  2.35650E-01 -8.76617E-02
    8987.818     -9.814  -0.160  1.53673E-01  2.45385E-01 -9.17117E-02
    8987.861     -9.772  -0.120  1.58144E-01  2.53083E-01 -9.49395E-02
    8987.892     -9.741  -0.080  1.61356E-01  2.58631E-01 -9.72752E-02
    8987.916     -9.717   0.000  1.63947E-01  2.63089E-01 -9.91423E-02
    8987.971     -9.662   0.120  1.69373E-01  2.73159E-01 -1.03786E-01
    8988.013     -9.619   0.160  1.73550E-01  2.80984E-01 -1.07434E-01
    8988.068     -9.564   0.200  1.78741E-01  2.90976E-01 -1.12236E-01
    8988.135     -9.497   0.240  1.84762E-01  3.03029E-01 -1.18267E-01
    8988.215     -9.418   0.280  1.91292E-01  3.16892E-01 -1.25601E-01
    8988.306     -9.327   0.320  1.97858E-01  3.32230E-01 -1.34372E-01
    8988.410     -9.223   0.360  2.03895E-01  3.48602E-01 -1.44707E-01
    8988.526     -9.107   0.400  2.08883E-01  3.65601E-01 -1.56718E-01
    8988.654     -8.979   0.440  2.12384E-01  3.82778E-01 -1.70394E-01
    8988.794     -8.839   0.480  2.14378E-01  3.99838E-01 -1.85460E-01
    8988.946     -8.687   0.520  2.15286E-01  4.16562E-01 -2.01276E-01
    8989.111     -8.522   0.560  2.16012E-01  4.32840E-01 -2.16828E-01
    8989.288     -8.345   0.600  2.17797E-01  4.48685E-01 -2.30888E-01
    8989.477     -8.156   0.640  2.21773E-01  4.64129E-01 -2.42357E-01
    8989.678     -7.955   0.680  2.28726E-01  4.79248E-01 -2.50522E-01
    8989.891     -7.742   0.720  2.39042E-01  4.94131E-01 -2.55089E-01
    8990.117     -7.516   0.760  2.52609E-01  5.08825E-01 -2.56216E-01
    8990.354     -7.278   0.800  2.68863E-01  5.23410E-01 -2.54547E-01
    8990.604     -7.029   0.840  2.86813E-01  5.37955E-01 -2.51141E-01
    8990.866     -6.766   0.880  3.05484E-01  5.52518E-01 -2.47034E-01
    8991.141     -6.492   0.920  3.24643E-01  5.67087E-01 -2.42444E-01
    8991.427     -6.206   0.960  3.45996E-01  5.81717E-01 -2.35721E-01
    8991.726     -5.907   1.000  3.73018E-01  5.96439E-01 -2.23422E-01
    8992.037     -5.596   1.040  4.07574E-01  6.11212E-01 -2.03638E-01
    8992.360     -5.273   1.080  4.47080E-01  6.26071E-01 -1.78991E-01
    8992.695     -4.938   1.120  4.84654E-01  6.40983E-01 -1.56328E-01
    8993.043     -4.590   1.160  5.07953E-01  6.55932E-01 -1.47979E-01
    8993.402     -4.230   1.200  5.05796E-01  6.70919E-01 -1.65123E-01
    8993.774     -3.859   1.240  4.87482E-01  6.85919E-01 -1.98437E-01
    8994.158     -3.475   1.280  4.77244E-01  7.00887E-01 -2.23643E-01
    8994.554     -3.078   1.320  4.87933E-01  7.15813E-01 -2.27881E-01
    8994.963     -2.670   1.360  5.15958E-01  7.30648E-01 -2.14690E-01
    8995.384     -2.249   1.400  5.51866E-01  7.45380E-01 -1.93514E-01
    8995.816     -1.816   1.440  5.89046E-01  7.59975E-01 -1.70929E-01
    8996.261     -1.371   1.480  6.25534E-01  7.74380E-01 -1.48846E-01
    8996.719     -0.914   1.520  6.60141E-01  7.88582E-01 -1.28441E-01
    8997.188     -0.445   1.560  6.87994E-01  8.02547E-01 -1.14552E-01
    8997.669      0.037   1.600  7.04470E-01  8.16240E-01 -1.11769E-01
    8998.163      0.530   1.640  7.14949E-01  8.29627E-01 -1.14678E-01
    8998.669      1.036   1.680  7.32103E-01  8.42675E-01 -1.10571E-01
    8999.187      1.555   1.720  7.70112E-01  8.55351E-01 -8.52392E-02
    8999.718      2.085   1.760  8.41308E-01  8.67643E-01 -2.63347E-02
    9000.260      2.627   1.800  9.48273E-01  8.79520E-01  6.87537E-02
    9000.815      3.182   1.840  1.07643E+00  8.90971E-01  1.85461E-01
    9001.382      3.749   1.880  1.20348E+00  9.01968E-01  3.01516E-01
    9001.961      4.328   1.920  1.31140E+00  9.12484E-01  3.98911E-01
    9002.552      4.920   1.960  1.38145E+00  9.22509E-01  4.58946E-01
    9003.156      5.523   2.000  1.41005E+00  9.32040E-01  4.78012E-01
    9003.772      6.139   2.040  1.41175E+00  9.41073E-01  4.70672E-01
    9004.399      6.767   2.080  1.39216E+00  9.49584E-01  4.42580E-01
    9005.040      7.407   2.120  1.34216E+00  9.57572E-01  3.84592E-01
    9005.692      8.059   2.160  1.27121E+00  9.65036E-01  3.06174E-01
    9006.356      8.723   2.200  1.21557E+00  9.71996E-01  2.43570E-01
    9007.033      9.400   2.240  1.19862E+00  9.78435E-01  2.20182E-01
    9007.722     10.089   2.280  1.20410E+00  9.84356E-01  2.19742E-01
    9008.423     10.790   2.320  1.19738E+00  9.89782E-01  2.07602E-01
    9009.136     11.503   2.360  1.17003E+00  9.94698E-01  1.75330E-01
    9009.861     12.229   2.400  1.13250E+00  9.99151E-01  1.33345E-01
    9010.599     12.966   2.440  1.08323E+00  1.00313E+00  8.01049E-02
    9011.349     13.716   2.480  1.02770E+00  1.00665E+00  2.10457E-02
    9012.111     14.478   2.520  9.77923E-01  1.00974E+00 -3.18139E-02
    9012.885     15.252   2.560  9.35692E-01  1.01239E+00 -7.66956E-02
    9013.671     16.039   2.600  9.05546E-01  1.01465E+00 -1.09107E-01
    9014.470     16.837   2.640  9.01980E-01  1.01650E+00 -1.14522E-01
    9015.281     17.648   2.680  9.12899E-01  1.01801E+00 -1.05107E-01
    9016.104     18.471   2.720  9.25300E-01  1.01915E+00 -9.38544E-02
    9016.939     19.306   2.760  9.35059E-01  1.01998E+00 -8.49202E-02
    9017.786     20.153   2.800  9.40936E-01  1.02051E+00 -7.95712E-02
    9018.646     21.013   2.840  9.43185E-01  1.02073E+00 -7.75453E-02
    9019.517     21.885   2.880  9.42911E-01  1.02070E+00 -7.77863E-02
    9020.401     22.769   2.920  9.41535E-01  1.02040E+00 -7.88631E-02
    9021.297     23.665   2.960  9.40551E-01  1.01988E+00 -7.93323E-02
    9022.206     24.573   3.000  9.40541E-01  1.01916E+00 -7.86229E-02
    9023.126     25.493   3.040  9.41477E-01  1.01825E+00 -7.67719E-02
    9024.059     26.426   3.080  9.43118E-01  1.01717E+00 -7.40490E-02
    9025.004     27.371   3.120  9.44851E-01  1.01593E+00 -7.10766E-02
    9025.961     28.328   3.160  9.45668E-01  1.01456E+00 -6.88919E-02
    9026.930     29.297   3.200  9.44755E-01  1.01307E+00 -6.83176E-02
    9027.912     30.279   3.240  9.41720E-01  1.01147E+00 -6.97518E-02
    9028.905     31.272   3.280  9.36871E-01  1.00981E+00 -7.29374E-02
    9029.911     32.278   3.320  9.31425E-01  1.00807E+00 -7.66439E-02
    9030.929     33.296   3.360  9.27024E-01  1.00626E+00 -7.92347E-02
    9031.959     34.327   3.400  9.24874E-01  1.00441E+00 -7.95313E-02
    9033.002     35.369   3.440  9.25237E-01  1.00254E+00 -7.72995E-02
    9034.056     36.424   3.480  9.27778E-01  1.00064E+00 -7.28592E-02
    9035.123     37.490   3.520  9.31972E-01  9.98734E-01 -6.67616E-02
    9036.202     38.569   3.560  9.37296E-01  9.96831E-01 -5.95352E-02
    9037.293     39.661   3.600  9.43394E-01  9.94956E-01 -5.15616E-02
    9038.397     40.764   3.640  9.49905E-01  9.93091E-01 -4.31857E-02
    9039.512     41.879   3.680  9.56500E-01  9.91260E-01 -3.47601E-02
    9040.640     43.007   3.720  9.62921E-01  9.89469E-01 -2.65482E-02
    9041.780     44.147   3.760  9.69187E-01  9.87741E-01 -1.85545E-02
    9042.932     45.299   3.800  9.75324E-01  9.86038E-01 -1.07137E-02
    9044.096     46.464   3.840  9.81418E-01  9.84404E-01 -2.98564E-03
    9045.273     47.640   3.880  9.87498E-01  9.82843E-01  4.65469E-03
    9046.462     48.829   3.920  9.93636E-01  9.81357E-01  1.22785E-02
    9047.663     50.030   3.960  1.00006E+00  9.79949E-01  2.01134E-02
    9048.876     51.243   4.000  1.00720E+00  9.78598E-01  2.86069E-02
    9050.101     52.468   4.040  1.01564E+00  9.77347E-01  3.82883E-02
    9051.338     53.706   4.080  1.02559E+00  9.76178E-01  4.94114E-02
    9052.588     54.955   4.120  1.03672E+00  9.75090E-01  6.16330E-02
    9053.850     56.217   4.160  1.04820E+00  9.74085E-01  7.41102E-02
    9055.124     57.491   4.200  1.05885E+00  9.73164E-01  8.56858E-02
    9056.410     58.778   4.240  1.06770E+00  9.72348E-01  9.53552E-02
    9057.709     60.076   4.280  1.07411E+00  9.71619E-01  1.02491E-01
    9059.019     61.387   4.320  1.07765E+00  9.70996E-01  1.06654E-01
    9060.342     62.709   4.360  1.07779E+00  9.70436E-01  1.07353E-01
    9061.677     64.044   4.400  1.07406E+00  9.69981E-01  1.04076E-01
    9063.024     65.392   4.440  1.06636E+00  9.69632E-01  9.67318E-02
    9064.384     66.751   4.480  1.05509E+00  9.69345E-01  8.57468E-02
    9065.755     68.123   4.520  1.04128E+00  9.69158E-01  7.21255E-02
    9067.139     69.506   4.560  1.02624E+00  9.69033E-01  5.72107E-02
    9068.535     70.902   4.600  1.01126E+00  9.69011E-01  4.22458E-02
    9069.943     72.311   4.640  9.97215E-01  9.69068E-01  2.81468E-02
    9071.364     73.731   4.680  9.84569E-01  9.69201E-01  1.53684E-02
    9072.796     75.163   4.720  9.73246E-01  9.69388E-01  3.85742E-03
    9074.241     76.608   4.760  9.62910E-01  9.69650E-01 -6.73943E-03
    9075.698     78.065   4.800  9.53165E-01  9.69986E-01 -1.68206E-02
    9077.167     79.534   4.840  9.43804E-01  9.70393E-01 -2.65887E-02
    9078.648     81.016   4.880  9.34960E-01  9.70848E-01 -3.58877E-02
    9080.142     82.509   4.920  9.26953E-01  9.71346E-01 -4.43934E-02
    9081.648     84.015   4.960  9.20124E-01  9.71888E-01 -5.17644E-02
    9083.166     85.533   5.000  9.14833E-01  9.72492E-01 -5.76598E-02
    9084.696     87.063   5.040  9.11436E-01  9.73115E-01 -6.16788E-02
    9086.238     88.605   5.080  9.10434E-01  9.73795E-01 -6.33609E-02
    9087.792     90.160   5.120  9.12102E-01  9.74488E-01 -6.23866E-02
    9089.359     91.726   5.160  9.16427E-01  9.75191E-01 -5.87641E-02
    9090.938     93.305   5.200  9.23116E-01  9.75923E-01 -5.28070E-02
    9092.529     94.896   5.240  9.31644E-01  9.76685E-01 -4.50412E-02
    9094.132     96.499   5.280  9.41379E-01  9.77450E-01 -3.60707E-02
    9095.748     98.115   5.320  9.51639E-01  9.78192E-01 -2.65536E-02
    9097.375     99.742   5.360  9.61773E-01  9.78954E-01 -1.71811E-02
    9099.015    101.382   5.400  9.71002E-01  9.79693E-01 -8.69092E-03
    9100.667    103.034   5.440  9.78686E-01  9.80447E-01 -1.76107E-03
    9102.331    104.698   5.480  9.84199E-01  9.81150E-01  3.04899E-03
    9104.008    106.375   5.520  9.87198E-01  9.81864E-01  5.33467E-03
    9105.696    108.063   5.560  9.87294E-01  9.82522E-01  4.77222E-03
    9107.397    109.764   5.600  9.84393E-01  9.83165E-01  1.22787E-03
    9109.110    111.477   5.640  9.78825E-01  9.83771E-01 -4.94637E-03
    9110.835    113.202   5.680  9.71627E-01  9.84338E-01 -1.27103E-02
    9112.573    114.940   5.720  9.64242E-01  9.84861E-01 -2.06196E-02
    9114.322    116.689   5.760  9.57936E-01  9.85319E-01 -2.73831E-02
    9116.084    118.451   5.800  9.53590E-01  9.85755E-01 -3.21652E-02
    9117.858    120.225   5.840  9.51627E-01  9.86123E-01 -3.44968E-02
    9119.644    122.011   5.880  9.52346E-01  9.86443E-01 -3.40978E-02
    9121.442    123.809   5.920  9.55841E-01  9.86689E-01 -3.08475E-02
    9123.253    125.620   5.960  9.62030E-01  9.86872E-01 -2.48424E-02
    9125.075    127.443   6.000  9.70771E-01  9.86947E-01 -1.61758E-02
