# # comment:                                                     FEFF 9.9.1  
# # Source:
# # Structure
# # Reduced
# # space
# # abc:
# # angles:109.471221
# # sites:
# # POT  SCF 100  7.0000   0, screened core-hole, AFOLP (folp(0)= 1.150)
# # Abs   Z=29 Rmt= 1.225 Rnm= 1.297 K  shell
# # Pot 1 Z=29 Rmt= 1.201 Rnm= 1.297
# # Pot 2 Z= 8 Rmt= 1.044 Rnm= 1.121
# # Gam_ch=1.729E+00 H-L exch Vi= 0.000E+00 Vr= 0.000E+00
# # Mu=-7.730E+00eV kf=2.166E+00 Vint=-1.480E+01eV Rs_int= 1.675
# FMS rfms= 9.0000
# # PATH  Rmax=-1.000,  Keep_limit= 0.00, Heap_limit 0.00  Pwcrit= 2.50%
#  S02=0.950  Temp=   0.00  Debye_temp=   0.00  Global_sig2= 0.00000
#  Energy zero shift, vr, vi    0.00000E+00   0.00000E+00
#  Curved wave amplitude ratio filter   4.000%
#     file         sig2 tot  cw amp ratio   deg  nlegs   reff  inp sig2
#     0/   0 paths used
#  xsedge+ 50, used to normalize mu           2.4366E-04
#  -----------------------------------------------------------------------
#  omega    e    k    mu    mu0     chi     @#
    8983.496    -11.540  -1.000  2.97045E-02  5.40759E-02 -2.43714E-02
    8983.795    -11.242  -0.960  3.09492E-02  5.79426E-02 -2.69934E-02
    8984.082    -10.955  -0.920  3.22797E-02  6.22302E-02 -2.99506E-02
    8984.356    -10.681  -0.880  3.37083E-02  6.69997E-02 -3.32914E-02
    8984.618    -10.419  -0.840  3.52496E-02  7.23216E-02 -3.70720E-02
    8984.868    -10.169  -0.800  3.69211E-02  7.82776E-02 -4.13565E-02
    8985.106     -9.931  -0.760  3.87437E-02  8.49612E-02 -4.62176E-02
    8985.331     -9.705  -0.720  4.07415E-02  9.24781E-02 -5.17366E-02
    8985.545     -9.492  -0.680  4.29418E-02  1.00944E-01 -5.80021E-02
    8985.746     -9.291  -0.640  4.53744E-02  1.10481E-01 -6.51064E-02
    8985.935     -9.102  -0.600  4.80690E-02  1.21208E-01 -7.31391E-02
    8986.112     -8.925  -0.560  5.10516E-02  1.33227E-01 -8.21758E-02
    8986.276     -8.760  -0.520  5.43380E-02  1.46598E-01 -9.22600E-02
    8986.429     -8.608  -0.480  5.79249E-02  1.61304E-01 -1.03380E-01
    8986.569     -8.468  -0.440  6.17795E-02  1.77218E-01 -1.15439E-01
    8986.697     -8.340  -0.400  6.58314E-02  1.94066E-01 -1.28235E-01
    8986.813     -8.224  -0.360  6.99707E-02  2.11419E-01 -1.41449E-01
    8986.916     -8.120  -0.320  7.40567E-02  2.28720E-01 -1.54663E-01
    8987.008     -8.029  -0.280  7.79380E-02  2.45349E-01 -1.67411E-01
    8987.087     -7.950  -0.240  8.14757E-02  2.60709E-01 -1.79233E-01
    8987.154     -7.883  -0.200  8.45623E-02  2.74294E-01 -1.89732E-01
    8987.209     -7.828  -0.160  8.71288E-02  2.85735E-01 -1.98606E-01
    8987.252     -7.785  -0.120  8.91404E-02  2.94788E-01 -2.05647E-01
    8987.282     -7.755  -0.080  9.05856E-02  3.01316E-01 -2.10731E-01
    8987.306     -7.730   0.000  9.17620E-02  3.06566E-01 -2.14804E-01
    8987.361     -7.675   0.120  9.43931E-02  3.18419E-01 -2.24026E-01
    8987.404     -7.633   0.160  9.63493E-02  3.27649E-01 -2.31299E-01
    8987.459     -7.578   0.200  9.87405E-02  3.39444E-01 -2.40703E-01
    8987.526     -7.511   0.240  1.01486E-01  3.53665E-01 -2.52180E-01
    8987.605     -7.432   0.280  1.04467E-01  3.70081E-01 -2.65614E-01
    8987.697     -7.340   0.320  1.07461E-01  3.88293E-01 -2.80832E-01
    8987.800     -7.237   0.360  1.10183E-01  4.07806E-01 -2.97623E-01
    8987.916     -7.121   0.400  1.12366E-01  4.28113E-01 -3.15746E-01
    8988.044     -6.993   0.440  1.13710E-01  4.48749E-01 -3.35038E-01
    8988.184     -6.852   0.480  1.14008E-01  4.69332E-01 -3.55324E-01
    8988.337     -6.700   0.520  1.13280E-01  4.89632E-01 -3.76352E-01
    8988.501     -6.535   0.560  1.11750E-01  5.09498E-01 -3.97748E-01
    8988.678     -6.359   0.600  1.10025E-01  5.28918E-01 -4.18893E-01
    8988.867     -6.170   0.640  1.08681E-01  5.47916E-01 -4.39235E-01
    8989.068     -5.969   0.680  1.08237E-01  5.66550E-01 -4.58314E-01
    8989.281     -5.755   0.720  1.09035E-01  5.84910E-01 -4.75874E-01
    8989.507     -5.530   0.760  1.11252E-01  6.03018E-01 -4.91766E-01
    8989.745     -5.292   0.800  1.15062E-01  6.20933E-01 -5.05871E-01
    8989.995     -5.042   0.840  1.20784E-01  6.38716E-01 -5.17932E-01
    8990.257     -4.780   0.880  1.28806E-01  6.56379E-01 -5.27573E-01
    8990.531     -4.506   0.920  1.39557E-01  6.73898E-01 -5.34341E-01
    8990.818     -4.219   0.960  1.53213E-01  6.91319E-01 -5.38106E-01
    8991.116     -3.920   1.000  1.68783E-01  7.08597E-01 -5.39814E-01
    8991.427     -3.609   1.040  1.84219E-01  7.25721E-01 -5.41502E-01
    8991.750     -3.286   1.080  1.98073E-01  7.42651E-01 -5.44578E-01
    8992.086     -2.951   1.120  2.10374E-01  7.59342E-01 -5.48968E-01
    8992.433     -2.604   1.160  2.21635E-01  7.75766E-01 -5.54130E-01
    8992.793     -2.244   1.200  2.32762E-01  7.91890E-01 -5.59128E-01
    8993.165     -1.872   1.240  2.44911E-01  8.07641E-01 -5.62731E-01
    8993.549     -1.488   1.280  2.62658E-01  8.23026E-01 -5.60368E-01
    8993.945     -1.092   1.320  2.92381E-01  8.37948E-01 -5.45567E-01
    8994.353     -0.683   1.360  3.35245E-01  8.52390E-01 -5.17145E-01
    8994.774     -0.263   1.400  3.82860E-01  8.66340E-01 -4.83480E-01
    8995.207      0.170   1.440  4.23476E-01  8.79724E-01 -4.56248E-01
    8995.652      0.615   1.480  4.55675E-01  8.92530E-01 -4.36854E-01
    8996.109      1.072   1.520  4.86434E-01  9.04747E-01 -4.18314E-01
    8996.578      1.542   1.560  5.22529E-01  9.16328E-01 -3.93799E-01
    8997.060      2.023   1.600  5.75472E-01  9.27267E-01 -3.51795E-01
    8997.554      2.517   1.640  6.63847E-01  9.37581E-01 -2.73734E-01
    8998.060      3.023   1.680  8.03570E-01  9.47226E-01 -1.43656E-01
    8998.578      3.541   1.720  9.97774E-01  9.56203E-01  4.15703E-02
    8999.108      4.072   1.760  1.22638E+00  9.64536E-01  2.61839E-01
    8999.651      4.614   1.800  1.45197E+00  9.72228E-01  4.79741E-01
    9000.205      5.169   1.840  1.63546E+00  9.79287E-01  6.56175E-01
    9000.772      5.736   1.880  1.75957E+00  9.85698E-01  7.73870E-01
    9001.352      6.315   1.920  1.83151E+00  9.91532E-01  8.39973E-01
    9001.943      6.906   1.960  1.84067E+00  9.96759E-01  8.43913E-01
    9002.546      7.510   2.000  1.80553E+00  1.00143E+00  8.04099E-01
    9003.162      8.125   2.040  1.76036E+00  1.00556E+00  7.54796E-01
    9003.790      8.753   2.080  1.70116E+00  1.00916E+00  6.92008E-01
    9004.430      9.393   2.120  1.62999E+00  1.01228E+00  6.17708E-01
    9005.082     10.046   2.160  1.55250E+00  1.01492E+00  5.37581E-01
    9005.747     10.710   2.200  1.46862E+00  1.01713E+00  4.51488E-01
    9006.423     11.387   2.240  1.37152E+00  1.01893E+00  3.52589E-01
    9007.112     12.076   2.280  1.25738E+00  1.02038E+00  2.37006E-01
    9007.813     12.777   2.320  1.14579E+00  1.02144E+00  1.24354E-01
    9008.526     13.490   2.360  1.05888E+00  1.02221E+00  3.66672E-02
    9009.252     14.215   2.400  1.00158E+00  1.02265E+00 -2.10662E-02
    9009.990     14.953   2.440  9.64101E-01  1.02285E+00 -5.87488E-02
    9010.739     15.703   2.480  9.38818E-01  1.02280E+00 -8.39837E-02
    9011.501     16.465   2.520  9.33942E-01  1.02252E+00 -8.85738E-02
    9012.276     17.239   2.560  9.56702E-01  1.02205E+00 -6.53464E-02
    9013.062     18.025   2.600  9.93671E-01  1.02139E+00 -2.77200E-02
    9013.860     18.824   2.640  1.02330E+00  1.02060E+00  2.70284E-03
    9014.671     19.635   2.680  1.04124E+00  1.01967E+00  2.15688E-02
    9015.494     20.458   2.720  1.04474E+00  1.01865E+00  2.60856E-02
    9016.329     21.293   2.760  1.03629E+00  1.01752E+00  1.87746E-02
    9017.177     22.140   2.800  1.02078E+00  1.01631E+00  4.47382E-03
    9018.036     23.000   2.840  1.00259E+00  1.01505E+00 -1.24564E-02
    9018.908     23.871   2.880  9.83968E-01  1.01374E+00 -2.97756E-02
    9019.792     24.755   2.920  9.64931E-01  1.01243E+00 -4.74946E-02
    9020.688     25.651   2.960  9.44984E-01  1.01108E+00 -6.60933E-02
    9021.596     26.560   3.000  9.23740E-01  1.00973E+00 -8.59871E-02
    9022.517     27.480   3.040  9.01013E-01  1.00840E+00 -1.07387E-01
    9023.449     28.413   3.080  8.77064E-01  1.00708E+00 -1.30015E-01
    9024.394     29.358   3.120  8.52439E-01  1.00577E+00 -1.53334E-01
    9025.351     30.315   3.160  8.28186E-01  1.00452E+00 -1.76337E-01
    9026.321     31.284   3.200  8.06349E-01  1.00329E+00 -1.96945E-01
    9027.302     32.265   3.240  7.89191E-01  1.00213E+00 -2.12940E-01
    9028.296     33.259   3.280  7.77821E-01  1.00104E+00 -2.23220E-01
    9029.302     34.265   3.320  7.72294E-01  9.99999E-01 -2.27705E-01
    9030.320     35.283   3.360  7.72384E-01  9.99031E-01 -2.26647E-01
    9031.350     36.313   3.400  7.77340E-01  9.98117E-01 -2.20777E-01
    9032.392     37.356   3.440  7.86960E-01  9.97281E-01 -2.10321E-01
    9033.447     38.410   3.480  8.01342E-01  9.96545E-01 -1.95203E-01
    9034.514     39.477   3.520  8.20263E-01  9.95868E-01 -1.75605E-01
    9035.593     40.556   3.560  8.43081E-01  9.95272E-01 -1.52191E-01
    9036.684     41.647   3.600  8.69106E-01  9.94756E-01 -1.25650E-01
    9037.787     42.750   3.640  8.97542E-01  9.94344E-01 -9.68022E-02
    9038.903     43.866   3.680  9.27560E-01  9.93993E-01 -6.64332E-02
    9040.030     44.994   3.720  9.58732E-01  9.93723E-01 -3.49906E-02
    9041.170     46.134   3.760  9.90915E-01  9.93556E-01 -2.64102E-03
    9042.323     47.286   3.800  1.02365E+00  9.93450E-01  3.02009E-02
    9043.487     48.450   3.840  1.05610E+00  9.93445E-01  6.26547E-02
    9044.663     49.627   3.880  1.08708E+00  9.93500E-01  9.35817E-02
    9045.852     50.815   3.920  1.11514E+00  9.93654E-01  1.21490E-01
    9047.053     52.016   3.960  1.13838E+00  9.93865E-01  1.44513E-01
    9048.266     53.229   4.000  1.15488E+00  9.94150E-01  1.60728E-01
    9049.491     54.455   4.040  1.16304E+00  9.94487E-01  1.68552E-01
    9050.729     55.692   4.080  1.16232E+00  9.94898E-01  1.67426E-01
    9051.979     56.942   4.120  1.15380E+00  9.95382E-01  1.58415E-01
    9053.240     58.204   4.160  1.13983E+00  9.95914E-01  1.43920E-01
    9054.515     59.478   4.200  1.12302E+00  9.96514E-01  1.26505E-01
    9055.801     60.764   4.240  1.10533E+00  9.97136E-01  1.08192E-01
    9057.099     62.063   4.280  1.08821E+00  9.97823E-01  9.03892E-02
    9058.410     63.373   4.320  1.07265E+00  9.98549E-01  7.40985E-02
    9059.733     64.696   4.360  1.05927E+00  9.99291E-01  5.99833E-02
    9061.068     66.031   4.400  1.04829E+00  1.00009E+00  4.81986E-02
    9062.415     67.378   4.440  1.03936E+00  1.00091E+00  3.84573E-02
    9063.774     68.738   4.480  1.03209E+00  1.00175E+00  3.03398E-02
    9065.146     70.109   4.520  1.02627E+00  1.00260E+00  2.36704E-02
    9066.530     71.493   4.560  1.02210E+00  1.00346E+00  1.86401E-02
    9067.926     72.889   4.600  1.02005E+00  1.00434E+00  1.57073E-02
    9069.334     74.297   4.640  1.02053E+00  1.00522E+00  1.53095E-02
    9070.754     75.718   4.680  1.02359E+00  1.00608E+00  1.75087E-02
    9072.187     77.150   4.720  1.02856E+00  1.00696E+00  2.16031E-02
    9073.631     78.595   4.760  1.03399E+00  1.00781E+00  2.61818E-02
    9075.088     80.052   4.800  1.03812E+00  1.00865E+00  2.94719E-02
    9076.558     81.521   4.840  1.03937E+00  1.00948E+00  2.98967E-02
    9078.039     83.002   4.880  1.03703E+00  1.01025E+00  2.67771E-02
    9079.532     84.496   4.920  1.03158E+00  1.01101E+00  2.05674E-02
    9081.038     86.001   4.960  1.02418E+00  1.01176E+00  1.24258E-02
    9082.556     87.519   5.000  1.01604E+00  1.01244E+00  3.60046E-03
    9084.086     89.049   5.040  1.00815E+00  1.01311E+00 -4.95619E-03
    9085.628     90.592   5.080  1.00111E+00  1.01371E+00 -1.25983E-02
    9087.183     92.146   5.120  9.95318E-01  1.01426E+00 -1.89426E-02
    9088.750     93.713   5.160  9.90826E-01  1.01477E+00 -2.39455E-02
    9090.328     95.292   5.200  9.87081E-01  1.01524E+00 -2.81556E-02
    9091.919     96.883   5.240  9.82914E-01  1.01565E+00 -3.27404E-02
    9093.523     98.486   5.280  9.77155E-01  1.01600E+00 -3.88479E-02
    9095.138    100.101   5.320  9.69445E-01  1.01630E+00 -4.68581E-02
    9096.766    101.729   5.360  9.60433E-01  1.01655E+00 -5.61217E-02
    9098.406    103.369   5.400  9.51009E-01  1.01673E+00 -6.57233E-02
    9100.058    105.021   5.440  9.41869E-01  1.01684E+00 -7.49662E-02
    9101.722    106.685   5.480  9.33642E-01  1.01689E+00 -8.32480E-02
    9103.398    108.361   5.520  9.27260E-01  1.01690E+00 -8.96357E-02
    9105.087    110.050   5.560  9.23703E-01  1.01683E+00 -9.31272E-02
    9106.787    111.751   5.600  9.23347E-01  1.01671E+00 -9.33662E-02
    9108.500    113.464   5.640  9.25238E-01  1.01653E+00 -9.12878E-02
    9110.226    115.189   5.680  9.27549E-01  1.01629E+00 -8.87429E-02
    9111.963    116.926   5.720  9.28864E-01  1.01601E+00 -8.71479E-02
    9113.713    118.676   5.760  9.29459E-01  1.01566E+00 -8.62036E-02
    9115.474    120.438   5.800  9.31253E-01  1.01527E+00 -8.40162E-02
    9117.248    122.212   5.840  9.36413E-01  1.01483E+00 -7.84190E-02
    9119.034    123.998   5.880  9.46187E-01  1.01433E+00 -6.81446E-02
    9120.833    125.796   5.920  9.60703E-01  1.01382E+00 -5.31148E-02
    9122.643    127.606   5.960  9.79103E-01  1.01324E+00 -3.41402E-02
    9124.466    129.429   6.000  1.00094E+00  1.01262E+00 -1.16865E-02
