# # comment:                                                     FEFF 9.9.1  
# # Source:
# # Structure
# # Reduced
# # space
# # abc:
# # angles:
# # sites:
# # POT  SCF 100  7.0000   0, screened core-hole, AFOLP (folp(0)= 1.150)
# # Abs   Z=29 Rmt= 1.275 Rnm= 1.382 K  shell
# # Pot 1 Z= 3 Rmt= 1.252 Rnm= 1.312
# # Pot 2 Z=29 Rmt= 1.332 Rnm= 1.396
# # Pot 3 Z=15 Rmt= 0.945 Rnm= 1.156
# # Pot 4 Z= 8 Rmt= 0.915 Rnm= 1.039
# # Gam_ch=1.729E+00 H-L exch Vi= 0.000E+00 Vr= 0.000E+00
# # Mu=-6.042E+00eV kf=2.367E+00 Vint=-1.723E+01eV Rs_int= 1.532
# FMS rfms= 9.0000
# # PATH  Rmax=-1.000,  Keep_limit= 0.00, Heap_limit 0.00  Pwcrit= 2.50%
#  S02=0.950  Temp=   0.00  Debye_temp=   0.00  Global_sig2= 0.00000
#  Energy zero shift, vr, vi    0.00000E+00   0.00000E+00
#  Curved wave amplitude ratio filter   4.000%
#     file         sig2 tot  cw amp ratio   deg  nlegs   reff  inp sig2
#     0/   0 paths used
#  xsedge+ 50, used to normalize mu           2.4764E-04
#  -----------------------------------------------------------------------
#  omega    e    k    mu    mu0     chi     @#
    8983.818     -9.852  -1.000  5.64641E-02  5.62865E-02  1.77585E-04
    8984.116     -9.554  -0.960  6.07456E-02  6.04758E-02  2.69862E-04
    8984.403     -9.267  -0.920  6.55379E-02  6.51414E-02  3.96479E-04
    8984.677     -8.993  -0.880  7.09217E-02  7.03546E-02  5.67115E-04
    8984.939     -8.731  -0.840  7.69920E-02  7.61983E-02  7.93686E-04
    8985.189     -8.481  -0.800  8.38598E-02  8.27691E-02  1.09069E-03
    8985.427     -8.243  -0.760  9.16531E-02  9.01776E-02  1.47551E-03
    8985.652     -8.018  -0.720  1.00518E-01  9.85491E-02  1.96860E-03
    8985.866     -7.804  -0.680  1.10615E-01  1.08022E-01  2.59340E-03
    8986.067     -7.603  -0.640  1.22118E-01  1.18742E-01  3.37578E-03
    8986.256     -7.414  -0.600  1.35197E-01  1.30854E-01  4.34284E-03
    8986.433     -7.237  -0.560  1.50002E-01  1.44481E-01  5.52056E-03
    8986.597     -7.073  -0.520  1.66627E-01  1.59697E-01  6.93016E-03
    8986.750     -6.920  -0.480  1.85070E-01  1.76487E-01  8.58303E-03
    8986.890     -6.780  -0.440  2.05178E-01  1.94703E-01  1.04748E-02
    8987.018     -6.652  -0.400  2.26605E-01  2.14026E-01  1.25797E-02
    8987.134     -6.536  -0.360  2.48797E-01  2.33950E-01  1.48475E-02
    8987.237     -6.433  -0.320  2.71025E-01  2.53820E-01  1.72051E-02
    8987.329     -6.341  -0.280  2.92473E-01  2.72910E-01  1.95627E-02
    8987.408     -6.262  -0.240  3.12346E-01  2.90523E-01  2.18231E-02
    8987.475     -6.195  -0.200  3.29969E-01  3.06076E-01  2.38925E-02
    8987.530     -6.140  -0.160  3.44837E-01  3.19149E-01  2.56880E-02
    8987.573     -6.097  -0.120  3.56616E-01  3.29475E-01  2.71410E-02
    8987.603     -6.067  -0.080  3.65106E-01  3.36908E-01  2.81975E-02
    8987.627     -6.042   0.000  3.71891E-01  3.42877E-01  2.90140E-02
    8987.682     -5.988   0.120  3.87152E-01  3.56319E-01  3.08334E-02
    8987.725     -5.945   0.160  3.99152E-01  3.66751E-01  3.24016E-02
    8987.780     -5.890   0.200  4.14557E-01  3.80053E-01  3.45036E-02
    8987.847     -5.823   0.240  4.33177E-01  3.96026E-01  3.71509E-02
    8987.926     -5.744   0.280  4.54600E-01  4.14303E-01  4.02961E-02
    8988.018     -5.652   0.320  4.78161E-01  4.34385E-01  4.37761E-02
    8988.121     -5.549   0.360  5.02897E-01  4.55675E-01  4.72219E-02
    8988.237     -5.433   0.400  5.27437E-01  4.77475E-01  4.99613E-02
    8988.365     -5.305   0.440  5.50145E-01  4.99193E-01  5.09523E-02
    8988.505     -5.165   0.480  5.69209E-01  5.20369E-01  4.88400E-02
    8988.658     -5.012   0.520  5.82903E-01  5.40710E-01  4.21932E-02
    8988.822     -4.848   0.560  5.89968E-01  5.60062E-01  2.99059E-02
    8988.999     -4.671   0.600  5.90054E-01  5.78395E-01  1.16586E-02
    8989.188     -4.482   0.640  5.84166E-01  5.95775E-01 -1.16089E-02
    8989.389     -4.281   0.680  5.74866E-01  6.12315E-01 -3.74488E-02
    8989.603     -4.067   0.720  5.65801E-01  6.28120E-01 -6.23191E-02
    8989.828     -3.842   0.760  5.60462E-01  6.43299E-01 -8.28373E-02
    8990.066     -3.604   0.800  5.60355E-01  6.57949E-01 -9.75932E-02
    8990.316     -3.354   0.840  5.63411E-01  6.72169E-01 -1.08758E-01
    8990.578     -3.092   0.880  5.64936E-01  6.86050E-01 -1.21114E-01
    8990.852     -2.818   0.920  5.62507E-01  6.99604E-01 -1.37097E-01
    8991.139     -2.531   0.960  5.59563E-01  7.12909E-01 -1.53346E-01
    8991.437     -2.232   1.000  5.61533E-01  7.25993E-01 -1.64460E-01
    8991.748     -1.922   1.040  5.69767E-01  7.38855E-01 -1.69088E-01
    8992.071     -1.598   1.080  5.81195E-01  7.51543E-01 -1.70348E-01
    8992.407     -1.263   1.120  5.92902E-01  7.64038E-01 -1.71136E-01
    8992.754     -0.916   1.160  6.04417E-01  7.76337E-01 -1.71920E-01
    8993.114     -0.556   1.200  6.17525E-01  7.88451E-01 -1.70927E-01
    8993.486     -0.184   1.240  6.36023E-01  8.00347E-01 -1.64324E-01
    8993.870      0.200   1.280  6.65113E-01  8.12047E-01 -1.46934E-01
    8994.266      0.596   1.320  7.09414E-01  8.23515E-01 -1.14102E-01
    8994.674      1.004   1.360  7.70462E-01  8.34730E-01 -6.42684E-02
    8995.095      1.425   1.400  8.44109E-01  8.45689E-01 -1.57996E-03
    8995.528      1.858   1.440  9.20600E-01  8.56391E-01  6.42087E-02
    8995.973      2.303   1.480  9.94502E-01  8.66770E-01  1.27732E-01
    8996.430      2.760   1.520  1.07161E+00  8.76862E-01  1.94752E-01
    8996.899      3.230   1.560  1.15108E+00  8.86624E-01  2.64457E-01
    8997.381      3.711   1.600  1.20910E+00  8.96031E-01  3.13070E-01
    8997.875      4.205   1.640  1.22915E+00  9.05101E-01  3.24045E-01
    8998.381      4.711   1.680  1.22107E+00  9.13808E-01  3.07263E-01
    8998.899      5.229   1.720  1.19292E+00  9.22151E-01  2.70769E-01
    8999.429      5.759   1.760  1.14885E+00  9.30107E-01  2.18740E-01
    8999.972      6.302   1.800  1.09810E+00  9.37675E-01  1.60426E-01
    9000.527      6.857   1.840  1.05187E+00  9.44854E-01  1.07019E-01
    9001.094      7.424   1.880  1.02111E+00  9.51641E-01  6.94639E-02
    9001.673      8.003   1.920  1.00855E+00  9.58039E-01  5.05084E-02
    9002.264      8.594   1.960  1.00791E+00  9.64028E-01  4.38777E-02
    9002.867      9.197   2.000  1.01051E+00  9.69631E-01  4.08764E-02
    9003.483      9.813   2.040  1.01221E+00  9.74850E-01  3.73587E-02
    9004.111     10.441   2.080  1.01470E+00  9.79668E-01  3.50295E-02
    9004.751     11.081   2.120  1.02103E+00  9.84130E-01  3.68984E-02
    9005.403     11.733   2.160  1.03139E+00  9.88219E-01  4.31673E-02
    9006.068     12.398   2.200  1.04403E+00  9.91940E-01  5.20855E-02
    9006.744     13.075   2.240  1.05727E+00  9.95298E-01  6.19678E-02
    9007.433     13.763   2.280  1.06811E+00  9.98342E-01  6.97708E-02
    9008.134     14.464   2.320  1.07163E+00  1.00104E+00  7.05898E-02
    9008.848     15.178   2.360  1.06530E+00  1.00343E+00  6.18780E-02
    9009.573     15.903   2.400  1.05059E+00  1.00552E+00  4.50695E-02
    9010.311     16.641   2.440  1.03130E+00  1.00733E+00  2.39761E-02
    9011.060     17.390   2.480  1.01078E+00  1.00885E+00  1.92853E-03
    9011.822     18.152   2.520  9.92103E-01  1.01012E+00 -1.80203E-02
    9012.597     18.927   2.560  9.77609E-01  1.01113E+00 -3.35163E-02
    9013.383     19.713   2.600  9.67345E-01  1.01193E+00 -4.45859E-02
    9014.182     20.512   2.640  9.60740E-01  1.01250E+00 -5.17641E-02
    9014.992     21.322   2.680  9.60176E-01  1.01287E+00 -5.26983E-02
    9015.815     22.145   2.720  9.70318E-01  1.01307E+00 -4.27498E-02
    9016.650     22.980   2.760  9.94623E-01  1.01309E+00 -1.84690E-02
    9017.498     23.828   2.800  1.02303E+00  1.01293E+00  1.00935E-02
    9018.357     24.687   2.840  1.04169E+00  1.01266E+00  2.90266E-02
    9019.229     25.559   2.880  1.04643E+00  1.01224E+00  3.41926E-02
    9020.113     26.443   2.920  1.03991E+00  1.01170E+00  2.82125E-02
    9021.009     27.339   2.960  1.02778E+00  1.01106E+00  1.67148E-02
    9021.917     28.247   3.000  1.01464E+00  1.01034E+00  4.30643E-03
    9022.838     29.168   3.040  1.00292E+00  1.00951E+00 -6.58486E-03
    9023.771     30.101   3.080  9.93065E-01  1.00862E+00 -1.55585E-02
    9024.715     31.045   3.120  9.84659E-01  1.00769E+00 -2.30280E-02
    9025.672     32.003   3.160  9.77143E-01  1.00668E+00 -2.95415E-02
    9026.642     32.972   3.200  9.70032E-01  1.00566E+00 -3.56280E-02
    9027.623     33.953   3.240  9.62988E-01  1.00458E+00 -4.15911E-02
    9028.617     34.947   3.280  9.56223E-01  1.00351E+00 -4.72838E-02
    9029.623     35.953   3.320  9.49942E-01  1.00241E+00 -5.24645E-02
    9030.641     36.971   3.360  9.44496E-01  1.00130E+00 -5.68064E-02
    9031.671     38.001   3.400  9.40175E-01  1.00020E+00 -6.00228E-02
    9032.713     39.043   3.440  9.37206E-01  9.99095E-01 -6.18884E-02
    9033.768     40.098   3.480  9.35846E-01  9.98018E-01 -6.21722E-02
    9034.835     41.165   3.520  9.36351E-01  9.96952E-01 -6.06006E-02
    9035.914     42.244   3.560  9.38864E-01  9.95919E-01 -5.70552E-02
    9037.005     43.335   3.600  9.43198E-01  9.94921E-01 -5.17237E-02
    9038.108     44.438   3.640  9.49097E-01  9.93961E-01 -4.48638E-02
    9039.224     45.554   3.680  9.56246E-01  9.93040E-01 -3.67939E-02
    9040.352     46.682   3.720  9.64270E-01  9.92158E-01 -2.78887E-02
    9041.492     47.822   3.760  9.72767E-01  9.91317E-01 -1.85506E-02
    9042.644     48.974   3.800  9.81379E-01  9.90519E-01 -9.13954E-03
    9043.808     50.138   3.840  9.89746E-01  9.89765E-01 -1.95772E-05
    9044.985     51.315   3.880  9.97493E-01  9.89077E-01  8.41624E-03
    9046.173     52.503   3.920  1.00423E+00  9.88437E-01  1.57924E-02
    9047.374     53.704   3.960  1.00967E+00  9.87865E-01  2.18097E-02
    9048.587     54.917   4.000  1.01358E+00  9.87341E-01  2.62435E-02
    9049.813     56.143   4.040  1.01596E+00  9.86887E-01  2.90775E-02
    9051.050     57.380   4.080  1.01701E+00  9.86479E-01  3.05318E-02
    9052.300     58.630   4.120  1.01712E+00  9.86118E-01  3.09984E-02
    9053.562     59.892   4.160  1.01675E+00  9.85825E-01  3.09229E-02
    9054.836     61.166   4.200  1.01629E+00  9.85580E-01  3.07056E-02
    9056.122     62.452   4.240  1.01595E+00  9.85403E-01  3.05441E-02
    9057.420     63.750   4.280  1.01572E+00  9.85273E-01  3.04472E-02
    9058.731     65.061   4.320  1.01553E+00  9.85188E-01  3.03445E-02
    9060.054     66.384   4.360  1.01528E+00  9.85170E-01  3.01072E-02
    9061.389     67.719   4.400  1.01477E+00  9.85196E-01  2.95747E-02
    9062.736     69.066   4.440  1.01386E+00  9.85264E-01  2.85945E-02
    9064.095     70.425   4.480  1.01249E+00  9.85376E-01  2.71142E-02
    9065.467     71.797   4.520  1.01081E+00  9.85550E-01  2.52606E-02
    9066.851     73.181   4.560  1.00908E+00  9.85742E-01  2.33365E-02
    9068.247     74.577   4.600  1.00764E+00  9.85974E-01  2.16686E-02
    9069.655     75.985   4.640  1.00661E+00  9.86265E-01  2.03486E-02
    9071.075     77.405   4.680  1.00580E+00  9.86571E-01  1.92281E-02
    9072.508     78.838   4.720  1.00496E+00  9.86911E-01  1.80513E-02
    9073.953     80.283   4.760  1.00388E+00  9.87262E-01  1.66177E-02
    9075.410     81.740   4.800  1.00259E+00  9.87645E-01  1.49451E-02
    9076.879     83.209   4.840  1.00136E+00  9.88059E-01  1.32975E-02
    9078.360     84.690   4.880  1.00048E+00  9.88481E-01  1.20015E-02
    9079.853     86.184   4.920  1.00012E+00  9.88907E-01  1.12131E-02
    9081.359     87.689   4.960  1.00015E+00  9.89362E-01  1.07877E-02
    9082.877     89.207   5.000  1.00020E+00  9.89819E-01  1.03801E-02
    9084.407     90.737   5.040  9.99957E-01  9.90277E-01  9.68040E-03
    9085.949     92.280   5.080  9.99215E-01  9.90734E-01  8.48082E-03
    9087.504     93.834   5.120  9.97727E-01  9.91188E-01  6.53848E-03
    9089.071     95.401   5.160  9.95089E-01  9.91618E-01  3.47152E-03
    9090.649     96.980   5.200  9.90981E-01  9.92064E-01 -1.08228E-03
    9092.241     98.571   5.240  9.85324E-01  9.92483E-01 -7.15979E-03
    9093.844    100.174   5.280  9.78566E-01  9.92896E-01 -1.43302E-02
    9095.459    101.789   5.320  9.71443E-01  9.93299E-01 -2.18556E-02
    9097.087    103.417   5.360  9.64640E-01  9.93647E-01 -2.90076E-02
    9098.727    105.057   5.400  9.58733E-01  9.94006E-01 -3.52727E-02
    9100.379    106.709   5.440  9.53894E-01  9.94308E-01 -4.04136E-02
    9102.043    108.373   5.480  9.50354E-01  9.94597E-01 -4.42432E-02
    9103.719    110.049   5.520  9.48350E-01  9.94852E-01 -4.65014E-02
    9105.408    111.738   5.560  9.48237E-01  9.95090E-01 -4.68533E-02
    9107.109    113.439   5.600  9.50210E-01  9.95270E-01 -4.50595E-02
    9108.822    115.152   5.640  9.54298E-01  9.95433E-01 -4.11345E-02
    9110.547    116.877   5.680  9.60026E-01  9.95556E-01 -3.55300E-02
    9112.284    118.614   5.720  9.66506E-01  9.95617E-01 -2.91111E-02
    9114.034    120.364   5.760  9.72794E-01  9.95660E-01 -2.28669E-02
    9115.795    122.125   5.800  9.78145E-01  9.95664E-01 -1.75190E-02
    9117.569    123.899   5.840  9.82326E-01  9.95605E-01 -1.32790E-02
    9119.355    125.685   5.880  9.85665E-01  9.95530E-01 -9.86420E-03
    9121.154    127.484   5.920  9.88655E-01  9.95415E-01 -6.75995E-03
    9122.964    129.294   5.960  9.91687E-01  9.95233E-01 -3.54588E-03
    9124.787    131.117   6.000  9.95031E-01  9.95008E-01  2.26817E-05
