# # comment:                                                     FEFF 9.9.1  
# # Source:
# # Structure
# # Reduced
# # space
# # abc:
# # angles:108.672349
# # sites:
# # POT  SCF 100  7.0000   0, screened core-hole, AFOLP (folp(0)= 1.150)
# # Abs   Z=29 Rmt= 1.307 Rnm= 1.383 K  shell
# # Pot 1 Z=29 Rmt= 1.303 Rnm= 1.376
# # Pot 2 Z= 8 Rmt= 1.023 Rnm= 1.129
# # Pot 3 Z= 9 Rmt= 1.069 Rnm= 1.139
# # Gam_ch=1.729E+00 H-L exch Vi= 0.000E+00 Vr= 0.000E+00
# # Mu=-7.009E+00eV kf=2.019E+00 Vint=-1.291E+01eV Rs_int= 1.796
# FMS rfms= 9.0000
# # PATH  Rmax=-1.000,  Keep_limit= 0.00, Heap_limit 0.00  Pwcrit= 2.50%
#  S02=0.950  Temp=   0.00  Debye_temp=   0.00  Global_sig2= 0.00000
#  Energy zero shift, vr, vi    0.00000E+00   0.00000E+00
#  Curved wave amplitude ratio filter   4.000%
#     file         sig2 tot  cw amp ratio   deg  nlegs   reff  inp sig2
#     0/   0 paths used
#  xsedge+ 50, used to normalize mu           2.4353E-04
#  -----------------------------------------------------------------------
#  omega    e    k    mu    mu0     chi     @#
    8983.379    -10.819  -1.000  3.47270E-02  5.49687E-02 -2.02417E-02
    8983.678    -10.521  -0.960  3.62329E-02  5.89112E-02 -2.26783E-02
    8983.965    -10.234  -0.920  3.78202E-02  6.32807E-02 -2.54604E-02
    8984.239     -9.960  -0.880  3.94959E-02  6.81383E-02 -2.86424E-02
    8984.501     -9.698  -0.840  4.12677E-02  7.35550E-02 -3.22873E-02
    8984.751     -9.448  -0.800  4.31447E-02  7.96127E-02 -3.64679E-02
    8984.989     -9.210  -0.760  4.51374E-02  8.64048E-02 -4.12674E-02
    8985.214     -8.984  -0.720  4.72576E-02  9.40368E-02 -4.67791E-02
    8985.428     -8.771  -0.680  4.95183E-02  1.02624E-01 -5.31058E-02
    8985.629     -8.570  -0.640  5.19331E-02  1.12288E-01 -6.03553E-02
    8985.818     -8.381  -0.600  5.45147E-02  1.23148E-01 -6.86337E-02
    8985.995     -8.204  -0.560  5.72723E-02  1.35304E-01 -7.80321E-02
    8986.159     -8.040  -0.520  6.02080E-02  1.48815E-01 -8.86069E-02
    8986.312     -7.887  -0.480  6.33107E-02  1.63663E-01 -1.00353E-01
    8986.452     -7.747  -0.440  6.65503E-02  1.79721E-01 -1.13171E-01
    8986.580     -7.619  -0.400  6.98726E-02  1.96714E-01 -1.26841E-01
    8986.696     -7.503  -0.360  7.31980E-02  2.14213E-01 -1.41015E-01
    8986.799     -7.400  -0.320  7.64289E-02  2.31661E-01 -1.55233E-01
    8986.891     -7.308  -0.280  7.94616E-02  2.48438E-01 -1.68977E-01
    8986.970     -7.229  -0.240  8.22031E-02  2.63943E-01 -1.81740E-01
    8987.037     -7.162  -0.200  8.45823E-02  2.77669E-01 -1.93086E-01
    8987.092     -7.107  -0.160  8.65542E-02  2.89236E-01 -2.02681E-01
    8987.135     -7.064  -0.120  8.80959E-02  2.98397E-01 -2.10301E-01
    8987.165     -7.034  -0.080  8.91990E-02  3.05008E-01 -2.15809E-01
    8987.189     -7.009   0.000  9.00864E-02  3.10328E-01 -2.20242E-01
    8987.244     -6.954   0.120  9.21513E-02  3.22338E-01 -2.30186E-01
    8987.287     -6.912   0.160  9.36854E-02  3.31698E-01 -2.38013E-01
    8987.342     -6.857   0.200  9.56018E-02  3.43704E-01 -2.48102E-01
    8987.409     -6.790   0.240  9.78189E-02  3.58191E-01 -2.60372E-01
    8987.488     -6.711   0.280  1.00311E-01  3.74962E-01 -2.74651E-01
    8987.580     -6.619   0.320  1.02959E-01  3.93599E-01 -2.90640E-01
    8987.683     -6.516   0.360  1.05776E-01  4.13691E-01 -3.07915E-01
    8987.799     -6.400   0.400  1.08708E-01  4.34707E-01 -3.25999E-01
    8987.927     -6.272   0.440  1.11880E-01  4.56199E-01 -3.44319E-01
    8988.067     -6.132   0.480  1.15444E-01  4.77795E-01 -3.62351E-01
    8988.220     -5.979   0.520  1.19612E-01  4.99226E-01 -3.79614E-01
    8988.384     -5.815   0.560  1.24670E-01  5.20404E-01 -3.95734E-01
    8988.561     -5.638   0.600  1.30822E-01  5.41244E-01 -4.10422E-01
    8988.750     -5.449   0.640  1.38282E-01  5.61783E-01 -4.23501E-01
    8988.951     -5.248   0.680  1.47162E-01  5.82025E-01 -4.34863E-01
    8989.164     -5.034   0.720  1.57534E-01  6.02043E-01 -4.44509E-01
    8989.390     -4.809   0.760  1.69455E-01  6.21867E-01 -4.52412E-01
    8989.628     -4.571   0.800  1.83136E-01  6.41494E-01 -4.58358E-01
    8989.878     -4.321   0.840  1.99104E-01  6.60951E-01 -4.61847E-01
    8990.140     -4.059   0.880  2.17970E-01  6.80210E-01 -4.62240E-01
    8990.414     -3.785   0.920  2.40209E-01  6.99273E-01 -4.59064E-01
    8990.701     -3.498   0.960  2.65732E-01  7.18109E-01 -4.52377E-01
    8990.999     -3.199   1.000  2.94118E-01  7.36637E-01 -4.42520E-01
    8991.310     -2.888   1.040  3.25745E-01  7.54853E-01 -4.29108E-01
    8991.633     -2.565   1.080  3.62183E-01  7.72684E-01 -4.10501E-01
    8991.969     -2.230   1.120  4.04720E-01  7.90075E-01 -3.85355E-01
    8992.316     -1.883   1.160  4.52123E-01  8.06947E-01 -3.54825E-01
    8992.676     -1.523   1.200  5.00526E-01  8.23305E-01 -3.22779E-01
    8993.048     -1.151   1.240  5.45329E-01  8.39047E-01 -2.93719E-01
    8993.432     -0.767   1.280  5.84622E-01  8.54138E-01 -2.69516E-01
    8993.828     -0.371   1.320  6.21687E-01  8.68540E-01 -2.46853E-01
    8994.236      0.038   1.360  6.64840E-01  8.82244E-01 -2.17404E-01
    8994.657      0.458   1.400  7.24077E-01  8.95178E-01 -1.71100E-01
    8995.090      0.891   1.440  8.06824E-01  9.07332E-01 -1.00508E-01
    8995.535      1.336   1.480  9.13713E-01  9.18726E-01 -5.01333E-03
    8995.992      1.793   1.520  1.03880E+00  9.29315E-01  1.09481E-01
    8996.461      2.263   1.560  1.17607E+00  9.39124E-01  2.36942E-01
    8996.943      2.744   1.600  1.31697E+00  9.48136E-01  3.68833E-01
    8997.437      3.238   1.640  1.44490E+00  9.56381E-01  4.88515E-01
    8997.943      3.744   1.680  1.53819E+00  9.63868E-01  5.74321E-01
    8998.461      4.262   1.720  1.58021E+00  9.70631E-01  6.09580E-01
    8998.991      4.792   1.760  1.56790E+00  9.76684E-01  5.91221E-01
    8999.534      5.335   1.800  1.51500E+00  9.82062E-01  5.32935E-01
    9000.088      5.890   1.840  1.44754E+00  9.86805E-01  4.60737E-01
    9000.655      6.457   1.880  1.38585E+00  9.90929E-01  3.94920E-01
    9001.235      7.036   1.920  1.33605E+00  9.94497E-01  3.41557E-01
    9001.826      7.627   1.960  1.29903E+00  9.97525E-01  3.01507E-01
    9002.429      8.231   2.000  1.27773E+00  1.00005E+00  2.77671E-01
    9003.045      8.846   2.040  1.27465E+00  1.00213E+00  2.72525E-01
    9003.673      9.474   2.080  1.28280E+00  1.00380E+00  2.79003E-01
    9004.313     10.114   2.120  1.27621E+00  1.00507E+00  2.71137E-01
    9004.965     10.767   2.160  1.23177E+00  1.00598E+00  2.25786E-01
    9005.630     11.431   2.200  1.15728E+00  1.00661E+00  1.50676E-01
    9006.306     12.108   2.240  1.07542E+00  1.00693E+00  6.84968E-02
    9006.995     12.796   2.280  1.00563E+00  1.00702E+00 -1.38944E-03
    9007.696     13.497   2.320  9.53901E-01  1.00690E+00 -5.30039E-02
    9008.409     14.211   2.360  9.15512E-01  1.00659E+00 -9.10770E-02
    9009.135     14.936   2.400  8.89672E-01  1.00613E+00 -1.16458E-01
    9009.873     15.674   2.440  8.84254E-01  1.00554E+00 -1.21289E-01
    9010.622     16.424   2.480  8.93126E-01  1.00481E+00 -1.11689E-01
    9011.384     17.186   2.520  9.04726E-01  1.00402E+00 -9.92959E-02
    9012.159     17.960   2.560  9.14331E-01  1.00317E+00 -8.88429E-02
    9012.945     18.746   2.600  9.20504E-01  1.00226E+00 -8.17545E-02
    9013.743     19.545   2.640  9.23418E-01  1.00131E+00 -7.78881E-02
    9014.554     20.355   2.680  9.23466E-01  1.00037E+00 -7.69002E-02
    9015.377     21.178   2.720  9.21258E-01  9.99405E-01 -7.81473E-02
    9016.212     22.014   2.760  9.17346E-01  9.98469E-01 -8.11229E-02
    9017.060     22.861   2.800  9.11978E-01  9.97544E-01 -8.55666E-02
    9017.919     23.720   2.840  9.05300E-01  9.96678E-01 -9.13781E-02
    9018.791     24.592   2.880  8.97300E-01  9.95831E-01 -9.85309E-02
    9019.675     25.476   2.920  8.88528E-01  9.95050E-01 -1.06522E-01
    9020.571     26.372   2.960  8.80144E-01  9.94318E-01 -1.14174E-01
    9021.479     27.280   3.000  8.73366E-01  9.93659E-01 -1.20293E-01
    9022.400     28.201   3.040  8.68951E-01  9.93074E-01 -1.24124E-01
    9023.332     29.134   3.080  8.67311E-01  9.92546E-01 -1.25235E-01
    9024.277     30.079   3.120  8.68566E-01  9.92096E-01 -1.23530E-01
    9025.234     31.036   3.160  8.72594E-01  9.91748E-01 -1.19154E-01
    9026.204     32.005   3.200  8.79383E-01  9.91461E-01 -1.12078E-01
    9027.185     32.986   3.240  8.89188E-01  9.91275E-01 -1.02087E-01
    9028.179     33.980   3.280  9.02042E-01  9.91150E-01 -8.91084E-02
    9029.185     34.986   3.320  9.17726E-01  9.91127E-01 -7.34010E-02
    9030.203     36.004   3.360  9.35544E-01  9.91164E-01 -5.56201E-02
    9031.233     37.034   3.400  9.54512E-01  9.91302E-01 -3.67900E-02
    9032.275     38.076   3.440  9.73548E-01  9.91500E-01 -1.79517E-02
    9033.330     39.131   3.480  9.91826E-01  9.91796E-01  3.06589E-05
    9034.397     40.198   3.520  1.00876E+00  9.92149E-01  1.66127E-02
    9035.476     41.277   3.560  1.02408E+00  9.92578E-01  3.15023E-02
    9036.567     42.368   3.600  1.03767E+00  9.93080E-01  4.45900E-02
    9037.670     43.471   3.640  1.04945E+00  9.93633E-01  5.58173E-02
    9038.786     44.587   3.680  1.05951E+00  9.94233E-01  6.52798E-02
    9039.913     45.715   3.720  1.06808E+00  9.94902E-01  7.31762E-02
    9041.053     46.855   3.760  1.07543E+00  9.95638E-01  7.97901E-02
    9042.206     48.007   3.800  1.08170E+00  9.96395E-01  8.53092E-02
    9043.370     49.171   3.840  1.08690E+00  9.97191E-01  8.97095E-02
    9044.546     50.348   3.880  1.09083E+00  9.98047E-01  9.27794E-02
    9045.735     51.536   3.920  1.09306E+00  9.98915E-01  9.41439E-02
    9046.936     52.737   3.960  1.09321E+00  9.99793E-01  9.34191E-02
    9048.149     53.950   4.000  1.09109E+00  1.00070E+00  9.03858E-02
    9049.374     55.176   4.040  1.08672E+00  1.00164E+00  8.50796E-02
    9050.612     56.413   4.080  1.08015E+00  1.00255E+00  7.75995E-02
    9051.862     57.663   4.120  1.07175E+00  1.00350E+00  6.82579E-02
    9053.123     58.925   4.160  1.06211E+00  1.00444E+00  5.76718E-02
    9054.398     60.199   4.200  1.05198E+00  1.00537E+00  4.66128E-02
    9055.684     61.485   4.240  1.04197E+00  1.00628E+00  3.56965E-02
    9056.982     62.783   4.280  1.03233E+00  1.00717E+00  2.51559E-02
    9058.293     64.094   4.320  1.02286E+00  1.00804E+00  1.48200E-02
    9059.616     65.417   4.360  1.01331E+00  1.00889E+00  4.42084E-03
    9060.951     66.752   4.400  1.00361E+00  1.00973E+00 -6.11964E-03
    9062.298     68.099   4.440  9.94015E-01  1.01051E+00 -1.64953E-02
    9063.657     69.459   4.480  9.85158E-01  1.01125E+00 -2.60897E-02
    9065.029     70.830   4.520  9.77767E-01  1.01196E+00 -3.41975E-02
    9066.413     72.214   4.560  9.72269E-01  1.01262E+00 -4.03502E-02
    9067.809     73.610   4.600  9.68741E-01  1.01325E+00 -4.45081E-02
    9069.217     75.018   4.640  9.66828E-01  1.01381E+00 -4.69815E-02
    9070.637     76.438   4.680  9.66164E-01  1.01430E+00 -4.81371E-02
    9072.070     77.871   4.720  9.66586E-01  1.01477E+00 -4.81821E-02
    9073.514     79.316   4.760  9.68170E-01  1.01517E+00 -4.69956E-02
    9074.971     80.773   4.800  9.71370E-01  1.01552E+00 -4.41454E-02
    9076.441     82.242   4.840  9.76592E-01  1.01582E+00 -3.92248E-02
    9077.922     83.723   4.880  9.83814E-01  1.01605E+00 -3.22330E-02
    9079.415     85.217   4.920  9.92432E-01  1.01623E+00 -2.37950E-02
    9080.921     86.722   4.960  1.00131E+00  1.01634E+00 -1.50253E-02
    9082.439     88.240   5.000  1.00923E+00  1.01642E+00 -7.19149E-03
    9083.969     89.770   5.040  1.01510E+00  1.01641E+00 -1.31354E-03
    9085.511     91.313   5.080  1.01859E+00  1.01637E+00  2.21676E-03
    9087.066     92.867   5.120  1.02000E+00  1.01627E+00  3.73111E-03
    9088.633     94.434   5.160  1.02013E+00  1.01612E+00  4.01111E-03
    9090.211     96.013   5.200  1.01978E+00  1.01593E+00  3.85187E-03
    9091.802     97.604   5.240  1.01940E+00  1.01569E+00  3.71022E-03
    9093.406     99.207   5.280  1.01899E+00  1.01541E+00  3.58386E-03
    9095.021    100.822   5.320  1.01818E+00  1.01506E+00  3.11707E-03
    9096.649    102.450   5.360  1.01666E+00  1.01469E+00  1.96990E-03
    9098.289    104.090   5.400  1.01435E+00  1.01429E+00  6.48661E-05
    9099.941    105.742   5.440  1.01155E+00  1.01384E+00 -2.28999E-03
    9101.605    107.406   5.480  1.00882E+00  1.01336E+00 -4.54093E-03
    9103.281    109.082   5.520  1.00672E+00  1.01287E+00 -6.15762E-03
    9104.970    110.771   5.560  1.00545E+00  1.01235E+00 -6.89936E-03
    9106.670    112.472   5.600  1.00498E+00  1.01179E+00 -6.80824E-03
    9108.383    114.185   5.640  1.00512E+00  1.01124E+00 -6.12928E-03
    9110.109    115.910   5.680  1.00544E+00  1.01065E+00 -5.21079E-03
    9111.846    117.647   5.720  1.00568E+00  1.01007E+00 -4.39065E-03
    9113.596    119.397   5.760  1.00559E+00  1.00947E+00 -3.87442E-03
    9115.357    121.159   5.800  1.00523E+00  1.00886E+00 -3.63350E-03
    9117.131    122.932   5.840  1.00490E+00  1.00826E+00 -3.36406E-03
    9118.917    124.719   5.880  1.00500E+00  1.00766E+00 -2.66660E-03
    9120.716    126.517   5.920  1.00572E+00  1.00708E+00 -1.36175E-03
    9122.526    128.327   5.960  1.00693E+00  1.00654E+00  3.95368E-04
    9124.349    130.150   6.000  1.00837E+00  1.00598E+00  2.38768E-03
