# # comment:                                                     FEFF 9.9.1  
# # Source:
# # Structure
# # Reduced
# # space
# # abc:
# # angles:
# # sites:
# # POT  SCF 100  7.0000   0, screened core-hole, AFOLP (folp(0)= 1.150)
# # Abs   Z=29 Rmt= 1.236 Rnm= 1.318 K  shell
# # Pot 1 Z=12 Rmt= 1.379 Rnm= 1.455
# # Pot 2 Z=29 Rmt= 1.236 Rnm= 1.316
# # Pot 3 Z= 8 Rmt= 1.014 Rnm= 1.105
# # Gam_ch=1.729E+00 H-L exch Vi= 0.000E+00 Vr= 0.000E+00
# # Mu=-8.683E+00eV kf=2.121E+00 Vint=-1.723E+01eV Rs_int= 1.710
# FMS rfms= 9.0000
# # PATH  Rmax=-1.000,  Keep_limit= 0.00, Heap_limit 0.00  Pwcrit= 2.50%
#  S02=0.950  Temp=   0.00  Debye_temp=   0.00  Global_sig2= 0.00000
#  Energy zero shift, vr, vi    0.00000E+00   0.00000E+00
#  Curved wave amplitude ratio filter   4.000%
#     file         sig2 tot  cw amp ratio   deg  nlegs   reff  inp sig2
#     0/   0 paths used
#  xsedge+ 50, used to normalize mu           2.4604E-04
#  -----------------------------------------------------------------------
#  omega    e    k    mu    mu0     chi     @#
    8984.307    -12.493  -1.000  3.77680E-02  5.45000E-02 -1.67320E-02
    8984.606    -12.194  -0.960  3.96190E-02  5.84593E-02 -1.88404E-02
    8984.893    -11.908  -0.920  4.15859E-02  6.28580E-02 -2.12721E-02
    8985.167    -11.633  -0.880  4.36773E-02  6.77606E-02 -2.40833E-02
    8985.429    -11.371  -0.840  4.59025E-02  7.32421E-02 -2.73396E-02
    8985.679    -11.121  -0.800  4.82712E-02  7.93895E-02 -3.11184E-02
    8985.917    -10.883  -0.760  5.07938E-02  8.63026E-02 -3.55088E-02
    8986.142    -10.658  -0.720  5.34812E-02  9.40940E-02 -4.06128E-02
    8986.356    -10.445  -0.680  5.63439E-02  1.02888E-01 -4.65439E-02
    8986.557    -10.243  -0.640  5.93917E-02  1.12815E-01 -5.34231E-02
    8986.746    -10.054  -0.600  6.26319E-02  1.24003E-01 -6.13716E-02
    8986.922     -9.878  -0.560  6.60668E-02  1.36563E-01 -7.04966E-02
    8987.087     -9.713  -0.520  6.96900E-02  1.50560E-01 -8.08696E-02
    8987.239     -9.561  -0.480  7.34813E-02  1.65977E-01 -9.24958E-02
    8987.380     -9.420  -0.440  7.74014E-02  1.82681E-01 -1.05279E-01
    8987.508     -9.292  -0.400  8.13875E-02  2.00380E-01 -1.18993E-01
    8987.624     -9.177  -0.360  8.53534E-02  2.18620E-01 -1.33266E-01
    8987.727     -9.073  -0.320  8.91961E-02  2.36807E-01 -1.47611E-01
    8987.819     -8.982  -0.280  9.28078E-02  2.54284E-01 -1.61476E-01
    8987.898     -8.902  -0.240  9.60904E-02  2.70417E-01 -1.74327E-01
    8987.965     -8.835  -0.200  9.89651E-02  2.84677E-01 -1.85712E-01
    8988.020     -8.780  -0.160  1.01375E-01  2.96673E-01 -1.95298E-01
    8988.062     -8.738  -0.120  1.03282E-01  3.06158E-01 -2.02876E-01
    8988.093     -8.707  -0.080  1.04658E-01  3.12992E-01 -2.08334E-01
    8988.117     -8.683   0.000  1.05766E-01  3.18483E-01 -2.12717E-01
    8988.172     -8.628   0.120  1.08439E-01  3.30884E-01 -2.22445E-01
    8988.215     -8.585   0.160  1.10466E-01  3.40506E-01 -2.30040E-01
    8988.270     -8.530   0.200  1.13082E-01  3.52806E-01 -2.39724E-01
    8988.337     -8.463   0.240  1.16287E-01  3.67601E-01 -2.51315E-01
    8988.416     -8.384   0.280  1.20063E-01  3.84601E-01 -2.64538E-01
    8988.507     -8.293   0.320  1.24482E-01  4.03379E-01 -2.78897E-01
    8988.611     -8.189   0.360  1.29574E-01  4.23387E-01 -2.93813E-01
    8988.727     -8.073   0.400  1.35542E-01  4.44080E-01 -3.08538E-01
    8988.855     -7.945   0.440  1.42577E-01  4.64923E-01 -3.22346E-01
    8988.995     -7.805   0.480  1.51006E-01  4.85476E-01 -3.34470E-01
    8989.148     -7.653   0.520  1.61356E-01  5.05526E-01 -3.44170E-01
    8989.312     -7.488   0.560  1.74187E-01  5.24893E-01 -3.50706E-01
    8989.489     -7.311   0.600  1.90341E-01  5.43587E-01 -3.53246E-01
    8989.678     -7.122   0.640  2.10847E-01  5.61641E-01 -3.50794E-01
    8989.879     -6.921   0.680  2.36964E-01  5.79128E-01 -3.42164E-01
    8990.092     -6.708   0.720  2.70045E-01  5.96111E-01 -3.26066E-01
    8990.318     -6.482   0.760  3.11272E-01  6.12714E-01 -3.01442E-01
    8990.556     -6.244   0.800  3.60636E-01  6.28991E-01 -2.68355E-01
    8990.806     -5.994   0.840  4.15085E-01  6.45000E-01 -2.29915E-01
    8991.068     -5.732   0.880  4.67373E-01  6.60790E-01 -1.93417E-01
    8991.342     -5.458   0.920  5.10116E-01  6.76392E-01 -1.66276E-01
    8991.629     -5.172   0.960  5.42533E-01  6.91849E-01 -1.49316E-01
    8991.927     -4.873   1.000  5.68220E-01  7.07110E-01 -1.38889E-01
    8992.238     -4.562   1.040  5.87076E-01  7.22218E-01 -1.35141E-01
    8992.561     -4.239   1.080  5.93619E-01  7.37165E-01 -1.43546E-01
    8992.897     -3.904   1.120  5.85170E-01  7.51921E-01 -1.66751E-01
    8993.244     -3.556   1.160  5.68992E-01  7.66447E-01 -1.97455E-01
    8993.604     -3.196   1.200  5.57564E-01  7.80764E-01 -2.23200E-01
    8993.976     -2.825   1.240  5.57846E-01  7.94786E-01 -2.36940E-01
    8994.360     -2.441   1.280  5.67070E-01  8.08549E-01 -2.41479E-01
    8994.756     -2.044   1.320  5.79133E-01  8.21985E-01 -2.42852E-01
    8995.164     -1.636   1.360  5.94051E-01  8.35066E-01 -2.41015E-01
    8995.585     -1.215   1.400  6.17310E-01  8.47783E-01 -2.30473E-01
    8996.018     -0.782   1.440  6.54000E-01  8.60105E-01 -2.06105E-01
    8996.463     -0.337   1.480  7.04885E-01  8.71986E-01 -1.67101E-01
    8996.920      0.120   1.520  7.66187E-01  8.83438E-01 -1.17251E-01
    8997.389      0.589   1.560  8.33460E-01  8.94433E-01 -6.09726E-02
    8997.871      1.071   1.600  9.01537E-01  9.04923E-01 -3.38614E-03
    8998.365      1.565   1.640  9.67772E-01  9.14926E-01  5.28454E-02
    8998.871      2.070   1.680  1.04271E+00  9.24439E-01  1.18271E-01
    8999.389      2.589   1.720  1.13760E+00  9.33417E-01  2.04179E-01
    8999.919      3.119   1.760  1.24063E+00  9.41879E-01  2.98754E-01
    9000.462      3.662   1.800  1.32579E+00  9.49827E-01  3.75966E-01
    9001.016      4.216   1.840  1.38921E+00  9.57263E-01  4.31949E-01
    9001.583      4.783   1.880  1.43917E+00  9.64168E-01  4.74998E-01
    9002.162      5.362   1.920  1.45965E+00  9.70587E-01  4.89061E-01
    9002.754      5.954   1.960  1.44213E+00  9.76484E-01  4.65648E-01
    9003.357      6.557   2.000  1.40754E+00  9.81885E-01  4.25656E-01
    9003.973      7.173   2.040  1.36296E+00  9.86840E-01  3.76119E-01
    9004.601      7.801   2.080  1.29094E+00  9.91314E-01  2.99631E-01
    9005.241      8.441   2.120  1.19858E+00  9.95336E-01  2.03245E-01
    9005.893      9.093   2.160  1.11186E+00  9.98936E-01  1.12920E-01
    9006.558      9.758   2.200  1.04518E+00  1.00212E+00  4.30570E-02
    9007.234     10.434   2.240  1.00448E+00  1.00493E+00 -4.47201E-04
    9007.923     11.123   2.280  9.88487E-01  1.00734E+00 -1.88506E-02
    9008.624     11.824   2.320  9.90379E-01  1.00943E+00 -1.90476E-02
    9009.337     12.537   2.360  1.00323E+00  1.01116E+00 -7.92870E-03
    9010.063     13.263   2.400  1.02165E+00  1.01258E+00  9.06640E-03
    9010.800     14.000   2.440  1.04290E+00  1.01372E+00  2.91749E-02
    9011.550     14.750   2.480  1.06888E+00  1.01459E+00  5.42859E-02
    9012.312     15.512   2.520  1.09841E+00  1.01521E+00  8.32076E-02
    9013.086     16.286   2.560  1.11800E+00  1.01560E+00  1.02399E-01
    9013.873     17.073   2.600  1.12186E+00  1.01577E+00  1.06087E-01
    9014.671     17.871   2.640  1.11293E+00  1.01576E+00  9.71747E-02
    9015.482     18.682   2.680  1.09384E+00  1.01556E+00  7.82814E-02
    9016.305     19.505   2.720  1.06785E+00  1.01521E+00  5.26402E-02
    9017.140     20.340   2.760  1.03858E+00  1.01474E+00  2.38421E-02
    9017.988     21.187   2.800  1.00813E+00  1.01412E+00 -5.98858E-03
    9018.847     22.047   2.840  9.78225E-01  1.01342E+00 -3.51981E-02
    9019.719     22.919   2.880  9.50506E-01  1.01260E+00 -6.20917E-02
    9020.603     23.803   2.920  9.26105E-01  1.01171E+00 -8.56066E-02
    9021.499     24.699   2.960  9.05737E-01  1.01077E+00 -1.05036E-01
    9022.407     25.607   3.000  8.89722E-01  1.00977E+00 -1.20043E-01
    9023.328     26.528   3.040  8.77870E-01  1.00872E+00 -1.30846E-01
    9024.260     27.460   3.080  8.69694E-01  1.00765E+00 -1.37956E-01
    9025.205     28.405   3.120  8.64872E-01  1.00655E+00 -1.41679E-01
    9026.162     29.362   3.160  8.62802E-01  1.00545E+00 -1.42646E-01
    9027.132     30.331   3.200  8.63201E-01  1.00434E+00 -1.41140E-01
    9028.113     31.313   3.240  8.65773E-01  1.00324E+00 -1.37465E-01
    9029.107     32.307   3.280  8.70084E-01  1.00216E+00 -1.32078E-01
    9030.112     33.312   3.320  8.75598E-01  1.00110E+00 -1.25498E-01
    9031.130     34.330   3.360  8.82012E-01  1.00006E+00 -1.18049E-01
    9032.161     35.361   3.400  8.89409E-01  9.99063E-01 -1.09654E-01
    9033.203     36.403   3.440  8.97831E-01  9.98104E-01 -1.00274E-01
    9034.258     37.458   3.480  9.07637E-01  9.97164E-01 -8.95270E-02
    9035.325     38.524   3.520  9.19249E-01  9.96287E-01 -7.70377E-02
    9036.404     39.603   3.560  9.32751E-01  9.95477E-01 -6.27262E-02
    9037.495     40.695   3.600  9.47704E-01  9.94714E-01 -4.70108E-02
    9038.598     41.798   3.640  9.63306E-01  9.93997E-01 -3.06906E-02
    9039.714     42.914   3.680  9.78471E-01  9.93327E-01 -1.48560E-02
    9040.841     44.041   3.720  9.92030E-01  9.92727E-01 -6.96642E-04
    9041.981     45.181   3.760  1.00326E+00  9.92199E-01  1.10596E-02
    9043.133     46.333   3.800  1.01210E+00  9.91720E-01  2.03801E-02
    9044.298     47.498   3.840  1.01913E+00  9.91313E-01  2.78126E-02
    9045.474     48.674   3.880  1.02534E+00  9.90956E-01  3.43872E-02
    9046.663     49.863   3.920  1.03166E+00  9.90669E-01  4.09864E-02
    9047.864     51.064   3.960  1.03829E+00  9.90434E-01  4.78551E-02
    9049.077     52.277   4.000  1.04486E+00  9.90269E-01  5.45903E-02
    9050.302     53.502   4.040  1.05063E+00  9.90174E-01  6.04560E-02
    9051.540     54.740   4.080  1.05492E+00  9.90107E-01  6.48149E-02
    9052.789     55.989   4.120  1.05756E+00  9.90128E-01  6.74340E-02
    9054.051     57.251   4.160  1.05882E+00  9.90175E-01  6.86416E-02
    9055.325     58.525   4.200  1.05924E+00  9.90288E-01  6.89527E-02
    9056.612     59.812   4.240  1.05924E+00  9.90447E-01  6.87882E-02
    9057.910     61.110   4.280  1.05896E+00  9.90671E-01  6.82855E-02
    9059.221     62.421   4.320  1.05819E+00  9.90916E-01  6.72713E-02
    9060.544     63.743   4.360  1.05664E+00  9.91223E-01  6.54181E-02
    9061.879     65.078   4.400  1.05403E+00  9.91570E-01  6.24581E-02
    9063.226     66.426   4.440  1.05038E+00  9.91932E-01  5.84510E-02
    9064.585     67.785   4.480  1.04610E+00  9.92329E-01  5.37709E-02
    9065.957     69.157   4.520  1.04178E+00  9.92761E-01  4.90155E-02
    9067.341     70.540   4.560  1.03795E+00  9.93228E-01  4.47231E-02
    9068.737     71.936   4.600  1.03484E+00  9.93704E-01  4.11389E-02
    9070.145     73.345   4.640  1.03234E+00  9.94211E-01  3.81312E-02
    9071.565     74.765   4.680  1.03007E+00  9.94725E-01  3.53461E-02
    9072.998     76.198   4.720  1.02756E+00  9.95264E-01  3.22991E-02
    9074.442     77.642   4.760  1.02424E+00  9.95785E-01  2.84598E-02
    9075.899     79.099   4.800  1.01973E+00  9.96330E-01  2.34042E-02
    9077.368     80.568   4.840  1.01386E+00  9.96876E-01  1.69865E-02
    9078.850     82.050   4.880  1.00684E+00  9.97418E-01  9.42367E-03
    9080.343     83.543   4.920  9.99064E-01  9.97936E-01  1.12861E-03
    9081.849     85.049   4.960  9.90916E-01  9.98471E-01 -7.55431E-03
    9083.367     86.567   5.000  9.82561E-01  9.98979E-01 -1.64178E-02
    9084.897     88.097   5.040  9.74099E-01  9.99478E-01 -2.53790E-02
    9086.439     89.639   5.080  9.65507E-01  9.99946E-01 -3.44392E-02
    9087.994     91.194   5.120  9.56834E-01  1.00040E+00 -4.35691E-02
    9089.560     92.760   5.160  9.48271E-01  1.00083E+00 -5.25577E-02
    9091.139     94.339   5.200  9.40410E-01  1.00124E+00 -6.08313E-02
    9092.730     95.930   5.240  9.33988E-01  1.00162E+00 -6.76314E-02
    9094.334     97.533   5.280  9.29662E-01  1.00196E+00 -7.22966E-02
    9095.949     99.149   5.320  9.27853E-01  1.00226E+00 -7.44069E-02
    9097.577    100.776   5.360  9.28902E-01  1.00255E+00 -7.36432E-02
    9099.216    102.416   5.400  9.33112E-01  1.00277E+00 -6.96588E-02
    9100.868    104.068   5.440  9.40733E-01  1.00298E+00 -6.22451E-02
    9102.533    105.733   5.480  9.51404E-01  1.00314E+00 -5.17396E-02
    9104.209    107.409   5.520  9.64082E-01  1.00325E+00 -3.91653E-02
    9105.898    109.098   5.560  9.77383E-01  1.00333E+00 -2.59481E-02
    9107.598    110.798   5.600  9.89939E-01  1.00338E+00 -1.34371E-02
    9109.311    112.511   5.640  1.00063E+00  1.00335E+00 -2.72704E-03
    9111.037    114.236   5.680  1.00863E+00  1.00331E+00  5.31767E-03
    9112.774    115.974   5.720  1.01336E+00  1.00321E+00  1.01519E-02
    9114.523    117.723   5.760  1.01492E+00  1.00309E+00  1.18363E-02
    9116.285    119.485   5.800  1.01412E+00  1.00290E+00  1.12192E-02
    9118.059    121.259   5.840  1.01257E+00  1.00268E+00  9.89640E-03
    9119.845    123.045   5.880  1.01215E+00  1.00244E+00  9.71209E-03
    9121.644    124.843   5.920  1.01401E+00  1.00214E+00  1.18726E-02
    9123.454    126.654   5.960  1.01804E+00  1.00180E+00  1.62382E-02
    9125.277    128.477   6.000  1.02286E+00  1.00142E+00  2.14425E-02
