# # comment:                                                     FEFF 9.9.1  
# # Source:
# # Structure
# # Reduced
# # space
# # abc:
# # angles:
# # sites:
# # POT  SCF 100  7.0000   0, screened core-hole, AFOLP (folp(0)= 1.150)
# # Abs   Z=29 Rmt= 1.110 Rnm= 1.307 K  shell
# # Pot 1 Z=56 Rmt= 1.964 Rnm= 2.018
# # Pot 2 Z=39 Rmt= 1.634 Rnm= 1.709
# # Pot 3 Z=29 Rmt= 1.117 Rnm= 1.313
# # Pot 4 Z= 8 Rmt= 1.066 Rnm= 1.125
# # Gam_ch=1.729E+00 H-L exch Vi= 0.000E+00 Vr= 0.000E+00
# # Mu=-8.670E+00eV kf=1.979E+00 Vint=-1.711E+01eV Rs_int= 1.833
# FMS rfms= 9.0000
# # PATH  Rmax=-1.000,  Keep_limit= 0.00, Heap_limit 0.00  Pwcrit= 2.50%
#  S02=0.950  Temp=   0.00  Debye_temp=   0.00  Global_sig2= 0.00000
#  Energy zero shift, vr, vi    0.00000E+00   0.00000E+00
#  Curved wave amplitude ratio filter   4.000%
#     file         sig2 tot  cw amp ratio   deg  nlegs   reff  inp sig2
#     0/   0 paths used
#  xsedge+ 50, used to normalize mu           2.4686E-04
#  -----------------------------------------------------------------------
#  omega    e    k    mu    mu0     chi     @#
    8984.751    -12.480  -1.000  4.10908E-02  5.42578E-02 -1.31670E-02
    8985.050    -12.181  -0.960  4.35288E-02  5.81596E-02 -1.46308E-02
    8985.336    -11.895  -0.920  4.61972E-02  6.24905E-02 -1.62933E-02
    8985.610    -11.620  -0.880  4.91280E-02  6.73130E-02 -1.81850E-02
    8985.873    -11.358  -0.840  5.23583E-02  7.27001E-02 -2.03418E-02
    8986.122    -11.108  -0.800  5.59314E-02  7.87361E-02 -2.28046E-02
    8986.360    -10.871  -0.760  5.98971E-02  8.55177E-02 -2.56206E-02
    8986.586    -10.645  -0.720  6.43115E-02  9.31541E-02 -2.88426E-02
    8986.799    -10.432  -0.680  6.92371E-02  1.01766E-01 -3.25285E-02
    8987.000    -10.230  -0.640  7.47395E-02  1.11479E-01 -3.67393E-02
    8987.189    -10.041  -0.600  8.08834E-02  1.22418E-01 -4.15347E-02
    8987.366     -9.865  -0.560  8.77238E-02  1.34689E-01 -4.69655E-02
    8987.531     -9.700  -0.520  9.52933E-02  1.48355E-01 -5.30618E-02
    8987.683     -9.548  -0.480  1.03583E-01  1.63400E-01 -5.98170E-02
    8987.823     -9.407  -0.440  1.12524E-01  1.79693E-01 -6.71692E-02
    8987.951     -9.279  -0.400  1.21966E-01  1.96952E-01 -7.49857E-02
    8988.067     -9.164  -0.360  1.31675E-01  2.14733E-01 -8.30580E-02
    8988.171     -9.060  -0.320  1.41345E-01  2.32461E-01 -9.11155E-02
    8988.262     -8.969  -0.280  1.50638E-01  2.49496E-01 -9.88588E-02
    8988.341     -8.889  -0.240  1.59223E-01  2.65224E-01 -1.06001E-01
    8988.408     -8.822  -0.200  1.66823E-01  2.79127E-01 -1.12304E-01
    8988.463     -8.767  -0.160  1.73228E-01  2.90826E-01 -1.17597E-01
    8988.506     -8.725  -0.120  1.78301E-01  3.00076E-01 -1.21775E-01
    8988.536     -8.694  -0.080  1.81960E-01  3.06743E-01 -1.24782E-01
    8988.561     -8.670   0.000  1.84903E-01  3.12100E-01 -1.27197E-01
    8988.616     -8.615   0.120  1.91712E-01  3.24185E-01 -1.32473E-01
    8988.658     -8.572   0.160  1.96976E-01  3.33590E-01 -1.36614E-01
    8988.713     -8.517   0.200  2.03663E-01  3.45585E-01 -1.41922E-01
    8988.780     -8.450   0.240  2.11721E-01  3.60055E-01 -1.48334E-01
    8988.860     -8.371   0.280  2.20914E-01  3.76682E-01 -1.55768E-01
    8988.951     -8.280   0.320  2.30973E-01  3.95078E-01 -1.64105E-01
    8989.055     -8.176   0.360  2.41433E-01  4.14692E-01 -1.73259E-01
    8989.170     -8.060   0.400  2.51761E-01  4.35024E-01 -1.83263E-01
    8989.298     -7.932   0.440  2.61277E-01  4.55537E-01 -1.94260E-01
    8989.439     -7.792   0.480  2.69332E-01  4.75847E-01 -2.06515E-01
    8989.591     -7.640   0.520  2.75499E-01  4.95690E-01 -2.20192E-01
    8989.756     -7.475   0.560  2.79811E-01  5.14975E-01 -2.35164E-01
    8989.932     -7.298   0.600  2.82947E-01  5.33650E-01 -2.50704E-01
    8990.121     -7.109   0.640  2.86349E-01  5.51769E-01 -2.65421E-01
    8990.323     -6.908   0.680  2.91871E-01  5.69402E-01 -2.77531E-01
    8990.536     -6.695   0.720  3.01199E-01  5.86631E-01 -2.85432E-01
    8990.761     -6.469   0.760  3.15231E-01  6.03554E-01 -2.88323E-01
    8990.999     -6.231   0.800  3.33428E-01  6.20223E-01 -2.86795E-01
    8991.249     -5.982   0.840  3.53412E-01  6.36695E-01 -2.83283E-01
    8991.511     -5.719   0.880  3.71711E-01  6.53036E-01 -2.81325E-01
    8991.786     -5.445   0.920  3.86240E-01  6.69275E-01 -2.83035E-01
    8992.072     -5.159   0.960  3.98620E-01  6.85412E-01 -2.86792E-01
    8992.371     -4.860   1.000  4.13484E-01  7.01455E-01 -2.87971E-01
    8992.682     -4.549   1.040  4.35839E-01  7.17404E-01 -2.81565E-01
    8993.005     -4.226   1.080  4.70207E-01  7.33231E-01 -2.63023E-01
    8993.340     -3.891   1.120  5.22410E-01  7.48942E-01 -2.26531E-01
    8993.688     -3.543   1.160  5.99775E-01  7.64517E-01 -1.64742E-01
    8994.047     -3.184   1.200  7.05475E-01  7.79894E-01 -7.44187E-02
    8994.419     -2.812   1.240  8.22043E-01  7.95065E-01  2.69772E-02
    8994.803     -2.428   1.280  8.99516E-01  8.09982E-01  8.95341E-02
    8995.199     -2.031   1.320  8.97466E-01  8.24635E-01  7.28311E-02
    8995.608     -1.623   1.360  8.41213E-01  8.38972E-01  2.24078E-03
    8996.028     -1.202   1.400  7.96438E-01  8.52960E-01 -5.65219E-02
    8996.461     -0.769   1.440  8.02489E-01  8.66566E-01 -6.40773E-02
    8996.906     -0.324   1.480  8.36531E-01  8.79779E-01 -4.32486E-02
    8997.363      0.133   1.520  8.36901E-01  8.92527E-01 -5.56263E-02
    8997.833      0.602   1.560  7.89126E-01  9.04818E-01 -1.15693E-01
    8998.314      1.084   1.600  7.30315E-01  9.16622E-01 -1.86306E-01
    8998.808      1.577   1.640  6.91935E-01  9.27912E-01 -2.35976E-01
    8999.314      2.083   1.680  6.83726E-01  9.38678E-01 -2.54952E-01
    8999.832      2.602   1.720  7.01558E-01  9.48875E-01 -2.47316E-01
    9000.363      3.132   1.760  7.32445E-01  9.58538E-01 -2.26092E-01
    9000.905      3.674   1.800  7.67643E-01  9.67622E-01 -1.99979E-01
    9001.460      4.229   1.840  8.22087E-01  9.76129E-01 -1.54042E-01
    9002.027      4.796   1.880  9.12314E-01  9.84057E-01 -7.17432E-02
    9002.606      5.375   1.920  1.02248E+00  9.91428E-01  3.10567E-02
    9003.197      5.967   1.960  1.10492E+00  9.98224E-01  1.06700E-01
    9003.801      6.570   2.000  1.13287E+00  1.00447E+00  1.28400E-01
    9004.416      7.186   2.040  1.12385E+00  1.01015E+00  1.13702E-01
    9005.044      7.814   2.080  1.10861E+00  1.01529E+00  9.33211E-02
    9005.684      8.454   2.120  1.10320E+00  1.01990E+00  8.33047E-02
    9006.337      9.106   2.160  1.10465E+00  1.02400E+00  8.06525E-02
    9007.001      9.770   2.200  1.10437E+00  1.02759E+00  7.67773E-02
    9007.678     10.447   2.240  1.10406E+00  1.03074E+00  7.33206E-02
    9008.367     11.136   2.280  1.11621E+00  1.03340E+00  8.28063E-02
    9009.068     11.837   2.320  1.14994E+00  1.03563E+00  1.14314E-01
    9009.781     12.550   2.360  1.20327E+00  1.03746E+00  1.65805E-01
    9010.506     13.276   2.400  1.26307E+00  1.03887E+00  2.24195E-01
    9011.244     14.013   2.440  1.30605E+00  1.03993E+00  2.66114E-01
    9011.994     14.763   2.480  1.32059E+00  1.04066E+00  2.79939E-01
    9012.756     15.525   2.520  1.30461E+00  1.04103E+00  2.63579E-01
    9013.530     16.299   2.560  1.26369E+00  1.04111E+00  2.22582E-01
    9014.316     17.086   2.600  1.20946E+00  1.04093E+00  1.68533E-01
    9015.115     17.884   2.640  1.15391E+00  1.04047E+00  1.13441E-01
    9015.926     18.695   2.680  1.10466E+00  1.03977E+00  6.48935E-02
    9016.749     19.518   2.720  1.06568E+00  1.03886E+00  2.68231E-02
    9017.584     20.353   2.760  1.03791E+00  1.03774E+00  1.63310E-04
    9018.431     21.200   2.800  1.02036E+00  1.03646E+00 -1.60981E-02
    9019.291     22.060   2.840  1.01180E+00  1.03502E+00 -2.32123E-02
    9020.162     22.932   2.880  1.01048E+00  1.03344E+00 -2.29624E-02
    9021.046     23.816   2.920  1.01363E+00  1.03174E+00 -1.81130E-02
    9021.942     24.712   2.960  1.01863E+00  1.02993E+00 -1.12950E-02
    9022.851     25.620   3.000  1.02347E+00  1.02805E+00 -4.58046E-03
    9023.771     26.540   3.040  1.02712E+00  1.02607E+00  1.04943E-03
    9024.704     27.473   3.080  1.02965E+00  1.02404E+00  5.61696E-03
    9025.649     28.418   3.120  1.03153E+00  1.02196E+00  9.56786E-03
    9026.606     29.375   3.160  1.03289E+00  1.01985E+00  1.30434E-02
    9027.575     30.344   3.200  1.03310E+00  1.01773E+00  1.53753E-02
    9028.557     31.326   3.240  1.03082E+00  1.01560E+00  1.52245E-02
    9029.550     32.319   3.280  1.02458E+00  1.01345E+00  1.11370E-02
    9030.556     33.325   3.320  1.01345E+00  1.01134E+00  2.10541E-03
    9031.574     34.343   3.360  9.97352E-01  1.00923E+00 -1.18760E-02
    9032.604     35.374   3.400  9.77801E-01  1.00715E+00 -2.93440E-02
    9033.647     36.416   3.440  9.57178E-01  1.00512E+00 -4.79420E-02
    9034.701     37.471   3.480  9.37785E-01  1.00312E+00 -6.53326E-02
    9035.768     38.537   3.520  9.21395E-01  1.00118E+00 -7.97845E-02
    9036.847     39.616   3.560  9.08899E-01  9.99289E-01 -9.03903E-02
    9037.938     40.708   3.600  9.00524E-01  9.97469E-01 -9.69446E-02
    9039.042     41.811   3.640  8.96250E-01  9.95701E-01 -9.94511E-02
    9040.157     42.926   3.680  8.96008E-01  9.94009E-01 -9.80010E-02
    9041.285     44.054   3.720  8.99348E-01  9.92395E-01 -9.30474E-02
    9042.425     45.194   3.760  9.05389E-01  9.90882E-01 -8.54932E-02
    9043.577     46.346   3.800  9.12792E-01  9.89429E-01 -7.66367E-02
    9044.741     47.511   3.840  9.20302E-01  9.88056E-01 -6.77538E-02
    9045.918     48.687   3.880  9.27114E-01  9.86765E-01 -5.96514E-02
    9047.107     49.876   3.920  9.33267E-01  9.85581E-01 -5.23138E-02
    9048.307     51.077   3.960  9.39275E-01  9.84480E-01 -4.52057E-02
    9049.521     52.290   4.000  9.45811E-01  9.83464E-01 -3.76530E-02
    9050.746     53.515   4.040  9.53376E-01  9.82533E-01 -2.91562E-02
    9051.983     54.753   4.080  9.62056E-01  9.81708E-01 -1.96525E-02
    9053.233     56.002   4.120  9.71181E-01  9.80970E-01 -9.78919E-03
    9054.495     57.264   4.160  9.79406E-01  9.80317E-01 -9.10522E-04
    9055.769     58.538   4.200  9.85115E-01  9.79768E-01  5.34720E-03
    9057.055     59.824   4.240  9.87134E-01  9.79283E-01  7.85119E-03
    9058.354     61.123   4.280  9.85583E-01  9.78901E-01  6.68194E-03
    9059.664     62.434   4.320  9.81721E-01  9.78603E-01  3.11770E-03
    9060.987     63.756   4.360  9.77400E-01  9.78387E-01 -9.87345E-04
    9062.322     65.091   4.400  9.74289E-01  9.78252E-01 -3.96340E-03
    9063.669     66.439   4.440  9.73546E-01  9.78199E-01 -4.65312E-03
    9065.029     67.798   4.480  9.75881E-01  9.78247E-01 -2.36603E-03
    9066.400     69.170   4.520  9.81602E-01  9.78351E-01  3.25186E-03
    9067.784     70.553   4.560  9.90674E-01  9.78507E-01  1.21664E-02
    9069.180     71.949   4.600  1.00244E+00  9.78760E-01  2.36785E-02
    9070.588     73.358   4.640  1.01524E+00  9.79065E-01  3.61776E-02
    9072.009     74.778   4.680  1.02672E+00  9.79420E-01  4.73024E-02
    9073.441     76.210   4.720  1.03454E+00  9.79867E-01  5.46692E-02
    9074.886     77.655   4.760  1.03719E+00  9.80340E-01  5.68546E-02
    9076.343     79.112   4.800  1.03495E+00  9.80879E-01  5.40730E-02
    9077.812     80.581   4.840  1.02932E+00  9.81461E-01  4.78547E-02
    9079.293     82.063   4.880  1.02213E+00  9.82084E-01  4.00460E-02
    9080.787     83.556   4.920  1.01499E+00  9.82744E-01  3.22499E-02
    9082.293     85.062   4.960  1.00924E+00  9.83419E-01  2.58218E-02
    9083.810     86.580   5.000  1.00588E+00  9.84152E-01  2.17310E-02
    9085.341     88.110   5.040  1.00519E+00  9.84898E-01  2.02868E-02
    9086.883     89.652   5.080  1.00675E+00  9.85675E-01  2.10728E-02
    9088.437     91.207   5.120  1.00979E+00  9.86457E-01  2.33322E-02
    9090.004     92.773   5.160  1.01355E+00  9.87245E-01  2.62998E-02
    9091.583     94.352   5.200  1.01717E+00  9.88060E-01  2.91087E-02
    9093.174     95.943   5.240  1.01951E+00  9.88874E-01  3.06398E-02
    9094.777     97.546   5.280  1.01943E+00  9.89666E-01  2.97653E-02
    9096.393     99.162   5.320  1.01645E+00  9.90476E-01  2.59758E-02
    9098.020    100.789   5.360  1.01100E+00  9.91259E-01  1.97457E-02
    9099.660    102.429   5.400  1.00478E+00  9.92033E-01  1.27504E-02
    9101.312    104.081   5.440  9.99311E-01  9.92776E-01  6.53473E-03
    9102.976    105.745   5.480  9.95534E-01  9.93510E-01  2.02374E-03
    9104.653    107.422   5.520  9.93663E-01  9.94210E-01 -5.47725E-04
    9106.341    109.110   5.560  9.93449E-01  9.94896E-01 -1.44699E-03
    9108.042    110.811   5.600  9.94235E-01  9.95522E-01 -1.28696E-03
    9109.755    112.524   5.640  9.95441E-01  9.96131E-01 -6.90078E-04
    9111.480    114.249   5.680  9.96764E-01  9.96701E-01  6.23885E-05
    9113.217    115.987   5.720  9.97844E-01  9.97229E-01  6.15362E-04
    9114.967    117.736   5.760  9.98120E-01  9.97690E-01  4.29734E-04
    9116.729    119.498   5.800  9.96879E-01  9.98130E-01 -1.25095E-03
    9118.503    121.272   5.840  9.93640E-01  9.98499E-01 -4.85886E-03
    9120.289    123.058   5.880  9.88518E-01  9.98797E-01 -1.02791E-02
    9122.087    124.856   5.920  9.81968E-01  9.99069E-01 -1.71003E-02
    9123.898    126.667   5.960  9.74605E-01  9.99258E-01 -2.46523E-02
    9125.720    128.490   6.000  9.67496E-01  9.99364E-01 -3.18685E-02
