# # comment:                                                     FEFF 9.9.1  
# # Source:
# # Structure
# # Reduced
# # space
# # abc:
# # angles:
# # sites:
# # POT  SCF 100  7.0000   0, screened core-hole, AFOLP (folp(0)= 1.150)
# # Abs   Z=29 Rmt= 1.277 Rnm= 1.348 K  shell
# # Pot 1 Z=29 Rmt= 1.270 Rnm= 1.342
# # Pot 2 Z=15 Rmt= 0.933 Rnm= 1.151
# # Pot 3 Z= 8 Rmt= 0.881 Rnm= 1.043
# # Gam_ch=1.729E+00 H-L exch Vi= 0.000E+00 Vr= 0.000E+00
# # Mu=-6.016E+00eV kf=2.505E+00 Vint=-1.729E+01eV Rs_int= 1.448
# FMS rfms= 9.0000
# # PATH  Rmax=-1.000,  Keep_limit= 0.00, Heap_limit 0.00  Pwcrit= 2.50%
#  S02=0.950  Temp=   0.00  Debye_temp=   0.00  Global_sig2= 0.00000
#  Energy zero shift, vr, vi    0.00000E+00   0.00000E+00
#  Curved wave amplitude ratio filter   4.000%
#     file         sig2 tot  cw amp ratio   deg  nlegs   reff  inp sig2
#     0/   0 paths used
#  xsedge+ 50, used to normalize mu           2.4867E-04
#  -----------------------------------------------------------------------
#  omega    e    k    mu    mu0     chi     @#
    8983.290     -9.826  -1.000  4.69340E-02  5.41001E-02 -7.16616E-03
    8983.588     -9.527  -0.960  4.99547E-02  5.80769E-02 -8.12220E-03
    8983.875     -9.240  -0.920  5.32726E-02  6.25026E-02 -9.22998E-03
    8984.149     -8.966  -0.880  5.69275E-02  6.74440E-02 -1.05165E-02
    8984.411     -8.704  -0.840  6.09653E-02  7.29791E-02 -1.20138E-02
    8984.661     -8.454  -0.800  6.54386E-02  7.91984E-02 -1.37598E-02
    8984.899     -8.216  -0.760  7.04071E-02  8.62060E-02 -1.57989E-02
    8985.124     -7.991  -0.720  7.59373E-02  9.41194E-02 -1.81821E-02
    8985.338     -7.777  -0.680  8.21014E-02  1.03068E-01 -2.09671E-02
    8985.539     -7.576  -0.640  8.89746E-02  1.13190E-01 -2.42156E-02
    8985.728     -7.387  -0.600  9.66298E-02  1.24620E-01 -2.79900E-02
    8985.905     -7.210  -0.560  1.05128E-01  1.37473E-01 -3.23447E-02
    8986.069     -7.046  -0.520  1.14505E-01  1.51818E-01 -3.73135E-02
    8986.222     -6.893  -0.480  1.24751E-01  1.67643E-01 -4.28920E-02
    8986.362     -6.753  -0.440  1.35789E-01  1.84806E-01 -4.90170E-02
    8986.490     -6.625  -0.400  1.47458E-01  2.03008E-01 -5.55506E-02
    8986.606     -6.509  -0.360  1.59496E-01  2.21774E-01 -6.22777E-02
    8986.709     -6.406  -0.320  1.71560E-01  2.40487E-01 -6.89267E-02
    8986.801     -6.314  -0.280  1.83253E-01  2.58465E-01 -7.52112E-02
    8986.880     -6.235  -0.240  1.94171E-01  2.75051E-01 -8.08797E-02
    8986.947     -6.168  -0.200  2.03949E-01  2.89700E-01 -8.57512E-02
    8987.002     -6.113  -0.160  2.12287E-01  3.02013E-01 -8.97258E-02
    8987.045     -6.070  -0.120  2.18968E-01  3.11739E-01 -9.27710E-02
    8987.075     -6.040  -0.080  2.23844E-01  3.18741E-01 -9.48970E-02
    8987.100     -6.016   0.000  2.27831E-01  3.24364E-01 -9.65322E-02
    8987.154     -5.961   0.120  2.36619E-01  3.37025E-01 -1.00406E-01
    8987.197     -5.918   0.160  2.43552E-01  3.46864E-01 -1.03312E-01
    8987.252     -5.863   0.200  2.52489E-01  3.59399E-01 -1.06910E-01
    8987.319     -5.796   0.240  2.63431E-01  3.74443E-01 -1.11012E-01
    8987.398     -5.717   0.280  2.76263E-01  3.91691E-01 -1.15428E-01
    8987.490     -5.625   0.320  2.90694E-01  4.10636E-01 -1.19941E-01
    8987.593     -5.522   0.360  3.06388E-01  4.30741E-01 -1.24354E-01
    8987.709     -5.406   0.400  3.22740E-01  4.51355E-01 -1.28615E-01
    8987.837     -5.278   0.440  3.39155E-01  4.71918E-01 -1.32763E-01
    8987.977     -5.138   0.480  3.55132E-01  4.92000E-01 -1.36869E-01
    8988.130     -4.985   0.520  3.70491E-01  5.11310E-01 -1.40819E-01
    8988.294     -4.821   0.560  3.85690E-01  5.29743E-01 -1.44053E-01
    8988.471     -4.644   0.600  4.01628E-01  5.47270E-01 -1.45641E-01
    8988.660     -4.455   0.640  4.19177E-01  5.63935E-01 -1.44759E-01
    8988.861     -4.254   0.680  4.38448E-01  5.79844E-01 -1.41395E-01
    8989.075     -4.040   0.720  4.58588E-01  5.95096E-01 -1.36508E-01
    8989.300     -3.815   0.760  4.78194E-01  6.09793E-01 -1.31599E-01
    8989.538     -3.577   0.800  4.95697E-01  6.24064E-01 -1.28367E-01
    8989.788     -3.327   0.840  5.09318E-01  6.37986E-01 -1.28668E-01
    8990.050     -3.065   0.880  5.17584E-01  6.51624E-01 -1.34040E-01
    8990.324     -2.791   0.920  5.21515E-01  6.65007E-01 -1.43491E-01
    8990.611     -2.504   0.960  5.26142E-01  6.78229E-01 -1.52088E-01
    8990.910     -2.206   1.000  5.37482E-01  6.91277E-01 -1.53795E-01
    8991.220     -1.895   1.040  5.58229E-01  7.04187E-01 -1.45958E-01
    8991.544     -1.572   1.080  5.86778E-01  7.16966E-01 -1.30188E-01
    8991.879     -1.236   1.120  6.21564E-01  7.29634E-01 -1.08070E-01
    8992.226     -0.889   1.160  6.62230E-01  7.42187E-01 -7.99565E-02
    8992.586     -0.529   1.200  7.02303E-01  7.54614E-01 -5.23120E-02
    8992.958     -0.157   1.240  7.28809E-01  7.66903E-01 -3.80935E-02
    8993.342      0.227   1.280  7.35578E-01  7.79055E-01 -4.34764E-02
    8993.738      0.623   1.320  7.31672E-01  7.91031E-01 -5.93588E-02
    8994.147      1.031   1.360  7.34920E-01  8.02830E-01 -6.79097E-02
    8994.567      1.452   1.400  7.58710E-01  8.14429E-01 -5.57183E-02
    8995.000      1.885   1.440  8.03660E-01  8.25823E-01 -2.21625E-02
    8995.445      2.330   1.480  8.59405E-01  8.36966E-01  2.24391E-02
    8995.902      2.787   1.520  9.11624E-01  8.47874E-01  6.37506E-02
    8996.372      3.256   1.560  9.50434E-01  8.58499E-01  9.19346E-02
    8996.853      3.738   1.600  9.75075E-01  8.68837E-01  1.06238E-01
    8997.347      4.232   1.640  9.94363E-01  8.78860E-01  1.15503E-01
    8997.853      4.738   1.680  1.01280E+00  8.88563E-01  1.24236E-01
    8998.371      5.256   1.720  1.02561E+00  8.97942E-01  1.27671E-01
    8998.901      5.786   1.760  1.03265E+00  9.06971E-01  1.25682E-01
    8999.444      6.329   1.800  1.03608E+00  9.15624E-01  1.20453E-01
    8999.999      6.884   1.840  1.04056E+00  9.23918E-01  1.16644E-01
    9000.566      7.450   1.880  1.05779E+00  9.31810E-01  1.25978E-01
    9001.145      8.030   1.920  1.08894E+00  9.39339E-01  1.49605E-01
    9001.736      8.621   1.960  1.12694E+00  9.46461E-01  1.80478E-01
    9002.340      9.224   2.000  1.17074E+00  9.53197E-01  2.17541E-01
    9002.955      9.840   2.040  1.21764E+00  9.59527E-01  2.58112E-01
    9003.583     10.468   2.080  1.24977E+00  9.65470E-01  2.84295E-01
    9004.223     11.108   2.120  1.25049E+00  9.71009E-01  2.79478E-01
    9004.875     11.760   2.160  1.23206E+00  9.76165E-01  2.55894E-01
    9005.540     12.425   2.200  1.20862E+00  9.80923E-01  2.27699E-01
    9006.217     13.101   2.240  1.18277E+00  9.85305E-01  1.97469E-01
    9006.905     13.790   2.280  1.16066E+00  9.89335E-01  1.71326E-01
    9007.606     14.491   2.320  1.14806E+00  9.92978E-01  1.55080E-01
    9008.320     15.205   2.360  1.14373E+00  9.96280E-01  1.47450E-01
    9009.045     15.930   2.400  1.14000E+00  9.99225E-01  1.40777E-01
    9009.783     16.668   2.440  1.13053E+00  1.00186E+00  1.28667E-01
    9010.533     17.417   2.480  1.11632E+00  1.00415E+00  1.12173E-01
    9011.295     18.179   2.520  1.10371E+00  1.00615E+00  9.75677E-02
    9012.069     18.954   2.560  1.09814E+00  1.00785E+00  9.02871E-02
    9012.855     19.740   2.600  1.09810E+00  1.00927E+00  8.88305E-02
    9013.654     20.539   2.640  1.09618E+00  1.01044E+00  8.57343E-02
    9014.464     21.349   2.680  1.08784E+00  1.01136E+00  7.64802E-02
    9015.287     22.172   2.720  1.07203E+00  1.01204E+00  5.99836E-02
    9016.123     23.007   2.760  1.04600E+00  1.01249E+00  3.35121E-02
    9016.970     23.855   2.800  1.00447E+00  1.01275E+00 -8.27796E-03
    9017.829     24.714   2.840  9.45782E-01  1.01279E+00 -6.70045E-02
    9018.701     25.586   2.880  8.86990E-01  1.01268E+00 -1.25686E-01
    9019.585     26.470   2.920  8.55334E-01  1.01238E+00 -1.57049E-01
    9020.481     27.366   2.960  8.45423E-01  1.01196E+00 -1.66533E-01
    9021.389     28.274   3.000  8.44785E-01  1.01140E+00 -1.66612E-01
    9022.310     29.195   3.040  8.47268E-01  1.01072E+00 -1.63450E-01
    9023.243     30.128   3.080  8.50663E-01  1.00992E+00 -1.59260E-01
    9024.188     31.072   3.120  8.54708E-01  1.00904E+00 -1.54329E-01
    9025.145     32.029   3.160  8.59151E-01  1.00807E+00 -1.48916E-01
    9026.114     32.999   3.200  8.63602E-01  1.00702E+00 -1.43417E-01
    9027.095     33.980   3.240  8.68048E-01  1.00590E+00 -1.37851E-01
    9028.089     34.974   3.280  8.73098E-01  1.00475E+00 -1.31655E-01
    9029.095     35.980   3.320  8.79165E-01  1.00354E+00 -1.24379E-01
    9030.113     36.998   3.360  8.86890E-01  1.00232E+00 -1.15430E-01
    9031.143     38.028   3.400  8.96635E-01  1.00106E+00 -1.04430E-01
    9032.185     39.070   3.440  9.08136E-01  9.99802E-01 -9.16651E-02
    9033.240     40.125   3.480  9.20481E-01  9.98536E-01 -7.80551E-02
    9034.307     41.192   3.520  9.32748E-01  9.97293E-01 -6.45455E-02
    9035.386     42.271   3.560  9.44185E-01  9.96033E-01 -5.18485E-02
    9036.477     43.362   3.600  9.54430E-01  9.94801E-01 -4.03704E-02
    9037.580     44.465   3.640  9.63776E-01  9.93600E-01 -2.98245E-02
    9038.696     45.581   3.680  9.72757E-01  9.92413E-01 -1.96560E-02
    9039.824     46.709   3.720  9.81847E-01  9.91261E-01 -9.41418E-03
    9040.964     47.849   3.760  9.91229E-01  9.90170E-01  1.05895E-03
    9042.116     49.001   3.800  1.00068E+00  9.89100E-01  1.15817E-02
    9043.280     50.165   3.840  1.00971E+00  9.88092E-01  2.16147E-02
    9044.457     51.342   3.880  1.01781E+00  9.87128E-01  3.06795E-02
    9045.645     52.530   3.920  1.02501E+00  9.86212E-01  3.87945E-02
    9046.846     53.731   3.960  1.03184E+00  9.85362E-01  4.64764E-02
    9048.059     54.944   4.000  1.03890E+00  9.84561E-01  5.43432E-02
    9049.285     56.170   4.040  1.04659E+00  9.83830E-01  6.27623E-02
    9050.522     57.407   4.080  1.05468E+00  9.83149E-01  7.15360E-02
    9051.772     58.657   4.120  1.06254E+00  9.82540E-01  7.99995E-02
    9053.034     59.919   4.160  1.06943E+00  9.82003E-01  8.74248E-02
    9054.308     61.193   4.200  1.07473E+00  9.81517E-01  9.32176E-02
    9055.594     62.479   4.240  1.07798E+00  9.81102E-01  9.68772E-02
    9056.892     63.777   4.280  1.07871E+00  9.80737E-01  9.79702E-02
    9058.203     65.088   4.320  1.07670E+00  9.80446E-01  9.62534E-02
    9059.526     66.411   4.360  1.07184E+00  9.80226E-01  9.16117E-02
    9060.861     67.746   4.400  1.06422E+00  9.80056E-01  8.41650E-02
    9062.208     69.093   4.440  1.05423E+00  9.79956E-01  7.42754E-02
    9063.567     70.452   4.480  1.04226E+00  9.79905E-01  6.23560E-02
    9064.939     71.824   4.520  1.02878E+00  9.79922E-01  4.88602E-02
    9066.323     73.208   4.560  1.01438E+00  9.79985E-01  3.43925E-02
    9067.719     74.604   4.600  9.99858E-01  9.80092E-01  1.97658E-02
    9069.127     76.012   4.640  9.86220E-01  9.80242E-01  5.97829E-03
    9070.547     77.432   4.680  9.74507E-01  9.80457E-01 -5.95006E-03
    9071.980     78.865   4.720  9.65441E-01  9.80715E-01 -1.52739E-02
    9073.425     80.310   4.760  9.59307E-01  9.81011E-01 -2.17047E-02
    9074.882     81.767   4.800  9.55905E-01  9.81324E-01 -2.54183E-02
    9076.351     83.236   4.840  9.54693E-01  9.81695E-01 -2.70018E-02
    9077.832     84.717   4.880  9.54831E-01  9.82083E-01 -2.72521E-02
    9079.326     86.210   4.920  9.55507E-01  9.82525E-01 -2.70184E-02
    9080.831     87.716   4.960  9.55948E-01  9.82956E-01 -2.70082E-02
    9082.349     89.234   5.000  9.55889E-01  9.83438E-01 -2.75490E-02
    9083.879     90.764   5.040  9.55380E-01  9.83906E-01 -2.85263E-02
    9085.422     92.306   5.080  9.54922E-01  9.84400E-01 -2.94788E-02
    9086.976     93.861   5.120  9.55011E-01  9.84899E-01 -2.98885E-02
    9088.543     95.428   5.160  9.55958E-01  9.85422E-01 -2.94636E-02
    9090.122     97.006   5.200  9.57711E-01  9.85922E-01 -2.82110E-02
    9091.713     98.598   5.240  9.59988E-01  9.86419E-01 -2.64305E-02
    9093.316    100.201   5.280  9.62353E-01  9.86914E-01 -2.45610E-02
    9094.931    101.816   5.320  9.64354E-01  9.87404E-01 -2.30507E-02
    9096.559    103.444   5.360  9.65667E-01  9.87890E-01 -2.22225E-02
    9098.199    105.084   5.400  9.66128E-01  9.88344E-01 -2.22154E-02
    9099.851    106.736   5.440  9.65725E-01  9.88766E-01 -2.30405E-02
    9101.515    108.400   5.480  9.64576E-01  9.89200E-01 -2.46238E-02
    9103.191    110.076   5.520  9.62772E-01  9.89578E-01 -2.68063E-02
    9104.880    111.765   5.560  9.60550E-01  9.89940E-01 -2.93895E-02
    9106.581    113.466   5.600  9.58063E-01  9.90242E-01 -3.21785E-02
    9108.294    115.179   5.640  9.55632E-01  9.90529E-01 -3.48963E-02
    9110.019    116.904   5.680  9.53755E-01  9.90778E-01 -3.70231E-02
    9111.756    118.641   5.720  9.53187E-01  9.90990E-01 -3.78021E-02
    9113.506    120.391   5.760  9.54695E-01  9.91185E-01 -3.64894E-02
    9115.267    122.152   5.800  9.58639E-01  9.91314E-01 -3.26744E-02
    9117.041    123.926   5.840  9.64914E-01  9.91376E-01 -2.64627E-02
    9118.828    125.712   5.880  9.72969E-01  9.91421E-01 -1.84517E-02
    9120.626    127.511   5.920  9.81896E-01  9.91423E-01 -9.52694E-03
    9122.436    129.321   5.960  9.90712E-01  9.91352E-01 -6.40288E-04
    9124.259    131.144   6.000  9.98733E-01  9.91209E-01  7.52410E-03
