# # comment:                                                     FEFF 9.9.1  
# # Source:
# # Structure
# # Reduced
# # space
# # abc:
# # angles:
# # sites:
# # POT  SCF 100  7.0000   0, screened core-hole, AFOLP (folp(0)= 1.150)
# # Abs   Z=29 Rmt= 1.181 Rnm= 1.286 K  shell
# # Pot 1 Z=39 Rmt= 1.620 Rnm= 1.698
# # Pot 2 Z=29 Rmt= 1.184 Rnm= 1.289
# # Pot 3 Z= 8 Rmt= 1.048 Rnm= 1.109
# # Gam_ch=1.729E+00 H-L exch Vi= 0.000E+00 Vr= 0.000E+00
# # Mu=-8.009E+00eV kf=2.127E+00 Vint=-1.629E+01eV Rs_int= 1.705
# FMS rfms= 9.0000
# # PATH  Rmax=-1.000,  Keep_limit= 0.00, Heap_limit 0.00  Pwcrit= 2.50%
#  S02=0.950  Temp=   0.00  Debye_temp=   0.00  Global_sig2= 0.00000
#  Energy zero shift, vr, vi    0.00000E+00   0.00000E+00
#  Curved wave amplitude ratio filter   4.000%
#     file         sig2 tot  cw amp ratio   deg  nlegs   reff  inp sig2
#     0/   0 paths used
#  xsedge+ 50, used to normalize mu           2.4539E-04
#  -----------------------------------------------------------------------
#  omega    e    k    mu    mu0     chi     @#
    8983.940    -11.819  -1.000  3.56460E-02  5.38452E-02 -1.81992E-02
    8984.239    -11.520  -0.960  3.74078E-02  5.77371E-02 -2.03293E-02
    8984.525    -11.234  -0.920  3.92893E-02  6.20591E-02 -2.27698E-02
    8984.799    -10.959  -0.880  4.13014E-02  6.68742E-02 -2.55728E-02
    8985.062    -10.697  -0.840  4.34564E-02  7.22555E-02 -2.87991E-02
    8985.312    -10.447  -0.800  4.57680E-02  7.82880E-02 -3.25200E-02
    8985.549    -10.210  -0.760  4.82513E-02  8.50689E-02 -3.68176E-02
    8985.775     -9.984  -0.720  5.09227E-02  9.27081E-02 -4.17854E-02
    8985.988     -9.771  -0.680  5.37997E-02  1.01326E-01 -4.75266E-02
    8986.189     -9.570  -0.640  5.68999E-02  1.11051E-01 -5.41515E-02
    8986.378     -9.381  -0.600  6.02387E-02  1.22008E-01 -6.17694E-02
    8986.555     -9.204  -0.560  6.38269E-02  1.34303E-01 -7.04764E-02
    8986.720     -9.039  -0.520  6.76649E-02  1.48000E-01 -8.03351E-02
    8986.872     -8.887  -0.480  7.17364E-02  1.63083E-01 -9.13470E-02
    8987.012     -8.747  -0.440  7.60007E-02  1.79421E-01 -1.03421E-01
    8987.140     -8.619  -0.400  8.03861E-02  1.96731E-01 -1.16345E-01
    8987.256     -8.503  -0.360  8.47893E-02  2.14566E-01 -1.29777E-01
    8987.360     -8.399  -0.320  8.90829E-02  2.32350E-01 -1.43267E-01
    8987.451     -8.308  -0.280  9.31311E-02  2.49440E-01 -1.56309E-01
    8987.530     -8.228  -0.240  9.68094E-02  2.65217E-01 -1.68408E-01
    8987.598     -8.161  -0.200  1.00020E-01  2.79164E-01 -1.79144E-01
    8987.652     -8.107  -0.160  1.02697E-01  2.90899E-01 -1.88202E-01
    8987.695     -8.064  -0.120  1.04805E-01  3.00179E-01 -1.95374E-01
    8987.726     -8.033  -0.080  1.06327E-01  3.06867E-01 -2.00540E-01
    8987.750     -8.009   0.000  1.07571E-01  3.12242E-01 -2.04671E-01
    8987.805     -7.954   0.120  1.10276E-01  3.24360E-01 -2.14085E-01
    8987.847     -7.911   0.160  1.12322E-01  3.33785E-01 -2.21463E-01
    8987.902     -7.857   0.200  1.14903E-01  3.45830E-01 -2.30927E-01
    8987.969     -7.790   0.240  1.17955E-01  3.60318E-01 -2.42363E-01
    8988.049     -7.710   0.280  1.21424E-01  3.76989E-01 -2.55565E-01
    8988.140     -7.619   0.320  1.25257E-01  3.95391E-01 -2.70134E-01
    8988.244     -7.515   0.360  1.29451E-01  4.15053E-01 -2.85602E-01
    8988.360     -7.399   0.400  1.34052E-01  4.35387E-01 -3.01335E-01
    8988.488     -7.271   0.440  1.39232E-01  4.55893E-01 -3.16661E-01
    8988.628     -7.131   0.480  1.45330E-01  4.76164E-01 -3.30834E-01
    8988.780     -6.979   0.520  1.52868E-01  4.95974E-01 -3.43105E-01
    8988.945     -6.814   0.560  1.62431E-01  5.15168E-01 -3.52737E-01
    8989.122     -6.637   0.600  1.74826E-01  5.33712E-01 -3.58886E-01
    8989.311     -6.448   0.640  1.91098E-01  5.51682E-01 -3.60585E-01
    8989.512     -6.247   0.680  2.12489E-01  5.69105E-01 -3.56616E-01
    8989.725     -6.034   0.720  2.40511E-01  5.86101E-01 -3.45590E-01
    8989.951     -5.808   0.760  2.76478E-01  6.02749E-01 -3.26271E-01
    8990.188     -5.571   0.800  3.20904E-01  6.19100E-01 -2.98196E-01
    8990.438     -5.321   0.840  3.73545E-01  6.35209E-01 -2.61664E-01
    8990.700     -5.059   0.880  4.34275E-01  6.51119E-01 -2.16844E-01
    8990.975     -4.784   0.920  5.01293E-01  6.66883E-01 -1.65590E-01
    8991.261     -4.498   0.960  5.64659E-01  6.82477E-01 -1.17817E-01
    8991.560     -4.199   1.000  6.06108E-01  6.97950E-01 -9.18417E-02
    8991.871     -3.888   1.040  6.12886E-01  7.13260E-01 -1.00374E-01
    8992.194     -3.565   1.080  5.90177E-01  7.28401E-01 -1.38224E-01
    8992.529     -3.230   1.120  5.55098E-01  7.43378E-01 -1.88280E-01
    8992.877     -2.882   1.160  5.21506E-01  7.58132E-01 -2.36627E-01
    8993.236     -2.523   1.200  4.94858E-01  7.72662E-01 -2.77804E-01
    8993.608     -2.151   1.240  4.75740E-01  7.86943E-01 -3.11203E-01
    8993.992     -1.767   1.280  4.63412E-01  8.00925E-01 -3.37513E-01
    8994.388     -1.370   1.320  4.60808E-01  8.14602E-01 -3.53795E-01
    8994.797     -0.962   1.360  4.71528E-01  8.27925E-01 -3.56396E-01
    8995.218     -0.541   1.400  4.91221E-01  8.40861E-01 -3.49641E-01
    8995.650     -0.109   1.440  5.14941E-01  8.53404E-01 -3.38462E-01
    8996.095      0.336   1.480  5.42621E-01  8.65523E-01 -3.22901E-01
    8996.553      0.794   1.520  5.71974E-01  8.77168E-01 -3.05194E-01
    8997.022      1.263   1.560  6.02713E-01  8.88374E-01 -2.85660E-01
    8997.504      1.745   1.600  6.41833E-01  8.99073E-01 -2.57240E-01
    8997.997      2.238   1.640  6.97800E-01  9.09261E-01 -2.11461E-01
    8998.503      2.744   1.680  7.68788E-01  9.18953E-01 -1.50164E-01
    8999.021      3.262   1.720  8.40977E-01  9.28106E-01 -8.71286E-02
    8999.552      3.793   1.760  9.07231E-01  9.36741E-01 -2.95100E-02
    9000.094      4.335   1.800  9.71971E-01  9.44858E-01  2.71137E-02
    9000.649      4.890   1.840  1.04619E+00  9.52436E-01  9.37504E-02
    9001.216      5.457   1.880  1.15009E+00  9.59501E-01  1.90590E-01
    9001.795      6.036   1.920  1.29703E+00  9.66035E-01  3.30992E-01
    9002.386      6.627   1.960  1.46135E+00  9.72065E-01  4.89287E-01
    9002.990      7.231   2.000  1.57266E+00  9.77616E-01  5.95041E-01
    9003.606      7.847   2.040  1.58038E+00  9.82676E-01  5.97703E-01
    9004.233      8.475   2.080  1.51917E+00  9.87253E-01  5.31921E-01
    9004.874      9.115   2.120  1.44252E+00  9.91395E-01  4.51124E-01
    9005.526      9.767   2.160  1.35595E+00  9.95114E-01  3.60839E-01
    9006.190     10.431   2.200  1.25689E+00  9.98397E-01  2.58494E-01
    9006.867     11.108   2.240  1.16517E+00  1.00129E+00  1.63874E-01
    9007.556     11.797   2.280  1.10539E+00  1.00382E+00  1.01568E-01
    9008.257     12.498   2.320  1.08821E+00  1.00600E+00  8.22081E-02
    9008.970     13.211   2.360  1.10568E+00  1.00783E+00  9.78522E-02
    9009.695     13.937   2.400  1.13579E+00  1.00935E+00  1.26436E-01
    9010.433     14.674   2.440  1.15750E+00  1.01059E+00  1.46909E-01
    9011.183     15.424   2.480  1.16387E+00  1.01155E+00  1.52321E-01
    9011.945     16.186   2.520  1.16255E+00  1.01227E+00  1.50273E-01
    9012.719     16.960   2.560  1.15751E+00  1.01276E+00  1.44747E-01
    9013.505     17.746   2.600  1.14699E+00  1.01302E+00  1.33970E-01
    9014.304     18.545   2.640  1.12684E+00  1.01312E+00  1.13722E-01
    9015.115     19.356   2.680  1.09900E+00  1.01302E+00  8.59776E-02
    9015.938     20.179   2.720  1.06909E+00  1.01277E+00  5.63215E-02
    9016.773     21.014   2.760  1.04138E+00  1.01239E+00  2.89972E-02
    9017.620     21.861   2.800  1.01729E+00  1.01188E+00  5.41021E-03
    9018.480     22.721   2.840  9.97204E-01  1.01127E+00 -1.40699E-02
    9019.351     23.593   2.880  9.80770E-01  1.01056E+00 -2.97912E-02
    9020.235     24.476   2.920  9.66799E-01  1.00979E+00 -4.29910E-02
    9021.132     25.373   2.960  9.54294E-01  1.00894E+00 -5.46507E-02
    9022.040     26.281   3.000  9.42333E-01  1.00805E+00 -6.57178E-02
    9022.960     27.201   3.040  9.30202E-01  1.00711E+00 -7.69125E-02
    9023.893     28.134   3.080  9.17594E-01  1.00614E+00 -8.85491E-02
    9024.838     29.079   3.120  9.04634E-01  1.00516E+00 -1.00528E-01
    9025.795     30.036   3.160  8.91659E-01  1.00417E+00 -1.12516E-01
    9026.764     31.005   3.200  8.79394E-01  1.00319E+00 -1.23793E-01
    9027.746     31.987   3.240  8.68978E-01  1.00220E+00 -1.33224E-01
    9028.739     32.980   3.280  8.61339E-01  1.00125E+00 -1.39907E-01
    9029.745     33.986   3.320  8.56934E-01  1.00030E+00 -1.43364E-01
    9030.763     35.004   3.360  8.55776E-01  9.99383E-01 -1.43606E-01
    9031.793     36.034   3.400  8.57419E-01  9.98482E-01 -1.41063E-01
    9032.836     37.077   3.440  8.61051E-01  9.97642E-01 -1.36590E-01
    9033.890     38.131   3.480  8.66131E-01  9.96843E-01 -1.30712E-01
    9034.957     39.198   3.520  8.72554E-01  9.96087E-01 -1.23533E-01
    9036.036     40.277   3.560  8.80315E-01  9.95375E-01 -1.15060E-01
    9037.127     41.368   3.600  8.89477E-01  9.94730E-01 -1.05253E-01
    9038.231     42.472   3.640  8.99896E-01  9.94132E-01 -9.42359E-02
    9039.346     43.587   3.680  9.11224E-01  9.93581E-01 -8.23570E-02
    9040.474     44.715   3.720  9.22840E-01  9.93100E-01 -7.02597E-02
    9041.614     45.855   3.760  9.34251E-01  9.92689E-01 -5.84380E-02
    9042.766     47.007   3.800  9.44974E-01  9.92307E-01 -4.73335E-02
    9043.930     48.171   3.840  9.54824E-01  9.92016E-01 -3.71924E-02
    9045.107     49.348   3.880  9.64047E-01  9.91775E-01 -2.77284E-02
    9046.296     50.537   3.920  9.73367E-01  9.91582E-01 -1.82155E-02
    9047.497     51.738   3.960  9.83544E-01  9.91461E-01 -7.91734E-03
    9048.710     52.951   4.000  9.95021E-01  9.91409E-01  3.61151E-03
    9049.935     54.176   4.040  1.00783E+00  9.91384E-01  1.64458E-02
    9051.172     55.414   4.080  1.02170E+00  9.91448E-01  3.02490E-02
    9052.422     56.663   4.120  1.03594E+00  9.91538E-01  4.44062E-02
    9053.684     57.925   4.160  1.04992E+00  9.91693E-01  5.82292E-02
    9054.958     59.199   4.200  1.06268E+00  9.91894E-01  7.07843E-02
    9056.244     60.485   4.240  1.07327E+00  9.92160E-01  8.11093E-02
    9057.543     61.784   4.280  1.08100E+00  9.92444E-01  8.85522E-02
    9058.853     63.094   4.320  1.08567E+00  9.92770E-01  9.29048E-02
    9060.176     64.417   4.360  1.08752E+00  9.93155E-01  9.43619E-02
    9061.511     65.752   4.400  1.08692E+00  9.93558E-01  9.33634E-02
    9062.858     67.100   4.440  1.08453E+00  9.93996E-01  9.05355E-02
    9064.218     68.459   4.480  1.08088E+00  9.94468E-01  8.64079E-02
    9065.589     69.830   4.520  1.07634E+00  9.94951E-01  8.13938E-02
    9066.973     71.214   4.560  1.07122E+00  9.95466E-01  7.57579E-02
    9068.369     72.610   4.600  1.06555E+00  9.96013E-01  6.95403E-02
    9069.777     74.018   4.640  1.05918E+00  9.96565E-01  6.26181E-02
    9071.198     75.439   4.680  1.05210E+00  9.97121E-01  5.49828E-02
    9072.630     76.871   4.720  1.04456E+00  9.97679E-01  4.68788E-02
    9074.075     78.316   4.760  1.03700E+00  9.98261E-01  3.87340E-02
    9075.532     79.773   4.800  1.02985E+00  9.98822E-01  3.10259E-02
    9077.001     81.242   4.840  1.02352E+00  9.99402E-01  2.41170E-02
    9078.482     82.723   4.880  1.01823E+00  9.99957E-01  1.82743E-02
    9079.976     84.217   4.920  1.01418E+00  1.00051E+00  1.36706E-02
    9081.482     85.723   4.960  1.01127E+00  1.00105E+00  1.02227E-02
    9083.000     87.241   5.000  1.00908E+00  1.00156E+00  7.51531E-03
    9084.530     88.771   5.040  1.00694E+00  1.00207E+00  4.87301E-03
    9086.072     90.313   5.080  1.00409E+00  1.00256E+00  1.52904E-03
    9087.626     91.867   5.120  9.99925E-01  1.00300E+00 -3.07326E-03
    9089.193     93.434   5.160  9.94356E-01  1.00345E+00 -9.08995E-03
    9090.772     95.013   5.200  9.87739E-01  1.00384E+00 -1.60970E-02
    9092.363     96.604   5.240  9.81079E-01  1.00421E+00 -2.31317E-02
    9093.966     98.207   5.280  9.75499E-01  1.00455E+00 -2.90474E-02
    9095.582     99.823   5.320  9.71792E-01  1.00484E+00 -3.30520E-02
    9097.209    101.450   5.360  9.70086E-01  1.00510E+00 -3.50138E-02
    9098.849    103.090   5.400  9.69821E-01  1.00531E+00 -3.54934E-02
    9100.501    104.742   5.440  9.70088E-01  1.00549E+00 -3.54014E-02
    9102.165    106.406   5.480  9.70087E-01  1.00562E+00 -3.55356E-02
    9103.842    108.083   5.520  9.69387E-01  1.00571E+00 -3.63276E-02
    9105.530    109.771   5.560  9.67817E-01  1.00577E+00 -3.79481E-02
    9107.231    111.472   5.600  9.65538E-01  1.00577E+00 -4.02367E-02
    9108.944    113.185   5.640  9.63258E-01  1.00574E+00 -4.24836E-02
    9110.669    114.910   5.680  9.62176E-01  1.00567E+00 -4.34902E-02
    9112.407    116.648   5.720  9.63365E-01  1.00553E+00 -4.21604E-02
    9114.156    118.397   5.760  9.67272E-01  1.00537E+00 -3.80967E-02
    9115.918    120.159   5.800  9.73330E-01  1.00517E+00 -3.18443E-02
    9117.692    121.933   5.840  9.80273E-01  1.00494E+00 -2.46685E-02
    9119.478    123.719   5.880  9.86623E-01  1.00467E+00 -1.80450E-02
    9121.276    125.517   5.920  9.91210E-01  1.00433E+00 -1.31238E-02
    9123.087    127.328   5.960  9.93533E-01  1.00399E+00 -1.04528E-02
    9124.909    129.150   6.000  9.93546E-01  1.00358E+00 -1.00311E-02
