# # comment:                                                     FEFF 9.9.1  
# # Source:
# # Structure
# # Reduced
# # space
# # abc:
# # angles:
# # sites:
# # POT  SCF 100  7.0000   0, screened core-hole, AFOLP (folp(0)= 1.150)
# # Abs   Z=29 Rmt= 1.157 Rnm= 1.289 K  shell
# # Pot 1 Z=29 Rmt= 1.193 Rnm= 1.315
# # Pot 2 Z=52 Rmt= 1.261 Rnm= 1.436
# # Pot 3 Z=82 Rmt= 1.751 Rnm= 1.825
# # Pot 4 Z= 8 Rmt= 1.031 Rnm= 1.136
# # Gam_ch=1.729E+00 H-L exch Vi= 0.000E+00 Vr= 0.000E+00
# # Mu=-6.700E+00eV kf=2.091E+00 Vint=-1.395E+01eV Rs_int= 1.734
# FMS rfms= 9.0000
# # PATH  Rmax=-1.000,  Keep_limit= 0.00, Heap_limit 0.00  Pwcrit= 2.50%
#  S02=0.950  Temp=   0.00  Debye_temp=   0.00  Global_sig2= 0.00000
#  Energy zero shift, vr, vi    0.00000E+00   0.00000E+00
#  Curved wave amplitude ratio filter   4.000%
#     file         sig2 tot  cw amp ratio   deg  nlegs   reff  inp sig2
#     0/   0 paths used
#  xsedge+ 50, used to normalize mu           2.4178E-04
#  -----------------------------------------------------------------------
#  omega    e    k    mu    mu0     chi     @#
    8983.464    -10.510  -1.000  3.28487E-02  5.64920E-02 -2.36433E-02
    8983.762    -10.212  -0.960  3.42279E-02  6.05768E-02 -2.63489E-02
    8984.049     -9.925  -0.920  3.56774E-02  6.51093E-02 -2.94319E-02
    8984.323     -9.651  -0.880  3.72018E-02  7.01545E-02 -3.29527E-02
    8984.585     -9.389  -0.840  3.88066E-02  7.57879E-02 -3.69814E-02
    8984.835     -9.139  -0.800  4.04973E-02  8.20967E-02 -4.15995E-02
    8985.073     -8.901  -0.760  4.22803E-02  8.91809E-02 -4.69006E-02
    8985.299     -8.675  -0.720  4.41624E-02  9.71530E-02 -5.29906E-02
    8985.512     -8.462  -0.680  4.61505E-02  1.06137E-01 -5.99866E-02
    8985.713     -8.261  -0.640  4.82513E-02  1.16263E-01 -6.80121E-02
    8985.902     -8.072  -0.600  5.04704E-02  1.27660E-01 -7.71895E-02
    8986.079     -7.895  -0.560  5.28106E-02  1.40435E-01 -8.76245E-02
    8986.244     -7.731  -0.520  5.52698E-02  1.54653E-01 -9.93830E-02
    8986.396     -7.578  -0.480  5.78378E-02  1.70297E-01 -1.12459E-01
    8986.536     -7.438  -0.440  6.04928E-02  1.87231E-01 -1.26738E-01
    8986.664     -7.310  -0.400  6.31987E-02  2.05162E-01 -1.41964E-01
    8986.780     -7.194  -0.360  6.59043E-02  2.23634E-01 -1.57730E-01
    8986.884     -7.091  -0.320  6.85460E-02  2.42053E-01 -1.73507E-01
    8986.975     -6.999  -0.280  7.10543E-02  2.59756E-01 -1.88702E-01
    8987.054     -6.920  -0.240  7.33617E-02  2.76107E-01 -2.02745E-01
    8987.121     -6.853  -0.200  7.54096E-02  2.90568E-01 -2.15159E-01
    8987.176     -6.798  -0.160  7.71514E-02  3.02745E-01 -2.25593E-01
    8987.219     -6.755  -0.120  7.85531E-02  3.12379E-01 -2.33826E-01
    8987.249     -6.725  -0.080  7.95899E-02  3.19326E-01 -2.39736E-01
    8987.274     -6.700   0.000  8.04757E-02  3.24912E-01 -2.44436E-01
    8987.329     -6.646   0.120  8.24509E-02  3.37527E-01 -2.55076E-01
    8987.371     -6.603   0.160  8.38885E-02  3.47321E-01 -2.63432E-01
    8987.426     -6.548   0.200  8.57479E-02  3.59869E-01 -2.74121E-01
    8987.493     -6.481   0.240  8.80170E-02  3.75002E-01 -2.86985E-01
    8987.572     -6.402   0.280  9.06735E-02  3.92446E-01 -3.01773E-01
    8987.664     -6.310   0.320  9.37241E-02  4.11775E-01 -3.18051E-01
    8987.768     -6.207   0.360  9.71647E-02  4.32478E-01 -3.35313E-01
    8987.883     -6.091   0.400  1.01028E-01  4.53990E-01 -3.52962E-01
    8988.011     -5.963   0.440  1.05371E-01  4.75811E-01 -3.70440E-01
    8988.152     -5.823   0.480  1.10303E-01  4.97554E-01 -3.87251E-01
    8988.304     -5.670   0.520  1.15877E-01  5.18949E-01 -4.03072E-01
    8988.469     -5.506   0.560  1.22174E-01  5.39838E-01 -4.17664E-01
    8988.645     -5.329   0.600  1.29380E-01  5.60226E-01 -4.30846E-01
    8988.834     -5.140   0.640  1.37609E-01  5.80101E-01 -4.42492E-01
    8989.035     -4.939   0.680  1.47184E-01  5.99566E-01 -4.52381E-01
    8989.249     -4.725   0.720  1.58239E-01  6.18653E-01 -4.60415E-01
    8989.474     -4.500   0.760  1.70861E-01  6.37457E-01 -4.66595E-01
    8989.712     -4.262   0.800  1.84786E-01  6.56036E-01 -4.71250E-01
    8989.962     -4.012   0.840  1.99584E-01  6.74399E-01 -4.74815E-01
    8990.224     -3.750   0.880  2.15020E-01  6.92578E-01 -4.77559E-01
    8990.499     -3.476   0.920  2.31686E-01  7.10595E-01 -4.78909E-01
    8990.785     -3.189   0.960  2.51325E-01  7.28456E-01 -4.77131E-01
    8991.084     -2.890   1.000  2.76057E-01  7.46119E-01 -4.70061E-01
    8991.395     -2.580   1.040  3.07157E-01  7.63571E-01 -4.56414E-01
    8991.718     -2.256   1.080  3.43965E-01  7.80773E-01 -4.36808E-01
    8992.053     -1.921   1.120  3.84792E-01  7.97681E-01 -4.12889E-01
    8992.400     -1.574   1.160  4.29293E-01  8.14267E-01 -3.84974E-01
    8992.760     -1.214   1.200  4.80160E-01  8.30499E-01 -3.50339E-01
    8993.132     -0.842   1.240  5.42490E-01  8.46301E-01 -3.03812E-01
    8993.516     -0.458   1.280  6.16525E-01  8.61661E-01 -2.45136E-01
    8993.912     -0.062   1.320  6.86202E-01  8.76522E-01 -1.90320E-01
    8994.321      0.347   1.360  7.33218E-01  8.90827E-01 -1.57609E-01
    8994.741      0.767   1.400  7.67721E-01  9.04565E-01 -1.36844E-01
    8995.174      1.200   1.440  8.04497E-01  9.17702E-01 -1.13205E-01
    8995.619      1.645   1.480  8.37166E-01  9.30206E-01 -9.30403E-02
    8996.076      2.102   1.520  8.54257E-01  9.42028E-01 -8.77707E-02
    8996.546      2.572   1.560  8.51501E-01  9.53182E-01 -1.01681E-01
    8997.027      3.053   1.600  8.40654E-01  9.63663E-01 -1.23009E-01
    8997.521      3.547   1.640  8.45649E-01  9.73427E-01 -1.27778E-01
    8998.027      4.053   1.680  8.78875E-01  9.82494E-01 -1.03619E-01
    8998.545      4.571   1.720  9.27282E-01  9.90846E-01 -6.35638E-02
    8999.076      5.101   1.760  9.74547E-01  9.98508E-01 -2.39607E-02
    8999.618      5.644   1.800  1.02623E+00  1.00549E+00  2.07391E-02
    9000.173      6.199   1.840  1.09554E+00  1.01179E+00  8.37554E-02
    9000.740      6.766   1.880  1.17702E+00  1.01742E+00  1.59596E-01
    9001.319      7.345   1.920  1.25433E+00  1.02244E+00  2.31884E-01
    9001.910      7.936   1.960  1.33432E+00  1.02684E+00  3.07479E-01
    9002.514      8.540   2.000  1.43109E+00  1.03064E+00  4.00445E-01
    9003.129      9.155   2.040  1.51953E+00  1.03387E+00  4.85652E-01
    9003.757      9.783   2.080  1.55530E+00  1.03659E+00  5.18717E-01
    9004.397     10.423   2.120  1.52783E+00  1.03882E+00  4.89016E-01
    9005.050     11.075   2.160  1.45938E+00  1.04053E+00  4.18844E-01
    9005.714     11.740   2.200  1.37517E+00  1.04184E+00  3.33323E-01
    9006.391     12.417   2.240  1.28923E+00  1.04271E+00  2.46515E-01
    9007.080     13.105   2.280  1.21164E+00  1.04323E+00  1.68409E-01
    9007.781     13.806   2.320  1.15131E+00  1.04338E+00  1.07932E-01
    9008.494     14.520   2.360  1.11072E+00  1.04322E+00  6.75063E-02
    9009.219     15.245   2.400  1.09046E+00  1.04277E+00  4.76921E-02
    9009.957     15.983   2.440  1.08544E+00  1.04206E+00  4.33759E-02
    9010.707     16.733   2.480  1.08457E+00  1.04111E+00  4.34648E-02
    9011.469     17.495   2.520  1.08761E+00  1.03994E+00  4.76644E-02
    9012.243     18.269   2.560  1.09017E+00  1.03858E+00  5.15882E-02
    9013.029     19.055   2.600  1.08969E+00  1.03708E+00  5.26131E-02
    9013.828     19.854   2.640  1.08645E+00  1.03544E+00  5.10121E-02
    9014.639     20.664   2.680  1.08264E+00  1.03369E+00  4.89565E-02
    9015.462     21.487   2.720  1.07965E+00  1.03184E+00  4.78043E-02
    9016.297     22.323   2.760  1.07698E+00  1.02994E+00  4.70407E-02
    9017.144     23.170   2.800  1.07311E+00  1.02797E+00  4.51408E-02
    9018.004     24.029   2.840  1.06630E+00  1.02595E+00  4.03490E-02
    9018.875     24.901   2.880  1.05605E+00  1.02390E+00  3.21564E-02
    9019.759     25.785   2.920  1.04331E+00  1.02186E+00  2.14526E-02
    9020.655     26.681   2.960  1.03025E+00  1.01983E+00  1.04243E-02
    9021.564     27.589   3.000  1.01844E+00  1.01781E+00  6.36105E-04
    9022.484     28.510   3.040  1.00809E+00  1.01581E+00 -7.72289E-03
    9023.417     29.443   3.080  9.97644E-01  1.01386E+00 -1.62191E-02
    9024.362     30.388   3.120  9.84978E-01  1.01196E+00 -2.69779E-02
    9025.319     31.345   3.160  9.69070E-01  1.01012E+00 -4.10484E-02
    9026.288     32.314   3.200  9.50597E-01  1.00834E+00 -5.77391E-02
    9027.269     33.295   3.240  9.31574E-01  1.00665E+00 -7.50781E-02
    9028.263     34.289   3.280  9.13858E-01  1.00503E+00 -9.11680E-02
    9029.269     35.295   3.320  8.98591E-01  1.00348E+00 -1.04894E-01
    9030.287     36.313   3.360  8.86179E-01  1.00205E+00 -1.15871E-01
    9031.317     37.343   3.400  8.76452E-01  1.00070E+00 -1.24251E-01
    9032.360     38.385   3.440  8.69280E-01  9.99447E-01 -1.30168E-01
    9033.414     39.440   3.480  8.64812E-01  9.98304E-01 -1.33491E-01
    9034.481     40.507   3.520  8.63289E-01  9.97275E-01 -1.33986E-01
    9035.560     41.586   3.560  8.64647E-01  9.96340E-01 -1.31693E-01
    9036.651     42.677   3.600  8.68770E-01  9.95518E-01 -1.26749E-01
    9037.755     43.780   3.640  8.75371E-01  9.94792E-01 -1.19420E-01
    9038.870     44.896   3.680  8.84043E-01  9.94182E-01 -1.10139E-01
    9039.998     46.024   3.720  8.94275E-01  9.93688E-01 -9.94137E-02
    9041.138     47.164   3.760  9.05655E-01  9.93291E-01 -8.76360E-02
    9042.290     48.316   3.800  9.17966E-01  9.93031E-01 -7.50651E-02
    9043.454     49.480   3.840  9.30959E-01  9.92844E-01 -6.18853E-02
    9044.631     50.657   3.880  9.44563E-01  9.92793E-01 -4.82297E-02
    9045.819     51.845   3.920  9.58465E-01  9.92835E-01 -3.43691E-02
    9047.020     53.046   3.960  9.72192E-01  9.92966E-01 -2.07744E-02
    9048.233     54.259   4.000  9.85314E-01  9.93210E-01 -7.89618E-03
    9049.459     55.485   4.040  9.97543E-01  9.93542E-01  4.00096E-03
    9050.696     56.722   4.080  1.00865E+00  9.93982E-01  1.46691E-02
    9051.946     57.972   4.120  1.01830E+00  9.94486E-01  2.38170E-02
    9053.208     59.234   4.160  1.02630E+00  9.95095E-01  3.12080E-02
    9054.482     60.508   4.200  1.03259E+00  9.95786E-01  3.68066E-02
    9055.768     61.794   4.240  1.03748E+00  9.96533E-01  4.09469E-02
    9057.067     63.092   4.280  1.04166E+00  9.97357E-01  4.42993E-02
    9058.377     64.403   4.320  1.04582E+00  9.98257E-01  4.75597E-02
    9059.700     65.726   4.360  1.05043E+00  9.99232E-01  5.11933E-02
    9061.035     67.061   4.400  1.05566E+00  1.00026E+00  5.54074E-02
    9062.382     68.408   4.440  1.06149E+00  1.00132E+00  6.01613E-02
    9063.742     69.768   4.480  1.06759E+00  1.00246E+00  6.51353E-02
    9065.113     71.139   4.520  1.07348E+00  1.00361E+00  6.98655E-02
    9066.497     72.523   4.560  1.07879E+00  1.00480E+00  7.39910E-02
    9067.893     73.919   4.600  1.08343E+00  1.00603E+00  7.74027E-02
    9069.301     75.327   4.640  1.08746E+00  1.00728E+00  8.01798E-02
    9070.722     76.747   4.680  1.09107E+00  1.00855E+00  8.25222E-02
    9072.154     78.180   4.720  1.09417E+00  1.00982E+00  8.43529E-02
    9073.599     79.625   4.760  1.09615E+00  1.01109E+00  8.50551E-02
    9075.056     81.082   4.800  1.09594E+00  1.01239E+00  8.35543E-02
    9076.525     82.551   4.840  1.09246E+00  1.01366E+00  7.88053E-02
    9078.006     84.032   4.880  1.08535E+00  1.01492E+00  7.04274E-02
    9079.500     85.526   4.920  1.07521E+00  1.01617E+00  5.90359E-02
    9081.005     87.031   4.960  1.06322E+00  1.01740E+00  4.58298E-02
    9082.523     88.549   5.000  1.05069E+00  1.01858E+00  3.21136E-02
    9084.053     90.079   5.040  1.03867E+00  1.01975E+00  1.89195E-02
    9085.596     91.622   5.080  1.02780E+00  1.02085E+00  6.94473E-03
    9087.150     93.176   5.120  1.01849E+00  1.02193E+00 -3.44252E-03
    9088.717     94.743   5.160  1.01066E+00  1.02295E+00 -1.22856E-02
    9090.296     96.322   5.200  1.00389E+00  1.02392E+00 -2.00242E-02
    9091.887     97.913   5.240  9.97539E-01  1.02481E+00 -2.72709E-02
    9093.490     99.516   5.280  9.91258E-01  1.02565E+00 -3.43959E-02
    9095.105    101.131   5.320  9.85132E-01  1.02645E+00 -4.13148E-02
    9096.733    102.759   5.360  9.79706E-01  1.02716E+00 -4.74574E-02
    9098.373    104.399   5.400  9.75755E-01  1.02780E+00 -5.20448E-02
    9100.025    106.051   5.440  9.73932E-01  1.02835E+00 -5.44217E-02
    9101.689    107.715   5.480  9.74511E-01  1.02883E+00 -5.43161E-02
    9103.365    109.391   5.520  9.77345E-01  1.02922E+00 -5.18754E-02
    9105.054    111.080   5.560  9.81862E-01  1.02955E+00 -4.76934E-02
    9106.755    112.781   5.600  9.87127E-01  1.02979E+00 -4.26583E-02
    9108.468    114.494   5.640  9.92202E-01  1.02996E+00 -3.77553E-02
    9110.193    116.219   5.680  9.96240E-01  1.03002E+00 -3.37832E-02
    9111.930    117.956   5.720  9.98920E-01  1.03003E+00 -3.11093E-02
    9113.680    119.706   5.760  1.00050E+00  1.02993E+00 -2.94296E-02
    9115.442    121.467   5.800  1.00181E+00  1.02975E+00 -2.79414E-02
    9117.216    123.241   5.840  1.00373E+00  1.02951E+00 -2.57893E-02
    9119.002    125.028   5.880  1.00664E+00  1.02920E+00 -2.25576E-02
    9120.800    126.826   5.920  1.01032E+00  1.02878E+00 -1.84646E-02
    9122.610    128.636   5.960  1.01407E+00  1.02830E+00 -1.42360E-02
    9124.433    130.459   6.000  1.01698E+00  1.02768E+00 -1.06973E-02
