# # comment:                                                     FEFF 9.9.1  
# # Source:
# # Structure
# # Reduced
# # space
# # abc:
# # angles:
# # sites:
# # POT  SCF 100  7.0000   0, screened core-hole, AFOLP (folp(0)= 1.150)
# # Abs   Z=29 Rmt= 1.143 Rnm= 1.240 K  shell
# # Pot 1 Z= 3 Rmt= 1.237 Rnm= 1.293
# # Pot 2 Z=29 Rmt= 1.143 Rnm= 1.241
# # Pot 3 Z=28 Rmt= 1.238 Rnm= 1.343
# # Pot 4 Z= 8 Rmt= 1.038 Rnm= 1.094
# # Gam_ch=1.729E+00 H-L exch Vi= 0.000E+00 Vr= 0.000E+00
# # Mu=-1.087E+01eV kf=2.172E+00 Vint=-1.843E+01eV Rs_int= 1.670
# FMS rfms= 9.0000
# # PATH  Rmax=-1.000,  Keep_limit= 0.00, Heap_limit 0.00  Pwcrit= 2.50%
#  S02=0.950  Temp=   0.00  Debye_temp=   0.00  Global_sig2= 0.00000
#  Energy zero shift, vr, vi    0.00000E+00   0.00000E+00
#  Curved wave amplitude ratio filter   4.000%
#     file         sig2 tot  cw amp ratio   deg  nlegs   reff  inp sig2
#     0/   0 paths used
#  xsedge+ 50, used to normalize mu           2.4559E-04
#  -----------------------------------------------------------------------
#  omega    e    k    mu    mu0     chi     @#
    8985.151    -14.681  -1.000  3.05459E-02  5.34035E-02 -2.28577E-02
    8985.450    -14.382  -0.960  3.18023E-02  5.72083E-02 -2.54059E-02
    8985.736    -14.095  -0.920  3.31276E-02  6.14271E-02 -2.82995E-02
    8986.010    -13.821  -0.880  3.45283E-02  6.61200E-02 -3.15917E-02
    8986.273    -13.559  -0.840  3.60119E-02  7.13565E-02 -3.53447E-02
    8986.522    -13.309  -0.800  3.75872E-02  7.72173E-02 -3.96302E-02
    8986.760    -13.071  -0.760  3.92644E-02  8.37947E-02 -4.45303E-02
    8986.986    -12.846  -0.720  4.10552E-02  9.11928E-02 -5.01376E-02
    8987.199    -12.632  -0.680  4.29722E-02  9.95260E-02 -5.65537E-02
    8987.400    -12.431  -0.640  4.50291E-02  1.08915E-01 -6.38857E-02
    8987.589    -12.242  -0.600  4.72386E-02  1.19477E-01 -7.22388E-02
    8987.766    -12.065  -0.560  4.96110E-02  1.31314E-01 -8.17032E-02
    8987.931    -11.901  -0.520  5.21502E-02  1.44484E-01 -9.23335E-02
    8988.083    -11.748  -0.480  5.48498E-02  1.58971E-01 -1.04121E-01
    8988.223    -11.608  -0.440  5.76872E-02  1.74650E-01 -1.16963E-01
    8988.351    -11.480  -0.400  6.06193E-02  1.91250E-01 -1.30631E-01
    8988.467    -11.364  -0.360  6.35815E-02  2.08348E-01 -1.44766E-01
    8988.571    -11.261  -0.320  6.64918E-02  2.25394E-01 -1.58902E-01
    8988.662    -11.169  -0.280  6.92604E-02  2.41776E-01 -1.72515E-01
    8988.741    -11.090  -0.240  7.18020E-02  2.56905E-01 -1.85103E-01
    8988.808    -11.023  -0.200  7.40458E-02  2.70284E-01 -1.96238E-01
    8988.863    -10.968  -0.160  7.59396E-02  2.81548E-01 -2.05608E-01
    8988.906    -10.926  -0.120  7.74502E-02  2.90460E-01 -2.13010E-01
    8988.936    -10.895  -0.080  7.85574E-02  2.96885E-01 -2.18328E-01
    8988.961    -10.871   0.000  7.94912E-02  3.02052E-01 -2.22560E-01
    8989.016    -10.816   0.120  8.15232E-02  3.13703E-01 -2.32180E-01
    8989.058    -10.773   0.160  8.30429E-02  3.22765E-01 -2.39722E-01
    8989.113    -10.718   0.200  8.49661E-02  3.34368E-01 -2.49402E-01
    8989.180    -10.651   0.240  8.72528E-02  3.48372E-01 -2.61120E-01
    8989.260    -10.572   0.280  8.98514E-02  3.64483E-01 -2.74631E-01
    8989.351    -10.481   0.320  9.27207E-02  3.82341E-01 -2.89621E-01
    8989.455    -10.377   0.360  9.57608E-02  4.01454E-01 -3.05693E-01
    8989.570    -10.261   0.400  9.89443E-02  4.21335E-01 -3.22391E-01
    8989.698    -10.133   0.440  1.02137E-01  4.41502E-01 -3.39364E-01
    8989.839     -9.993   0.480  1.05161E-01  4.61553E-01 -3.56392E-01
    8989.991     -9.840   0.520  1.07871E-01  4.81302E-01 -3.73431E-01
    8990.156     -9.676   0.560  1.10056E-01  5.00601E-01 -3.90545E-01
    8990.332     -9.499   0.600  1.11688E-01  5.19419E-01 -4.07730E-01
    8990.521     -9.310   0.640  1.13074E-01  5.37824E-01 -4.24750E-01
    8990.723     -9.109   0.680  1.14753E-01  5.55837E-01 -4.41083E-01
    8990.936     -8.896   0.720  1.17386E-01  5.73549E-01 -4.56163E-01
    8991.161     -8.670   0.760  1.21543E-01  5.91030E-01 -4.69487E-01
    8991.399     -8.432   0.800  1.27685E-01  6.08340E-01 -4.80656E-01
    8991.649     -8.182   0.840  1.36288E-01  6.25548E-01 -4.89260E-01
    8991.911     -7.920   0.880  1.47728E-01  6.42627E-01 -4.94899E-01
    8992.186     -7.646   0.920  1.62310E-01  6.59659E-01 -4.97349E-01
    8992.472     -7.359   0.960  1.79847E-01  6.76594E-01 -4.96747E-01
    8992.771     -7.061   1.000  2.00488E-01  6.93454E-01 -4.92967E-01
    8993.082     -6.750   1.040  2.26631E-01  7.10210E-01 -4.83579E-01
    8993.405     -6.427   1.080  2.63577E-01  7.26867E-01 -4.63289E-01
    8993.740     -6.091   1.120  3.17917E-01  7.43343E-01 -4.25426E-01
    8994.088     -5.744   1.160  3.94726E-01  7.59655E-01 -3.64928E-01
    8994.447     -5.384   1.200  4.89506E-01  7.75732E-01 -2.86226E-01
    8994.819     -5.012   1.240  5.80054E-01  7.91563E-01 -2.11509E-01
    8995.203     -4.628   1.280  6.45137E-01  8.07074E-01 -1.61936E-01
    8995.599     -4.232   1.320  6.91850E-01  8.22252E-01 -1.30402E-01
    8996.008     -3.824   1.360  7.26647E-01  8.37040E-01 -1.10393E-01
    8996.428     -3.403   1.400  7.32874E-01  8.51405E-01 -1.18531E-01
    8996.861     -2.970   1.440  7.09525E-01  8.65332E-01 -1.55806E-01
    8997.306     -2.525   1.480  6.78959E-01  8.78745E-01 -1.99786E-01
    8997.763     -2.068   1.520  6.57904E-01  8.91654E-01 -2.33750E-01
    8998.233     -1.599   1.560  6.53149E-01  9.04007E-01 -2.50858E-01
    8998.714     -1.117   1.600  6.60511E-01  9.15794E-01 -2.55282E-01
    8999.208     -0.623   1.640  6.68422E-01  9.26988E-01 -2.58566E-01
    8999.714     -0.117   1.680  6.77088E-01  9.37585E-01 -2.60497E-01
    9000.232      0.401   1.720  7.00214E-01  9.47578E-01 -2.47364E-01
    9000.763      0.931   1.760  7.51084E-01  9.56946E-01 -2.05862E-01
    9001.305      1.474   1.800  8.28738E-01  9.65689E-01 -1.36951E-01
    9001.860      2.028   1.840  9.26516E-01  9.73807E-01 -4.72913E-02
    9002.427      2.595   1.880  1.04170E+00  9.81304E-01  6.03958E-02
    9003.006      3.174   1.920  1.17536E+00  9.88206E-01  1.87159E-01
    9003.597      3.766   1.960  1.32427E+00  9.94518E-01  3.29749E-01
    9004.201      4.369   2.000  1.47516E+00  1.00023E+00  4.74929E-01
    9004.816      4.985   2.040  1.60687E+00  1.00538E+00  6.01488E-01
    9005.444      5.613   2.080  1.69689E+00  1.00998E+00  6.86919E-01
    9006.084      6.253   2.120  1.72689E+00  1.01405E+00  7.12837E-01
    9006.737      6.905   2.160  1.68602E+00  1.01761E+00  6.68412E-01
    9007.401      7.570   2.200  1.57515E+00  1.02070E+00  5.54450E-01
    9008.078      8.246   2.240  1.42675E+00  1.02333E+00  4.03420E-01
    9008.767      8.935   2.280  1.28670E+00  1.02552E+00  2.61185E-01
    9009.468      9.636   2.320  1.17472E+00  1.02729E+00  1.47427E-01
    9010.181     10.349   2.360  1.09054E+00  1.02869E+00  6.18463E-02
    9010.906     11.075   2.400  1.02886E+00  1.02975E+00 -8.87024E-04
    9011.644     11.812   2.440  9.84590E-01  1.03045E+00 -4.58590E-02
    9012.394     12.562   2.480  9.53743E-01  1.03085E+00 -7.71078E-02
    9013.156     13.324   2.520  9.34538E-01  1.03097E+00 -9.64289E-02
    9013.930     14.098   2.560  9.31557E-01  1.03083E+00 -9.92730E-02
    9014.716     14.885   2.600  9.59148E-01  1.03045E+00 -7.13023E-02
    9015.515     15.683   2.640  9.98215E-01  1.02984E+00 -3.16228E-02
    9016.326     16.494   2.680  1.04005E+00  1.02907E+00  1.09808E-02
    9017.149     17.317   2.720  1.07905E+00  1.02811E+00  5.09387E-02
    9017.984     18.152   2.760  1.11164E+00  1.02700E+00  8.46407E-02
    9018.831     19.000   2.800  1.13447E+00  1.02577E+00  1.08698E-01
    9019.691     19.859   2.840  1.14464E+00  1.02443E+00  1.20203E-01
    9020.562     20.731   2.880  1.14259E+00  1.02298E+00  1.19603E-01
    9021.446     21.615   2.920  1.13048E+00  1.02147E+00  1.09009E-01
    9022.342     22.511   2.960  1.11191E+00  1.01989E+00  9.20213E-02
    9023.251     23.419   3.000  1.08984E+00  1.01825E+00  7.15854E-02
    9024.171     24.340   3.040  1.06524E+00  1.01659E+00  4.86569E-02
    9025.104     25.272   3.080  1.03859E+00  1.01490E+00  2.36866E-02
    9026.049     26.217   3.120  1.01105E+00  1.01322E+00 -2.16820E-03
    9027.006     27.174   3.160  9.83785E-01  1.01151E+00 -2.77223E-02
    9027.975     28.144   3.200  9.58025E-01  1.00982E+00 -5.17995E-02
    9028.957     29.125   3.240  9.34977E-01  1.00817E+00 -7.31940E-02
    9029.950     30.119   3.280  9.15374E-01  1.00653E+00 -9.11574E-02
    9030.956     31.124   3.320  8.99684E-01  1.00493E+00 -1.05245E-01
    9031.974     32.143   3.360  8.88094E-01  1.00339E+00 -1.15297E-01
    9033.004     33.173   3.400  8.80123E-01  1.00190E+00 -1.21774E-01
    9034.047     34.215   3.440  8.74938E-01  1.00045E+00 -1.25511E-01
    9035.101     35.270   3.480  8.71709E-01  9.99052E-01 -1.27342E-01
    9036.168     36.337   3.520  8.69834E-01  9.97749E-01 -1.27915E-01
    9037.247     37.416   3.560  8.68709E-01  9.96500E-01 -1.27791E-01
    9038.338     38.507   3.600  8.68158E-01  9.95328E-01 -1.27170E-01
    9039.442     39.610   3.640  8.68150E-01  9.94233E-01 -1.26083E-01
    9040.557     40.726   3.680  8.68690E-01  9.93197E-01 -1.24507E-01
    9041.685     41.853   3.720  8.69846E-01  9.92262E-01 -1.22415E-01
    9042.825     42.993   3.760  8.71780E-01  9.91409E-01 -1.19629E-01
    9043.977     44.145   3.800  8.74906E-01  9.90639E-01 -1.15733E-01
    9045.141     45.310   3.840  8.79945E-01  9.89952E-01 -1.10007E-01
    9046.318     46.486   3.880  8.87787E-01  9.89368E-01 -1.01581E-01
    9047.507     47.675   3.920  8.99083E-01  9.88844E-01 -8.97620E-02
    9048.707     48.876   3.960  9.14076E-01  9.88402E-01 -7.43256E-02
    9049.921     50.089   4.000  9.32410E-01  9.88062E-01 -5.56529E-02
    9051.146     51.314   4.040  9.53275E-01  9.87784E-01 -3.45088E-02
    9052.383     52.552   4.080  9.75613E-01  9.87606E-01 -1.19929E-02
    9053.633     53.802   4.120  9.98042E-01  9.87488E-01  1.05540E-02
    9054.895     55.063   4.160  1.01919E+00  9.87469E-01  3.17234E-02
    9056.169     56.337   4.200  1.03774E+00  9.87508E-01  5.02364E-02
    9057.455     57.624   4.240  1.05271E+00  9.87623E-01  6.50907E-02
    9058.754     58.922   4.280  1.06360E+00  9.87814E-01  7.57818E-02
    9060.064     60.233   4.320  1.07037E+00  9.88078E-01  8.22893E-02
    9061.387     61.556   4.360  1.07327E+00  9.88392E-01  8.48737E-02
    9062.722     62.891   4.400  1.07283E+00  9.88754E-01  8.40771E-02
    9064.069     64.238   4.440  1.07003E+00  9.89186E-01  8.08420E-02
    9065.429     65.597   4.480  1.06603E+00  9.89664E-01  7.63652E-02
    9066.800     66.969   4.520  1.06202E+00  9.90208E-01  7.18088E-02
    9068.184     68.353   4.560  1.05863E+00  9.90773E-01  6.78560E-02
    9069.580     69.749   4.600  1.05591E+00  9.91397E-01  6.45112E-02
    9070.988     71.157   4.640  1.05333E+00  9.92040E-01  6.12937E-02
    9072.409     72.577   4.680  1.05047E+00  9.92742E-01  5.77284E-02
    9073.841     74.010   4.720  1.04697E+00  9.93455E-01  5.35147E-02
    9075.286     75.454   4.760  1.04289E+00  9.94177E-01  4.87156E-02
    9076.743     76.911   4.800  1.03875E+00  9.94930E-01  4.38237E-02
    9078.212     78.380   4.840  1.03528E+00  9.95710E-01  3.95669E-02
    9079.693     79.862   4.880  1.03303E+00  9.96474E-01  3.65528E-02
    9081.187     81.355   4.920  1.03236E+00  9.97261E-01  3.51027E-02
    9082.693     82.861   4.960  1.03305E+00  9.98049E-01  3.50048E-02
    9084.210     84.379   5.000  1.03458E+00  9.98834E-01  3.57502E-02
    9085.741     85.909   5.040  1.03639E+00  9.99591E-01  3.67976E-02
    9087.283     87.451   5.080  1.03811E+00  1.00034E+00  3.77632E-02
    9088.837     89.006   5.120  1.03951E+00  1.00109E+00  3.84238E-02
    9090.404     90.572   5.160  1.04030E+00  1.00182E+00  3.84829E-02
    9091.983     92.151   5.200  1.03993E+00  1.00250E+00  3.74307E-02
    9093.574     93.742   5.240  1.03776E+00  1.00317E+00  3.45906E-02
    9095.177     95.346   5.280  1.03323E+00  1.00382E+00  2.94071E-02
    9096.793     96.961   5.320  1.02630E+00  1.00441E+00  2.18932E-02
    9098.420     98.589   5.360  1.01788E+00  1.00498E+00  1.28942E-02
    9100.060    100.228   5.400  1.00916E+00  1.00549E+00  3.66920E-03
    9101.712    101.880   5.440  1.00106E+00  1.00598E+00 -4.91823E-03
    9103.376    103.545   5.480  9.93666E-01  1.00641E+00 -1.27387E-02
    9105.053    105.221   5.520  9.86825E-01  1.00678E+00 -1.99576E-02
    9106.741    106.910   5.560  9.80598E-01  1.00711E+00 -2.65160E-02
    9108.442    108.610   5.600  9.75268E-01  1.00738E+00 -3.21073E-02
    9110.155    110.323   5.640  9.70947E-01  1.00759E+00 -3.66446E-02
    9111.880    112.049   5.680  9.67179E-01  1.00776E+00 -4.05845E-02
    9113.617    113.786   5.720  9.63108E-01  1.00789E+00 -4.47802E-02
    9115.367    115.535   5.760  9.58087E-01  1.00794E+00 -4.98534E-02
    9117.129    117.297   5.800  9.52019E-01  1.00792E+00 -5.59052E-02
    9118.903    119.071   5.840  9.45136E-01  1.00788E+00 -6.27458E-02
    9120.689    120.857   5.880  9.37529E-01  1.00775E+00 -7.02188E-02
    9122.487    122.656   5.920  9.29584E-01  1.00759E+00 -7.80063E-02
    9124.298    124.466   5.960  9.22246E-01  1.00736E+00 -8.51092E-02
    9126.120    126.289   6.000  9.17493E-01  1.00700E+00 -8.95105E-02
