# # comment:                                                     FEFF 9.9.1  
# # Source:
# # Structure
# # Reduced
# # space
# # abc:
# # angles:114.832636
# # sites:
# # POT  SCF 100  7.0000   0, screened core-hole, AFOLP (folp(0)= 1.150)
# # Abs   Z=29 Rmt= 1.370 Rnm= 1.425 K  shell
# # Pot 1 Z= 3 Rmt= 1.199 Rnm= 1.259
# # Pot 2 Z=29 Rmt= 1.370 Rnm= 1.425
# # Pot 3 Z=14 Rmt= 1.013 Rnm= 1.218
# # Pot 4 Z= 8 Rmt= 0.978 Rnm= 1.074
# # Gam_ch=1.729E+00 H-L exch Vi= 0.000E+00 Vr= 0.000E+00
# # Mu=-7.760E+00eV kf=2.202E+00 Vint=-1.791E+01eV Rs_int= 1.647
# FMS rfms= 9.0000
# # PATH  Rmax=-1.000,  Keep_limit= 0.00, Heap_limit 0.00  Pwcrit= 2.50%
#  S02=0.950  Temp=   0.00  Debye_temp=   0.00  Global_sig2= 0.00000
#  Energy zero shift, vr, vi    0.00000E+00   0.00000E+00
#  Curved wave amplitude ratio filter   4.000%
#     file         sig2 tot  cw amp ratio   deg  nlegs   reff  inp sig2
#     0/   0 paths used
#  xsedge+ 50, used to normalize mu           2.4446E-04
#  -----------------------------------------------------------------------
#  omega    e    k    mu    mu0     chi     @#
    8984.223    -11.570  -1.000  4.60161E-02  5.44202E-02 -8.40417E-03
    8984.522    -11.271  -0.960  4.87238E-02  5.83534E-02 -9.62960E-03
    8984.808    -10.984  -0.920  5.16662E-02  6.27227E-02 -1.10565E-02
    8985.082    -10.710  -0.880  5.48716E-02  6.75922E-02 -1.27206E-02
    8985.345    -10.448  -0.840  5.83721E-02  7.30367E-02 -1.46646E-02
    8985.595    -10.198  -0.800  6.22043E-02  7.91427E-02 -1.69384E-02
    8985.832     -9.960  -0.760  6.64094E-02  8.60097E-02 -1.96003E-02
    8986.058     -9.735  -0.720  7.10325E-02  9.37501E-02 -2.27176E-02
    8986.271     -9.521  -0.680  7.61220E-02  1.02488E-01 -2.63655E-02
    8986.472     -9.320  -0.640  8.17278E-02  1.12353E-01 -3.06248E-02
    8986.661     -9.131  -0.600  8.78968E-02  1.23474E-01 -3.55770E-02
    8986.838     -8.954  -0.560  9.46669E-02  1.35960E-01 -4.12936E-02
    8987.003     -8.790  -0.520  1.02057E-01  1.49878E-01 -4.78206E-02
    8987.155     -8.637  -0.480  1.10055E-01  1.65211E-01 -5.51560E-02
    8987.295     -8.497  -0.440  1.18602E-01  1.81826E-01 -6.32244E-02
    8987.423     -8.369  -0.400  1.27578E-01  1.99433E-01 -7.18554E-02
    8987.539     -8.253  -0.360  1.36797E-01  2.17577E-01 -8.07794E-02
    8987.643     -8.150  -0.320  1.46017E-01  2.35667E-01 -8.96501E-02
    8987.734     -8.058  -0.280  1.54953E-01  2.53047E-01 -9.80938E-02
    8987.813     -7.979  -0.240  1.63316E-01  2.69087E-01 -1.05771E-01
    8987.881     -7.912  -0.200  1.70836E-01  2.83259E-01 -1.12423E-01
    8987.935     -7.857  -0.160  1.77283E-01  2.95178E-01 -1.17895E-01
    8987.978     -7.814  -0.120  1.82478E-01  3.04598E-01 -1.22120E-01
    8988.009     -7.784  -0.080  1.86296E-01  3.11383E-01 -1.25086E-01
    8988.033     -7.760   0.000  1.89477E-01  3.16833E-01 -1.27356E-01
    8988.088     -7.705   0.120  1.96825E-01  3.29135E-01 -1.32310E-01
    8988.130     -7.662   0.160  2.02478E-01  3.38669E-01 -1.36191E-01
    8988.185     -7.607   0.200  2.09836E-01  3.50856E-01 -1.41020E-01
    8988.252     -7.540   0.240  2.18946E-01  3.65523E-01 -1.46577E-01
    8988.332     -7.461   0.280  2.29832E-01  3.82354E-01 -1.52522E-01
    8988.423     -7.369   0.320  2.42470E-01  4.00915E-01 -1.58445E-01
    8988.527     -7.266   0.360  2.56765E-01  4.20647E-01 -1.63883E-01
    8988.643     -7.150   0.400  2.72603E-01  4.41022E-01 -1.68418E-01
    8988.771     -7.022   0.440  2.89571E-01  4.61475E-01 -1.71904E-01
    8988.911     -6.882   0.480  3.07076E-01  4.81607E-01 -1.74531E-01
    8989.063     -6.729   0.520  3.24217E-01  5.01142E-01 -1.76925E-01
    8989.228     -6.565   0.560  3.40048E-01  5.20005E-01 -1.79957E-01
    8989.405     -6.388   0.600  3.53828E-01  5.38126E-01 -1.84298E-01
    8989.594     -6.199   0.640  3.65458E-01  5.55588E-01 -1.90130E-01
    8989.795     -5.998   0.680  3.75207E-01  5.72489E-01 -1.97281E-01
    8990.008     -5.784   0.720  3.83337E-01  5.88878E-01 -2.05541E-01
    8990.234     -5.559   0.760  3.90142E-01  6.04909E-01 -2.14767E-01
    8990.471     -5.321   0.800  3.95807E-01  6.20642E-01 -2.24835E-01
    8990.721     -5.071   0.840  4.00858E-01  6.36165E-01 -2.35306E-01
    8990.983     -4.809   0.880  4.06528E-01  6.51534E-01 -2.45006E-01
    8991.258     -4.535   0.920  4.14809E-01  6.66788E-01 -2.51979E-01
    8991.544     -4.248   0.960  4.27926E-01  6.81956E-01 -2.54030E-01
    8991.843     -3.950   1.000  4.48190E-01  6.97076E-01 -2.48886E-01
    8992.154     -3.639   1.040  4.78757E-01  7.12134E-01 -2.33377E-01
    8992.477     -3.316   1.080  5.23544E-01  7.27151E-01 -2.03607E-01
    8992.812     -2.980   1.120  5.84317E-01  7.42097E-01 -1.57781E-01
    8993.160     -2.633   1.160  6.57831E-01  7.56982E-01 -9.91507E-02
    8993.519     -2.273   1.200  7.38043E-01  7.71764E-01 -3.37214E-02
    8993.891     -1.901   1.240  8.22222E-01  7.86423E-01  3.57989E-02
    8994.275     -1.517   1.280  9.11351E-01  8.00953E-01  1.10398E-01
    8994.671     -1.121   1.320  1.00524E+00  8.15285E-01  1.89960E-01
    8995.080     -0.713   1.360  1.10373E+00  8.29429E-01  2.74306E-01
    8995.501     -0.292   1.400  1.20568E+00  8.43332E-01  3.62349E-01
    8995.933      0.141   1.440  1.29538E+00  8.56941E-01  4.38436E-01
    8996.378      0.586   1.480  1.34438E+00  8.70243E-01  4.74132E-01
    8996.836      1.043   1.520  1.34335E+00  8.83203E-01  4.60147E-01
    8997.305      1.512   1.560  1.30938E+00  8.95788E-01  4.13587E-01
    8997.787      1.994   1.600  1.26126E+00  9.07965E-01  3.53292E-01
    8998.280      2.488   1.640  1.21103E+00  9.19699E-01  2.91327E-01
    8998.786      2.994   1.680  1.16604E+00  9.30978E-01  2.35058E-01
    8999.304      3.512   1.720  1.13001E+00  9.41749E-01  1.88262E-01
    8999.835      4.042   1.760  1.10293E+00  9.51983E-01  1.50947E-01
    9000.377      4.585   1.800  1.08488E+00  9.61711E-01  1.23172E-01
    9000.932      5.140   1.840  1.08850E+00  9.70866E-01  1.17638E-01
    9001.499      5.706   1.880  1.10978E+00  9.79463E-01  1.30316E-01
    9002.078      6.286   1.920  1.12496E+00  9.87476E-01  1.37487E-01
    9002.669      6.877   1.960  1.12756E+00  9.94924E-01  1.32640E-01
    9003.273      7.480   2.000  1.12112E+00  1.00176E+00  1.19359E-01
    9003.889      8.096   2.040  1.10797E+00  1.00804E+00  9.99242E-02
    9004.516      8.724   2.080  1.08923E+00  1.01372E+00  7.55119E-02
    9005.157      9.364   2.120  1.06641E+00  1.01883E+00  4.75739E-02
    9005.809     10.016   2.160  1.04187E+00  1.02337E+00  1.84947E-02
    9006.473     10.681   2.200  1.02002E+00  1.02739E+00 -7.36784E-03
    9007.150     11.357   2.240  1.00549E+00  1.03084E+00 -2.53540E-02
    9007.839     12.046   2.280  9.98912E-01  1.03377E+00 -3.48581E-02
    9008.540     12.747   2.320  9.97759E-01  1.03622E+00 -3.84590E-02
    9009.253     13.461   2.360  1.00037E+00  1.03818E+00 -3.78080E-02
    9009.978     14.186   2.400  1.00670E+00  1.03968E+00 -3.29834E-02
    9010.716     14.924   2.440  1.01446E+00  1.04077E+00 -2.63072E-02
    9011.466     15.673   2.480  1.01531E+00  1.04144E+00 -2.61263E-02
    9012.228     16.435   2.520  9.99172E-01  1.04174E+00 -4.25645E-02
    9013.002     17.210   2.560  9.64842E-01  1.04169E+00 -7.68505E-02
    9013.788     17.996   2.600  9.24373E-01  1.04132E+00 -1.16946E-01
    9014.587     18.795   2.640  8.97455E-01  1.04063E+00 -1.43175E-01
    9015.398     19.605   2.680  8.85556E-01  1.03968E+00 -1.54127E-01
    9016.221     20.428   2.720  8.82790E-01  1.03851E+00 -1.55719E-01
    9017.056     21.263   2.760  8.85474E-01  1.03710E+00 -1.51627E-01
    9017.903     22.111   2.800  8.91134E-01  1.03549E+00 -1.44357E-01
    9018.763     22.970   2.840  8.98468E-01  1.03371E+00 -1.35247E-01
    9019.634     23.842   2.880  9.06530E-01  1.03180E+00 -1.25275E-01
    9020.518     24.726   2.920  9.14824E-01  1.02979E+00 -1.14970E-01
    9021.415     25.622   2.960  9.23227E-01  1.02765E+00 -1.04424E-01
    9022.323     26.530   3.000  9.32017E-01  1.02547E+00 -9.34523E-02
    9023.243     27.451   3.040  9.41281E-01  1.02322E+00 -8.19381E-02
    9024.176     28.383   3.080  9.51561E-01  1.02093E+00 -6.93658E-02
    9025.121     29.328   3.120  9.63187E-01  1.01860E+00 -5.54178E-02
    9026.078     30.285   3.160  9.76153E-01  1.01630E+00 -4.01507E-02
    9027.047     31.255   3.200  9.90301E-01  1.01403E+00 -2.37297E-02
    9028.029     32.236   3.240  1.00541E+00  1.01177E+00 -6.36437E-03
    9029.022     33.230   3.280  1.02106E+00  1.00955E+00  1.15011E-02
    9030.028     34.236   3.320  1.03666E+00  1.00741E+00  2.92519E-02
    9031.046     35.254   3.360  1.05162E+00  1.00531E+00  4.63094E-02
    9032.076     36.284   3.400  1.06534E+00  1.00332E+00  6.20240E-02
    9033.119     37.326   3.440  1.07733E+00  1.00141E+00  7.59207E-02
    9034.173     38.381   3.480  1.08732E+00  9.99590E-01  8.77278E-02
    9035.240     39.448   3.520  1.09518E+00  9.97883E-01  9.72946E-02
    9036.319     40.527   3.560  1.10068E+00  9.96271E-01  1.04409E-01
    9037.410     41.618   3.600  1.10373E+00  9.94799E-01  1.08934E-01
    9038.514     42.721   3.640  1.10404E+00  9.93429E-01  1.10610E-01
    9039.629     43.837   3.680  1.10129E+00  9.92204E-01  1.09089E-01
    9040.757     44.965   3.720  1.09530E+00  9.91105E-01  1.04198E-01
    9041.897     46.104   3.760  1.08629E+00  9.90130E-01  9.61563E-02
    9043.049     47.257   3.800  1.07477E+00  9.89284E-01  8.54897E-02
    9044.213     48.421   3.840  1.06155E+00  9.88585E-01  7.29617E-02
    9045.390     49.597   3.880  1.04743E+00  9.88014E-01  5.94119E-02
    9046.579     50.786   3.920  1.03314E+00  9.87570E-01  4.55683E-02
    9047.780     51.987   3.960  1.01926E+00  9.87273E-01  3.19907E-02
    9048.993     53.200   4.000  1.00618E+00  9.87081E-01  1.91009E-02
    9050.218     54.425   4.040  9.94209E-01  9.87034E-01  7.17527E-03
    9051.455     55.663   4.080  9.83434E-01  9.87110E-01 -3.67594E-03
    9052.705     56.913   4.120  9.73881E-01  9.87306E-01 -1.34246E-02
    9053.967     58.174   4.160  9.65549E-01  9.87600E-01 -2.20510E-02
    9055.241     59.449   4.200  9.58514E-01  9.88032E-01 -2.95180E-02
    9056.527     60.735   4.240  9.52791E-01  9.88555E-01 -3.57640E-02
    9057.826     62.033   4.280  9.48460E-01  9.89167E-01 -4.07073E-02
    9059.136     63.344   4.320  9.45574E-01  9.89887E-01 -4.43130E-02
    9060.459     64.667   4.360  9.44098E-01  9.90667E-01 -4.65696E-02
    9061.794     66.002   4.400  9.44066E-01  9.91549E-01 -4.74823E-02
    9063.141     67.349   4.440  9.45383E-01  9.92487E-01 -4.71042E-02
    9064.501     68.708   4.480  9.47971E-01  9.93497E-01 -4.55267E-02
    9065.872     70.080   4.520  9.51762E-01  9.94578E-01 -4.28154E-02
    9067.256     71.464   4.560  9.56643E-01  9.95681E-01 -3.90376E-02
    9068.652     72.860   4.600  9.62441E-01  9.96844E-01 -3.44037E-02
    9070.060     74.268   4.640  9.68748E-01  9.98023E-01 -2.92745E-02
    9071.481     75.688   4.680  9.75063E-01  9.99233E-01 -2.41698E-02
    9072.913     77.121   4.720  9.80809E-01  1.00045E+00 -1.96395E-02
    9074.358     78.566   4.760  9.85577E-01  1.00169E+00 -1.61112E-02
    9075.815     80.022   4.800  9.89110E-01  1.00291E+00 -1.37955E-02
    9077.284     81.492   4.840  9.91449E-01  1.00411E+00 -1.26658E-02
    9078.765     82.973   4.880  9.92842E-01  1.00531E+00 -1.24706E-02
    9080.259     84.466   4.920  9.93651E-01  1.00645E+00 -1.28026E-02
    9081.765     85.972   4.960  9.94425E-01  1.00758E+00 -1.31520E-02
    9083.283     87.490   5.000  9.95673E-01  1.00866E+00 -1.29870E-02
    9084.813     89.020   5.040  9.97844E-01  1.00970E+00 -1.18534E-02
    9086.355     90.562   5.080  1.00117E+00  1.01066E+00 -9.49179E-03
    9087.909     92.117   5.120  1.00563E+00  1.01158E+00 -5.95157E-03
    9089.476     93.684   5.160  1.01077E+00  1.01242E+00 -1.64864E-03
    9091.055     95.262   5.200  1.01594E+00  1.01317E+00  2.76445E-03
    9092.646     96.853   5.240  1.02048E+00  1.01385E+00  6.62978E-03
    9094.249     98.457   5.280  1.02401E+00  1.01447E+00  9.54567E-03
    9095.865    100.072   5.320  1.02645E+00  1.01498E+00  1.14660E-02
    9097.492    101.700   5.360  1.02805E+00  1.01541E+00  1.26461E-02
    9099.132    103.340   5.400  1.02922E+00  1.01574E+00  1.34764E-02
    9100.784    104.992   5.440  1.03024E+00  1.01597E+00  1.42719E-02
    9102.448    106.656   5.480  1.03129E+00  1.01611E+00  1.51775E-02
    9104.125    108.332   5.520  1.03242E+00  1.01616E+00  1.62576E-02
    9105.813    110.021   5.560  1.03371E+00  1.01611E+00  1.76093E-02
    9107.514    111.722   5.600  1.03537E+00  1.01598E+00  1.93870E-02
    9109.227    113.435   5.640  1.03742E+00  1.01576E+00  2.16632E-02
    9110.952    115.160   5.680  1.03974E+00  1.01544E+00  2.42992E-02
    9112.690    116.897   5.720  1.04195E+00  1.01502E+00  2.69264E-02
    9114.439    118.647   5.760  1.04358E+00  1.01455E+00  2.90337E-02
    9116.201    120.408   5.800  1.04408E+00  1.01399E+00  3.00859E-02
    9117.975    122.182   5.840  1.04295E+00  1.01337E+00  2.95846E-02
    9119.761    123.968   5.880  1.03985E+00  1.01267E+00  2.71820E-02
    9121.559    125.767   5.920  1.03481E+00  1.01193E+00  2.28799E-02
    9123.370    127.577   5.960  1.02830E+00  1.01115E+00  1.71521E-02
    9125.192    129.400   6.000  1.02088E+00  1.01026E+00  1.06240E-02
