# # comment:                                                     FEFF 9.9.1  
# # Source:
# # Structure
# # Reduced
# # space
# # abc:
# # angles:102.220543
# # sites:
# # POT  SCF 100  7.0000   0, screened core-hole, AFOLP (folp(0)= 1.150)
# # Abs   Z=29 Rmt= 1.124 Rnm= 1.227 K  shell
# # Pot 1 Z=57 Rmt= 1.760 Rnm= 1.835
# # Pot 2 Z=29 Rmt= 1.142 Rnm= 1.238
# # Pot 3 Z= 8 Rmt= 1.051 Rnm= 1.100
# # Gam_ch=1.729E+00 H-L exch Vi= 0.000E+00 Vr= 0.000E+00
# # Mu=-8.390E+00eV kf=2.023E+00 Vint=-1.875E+01eV Rs_int= 1.793
# FMS rfms= 9.0000
# # PATH  Rmax=-1.000,  Keep_limit= 0.00, Heap_limit 0.00  Pwcrit= 2.50%
#  S02=0.950  Temp=   0.00  Debye_temp=   0.00  Global_sig2= 0.00000
#  Energy zero shift, vr, vi    0.00000E+00   0.00000E+00
#  Curved wave amplitude ratio filter   4.000%
#     file         sig2 tot  cw amp ratio   deg  nlegs   reff  inp sig2
#     0/   0 paths used
#  xsedge+ 50, used to normalize mu           2.4432E-04
#  -----------------------------------------------------------------------
#  omega    e    k    mu    mu0     chi     @#
    8985.545    -12.200  -1.000  3.70365E-02  5.76877E-02 -2.06512E-02
    8985.844    -11.901  -0.960  3.89099E-02  6.20029E-02 -2.30930E-02
    8986.131    -11.614  -0.920  4.09289E-02  6.68093E-02 -2.58804E-02
    8986.405    -11.340  -0.880  4.31121E-02  7.21803E-02 -2.90682E-02
    8986.667    -11.078  -0.840  4.54814E-02  7.82016E-02 -3.27201E-02
    8986.917    -10.828  -0.800  4.80625E-02  8.49722E-02 -3.69097E-02
    8987.155    -10.590  -0.760  5.08853E-02  9.26064E-02 -4.17211E-02
    8987.380    -10.365  -0.720  5.39838E-02  1.01233E-01 -4.72492E-02
    8987.594    -10.151  -0.680  5.73963E-02  1.10994E-01 -5.35981E-02
    8987.795     -9.950  -0.640  6.11633E-02  1.22041E-01 -6.08776E-02
    8987.984     -9.761  -0.600  6.53250E-02  1.34521E-01 -6.91957E-02
    8988.161     -9.584  -0.560  6.99150E-02  1.48561E-01 -7.86455E-02
    8988.325     -9.420  -0.520  7.49516E-02  1.64237E-01 -8.92849E-02
    8988.478     -9.267  -0.480  8.04250E-02  1.81534E-01 -1.01109E-01
    8988.618     -9.127  -0.440  8.62824E-02  2.00300E-01 -1.14018E-01
    8988.746     -8.999  -0.400  9.24160E-02  2.20205E-01 -1.27789E-01
    8988.862     -8.883  -0.360  9.86601E-02  2.40730E-01 -1.42070E-01
    8988.965     -8.780  -0.320  1.04803E-01  2.61201E-01 -1.56398E-01
    8989.057     -8.688  -0.280  1.10617E-01  2.80869E-01 -1.70252E-01
    8989.136     -8.609  -0.240  1.15893E-01  2.99017E-01 -1.83124E-01
    8989.203     -8.542  -0.200  1.20471E-01  3.15046E-01 -1.94575E-01
    8989.258     -8.487  -0.160  1.24251E-01  3.28520E-01 -2.04269E-01
    8989.301     -8.444  -0.120  1.27190E-01  3.39163E-01 -2.11974E-01
    8989.331     -8.414  -0.080  1.29278E-01  3.46826E-01 -2.17548E-01
    8989.355     -8.390   0.000  1.30933E-01  3.52979E-01 -2.22046E-01
    8989.410     -8.335   0.120  1.34531E-01  3.66854E-01 -2.32323E-01
    8989.453     -8.292   0.160  1.37258E-01  3.77612E-01 -2.40353E-01
    8989.508     -8.237   0.200  1.40626E-01  3.91332E-01 -2.50706E-01
    8989.575     -8.170   0.240  1.44534E-01  4.07811E-01 -2.63277E-01
    8989.654     -8.091   0.280  1.48799E-01  4.26676E-01 -2.77877E-01
    8989.746     -7.999   0.320  1.53245E-01  4.47438E-01 -2.94193E-01
    8989.849     -7.896   0.360  1.57713E-01  4.69424E-01 -3.11712E-01
    8989.965     -7.780   0.400  1.62189E-01  4.91987E-01 -3.29798E-01
    8990.093     -7.652   0.440  1.66836E-01  5.14495E-01 -3.47659E-01
    8990.233     -7.512   0.480  1.71954E-01  5.36456E-01 -3.64503E-01
    8990.386     -7.359   0.520  1.78005E-01  5.57592E-01 -3.79587E-01
    8990.550     -7.195   0.560  1.85188E-01  5.77702E-01 -3.92514E-01
    8990.727     -7.018   0.600  1.93566E-01  5.96816E-01 -4.03250E-01
    8990.916     -6.829   0.640  2.02813E-01  6.14957E-01 -4.12144E-01
    8991.117     -6.628   0.680  2.12582E-01  6.32217E-01 -4.19635E-01
    8991.331     -6.415   0.720  2.22906E-01  6.48725E-01 -4.25819E-01
    8991.556     -6.189   0.760  2.34317E-01  6.64586E-01 -4.30270E-01
    8991.794     -5.951   0.800  2.47691E-01  6.79898E-01 -4.32207E-01
    8992.044     -5.701   0.840  2.63374E-01  6.94740E-01 -4.31367E-01
    8992.306     -5.439   0.880  2.80193E-01  7.09201E-01 -4.29008E-01
    8992.580     -5.165   0.920  2.95516E-01  7.23310E-01 -4.27794E-01
    8992.867     -4.878   0.960  3.07453E-01  7.37105E-01 -4.29652E-01
    8993.165     -4.580   1.000  3.16757E-01  7.50610E-01 -4.33853E-01
    8993.476     -4.269   1.040  3.26162E-01  7.63881E-01 -4.37719E-01
    8993.799     -3.946   1.080  3.38279E-01  7.76866E-01 -4.38587E-01
    8994.135     -3.610   1.120  3.54999E-01  7.89625E-01 -4.34625E-01
    8994.482     -3.263   1.160  3.78353E-01  8.02109E-01 -4.23756E-01
    8994.842     -2.903   1.200  4.12000E-01  8.14329E-01 -4.02329E-01
    8995.214     -2.531   1.240  4.61277E-01  8.26272E-01 -3.64995E-01
    8995.598     -2.147   1.280  5.32767E-01  8.37918E-01 -3.05151E-01
    8995.994     -1.751   1.320  6.33007E-01  8.49247E-01 -2.16240E-01
    8996.402     -1.343   1.360  7.66425E-01  8.60262E-01 -9.38365E-02
    8996.823     -0.922   1.400  9.34021E-01  8.70938E-01  6.30829E-02
    8997.256     -0.489   1.440  1.12476E+00  8.81252E-01  2.43504E-01
    8997.701     -0.044   1.480  1.27425E+00  8.91183E-01  3.83068E-01
    8998.158      0.413   1.520  1.27811E+00  9.00748E-01  3.77363E-01
    8998.627      0.882   1.560  1.15075E+00  9.09903E-01  2.40844E-01
    8999.109      1.364   1.600  1.00624E+00  9.18645E-01  8.75907E-02
    8999.603      1.858   1.640  9.11122E-01  9.26995E-01 -1.58734E-02
    9000.109      2.364   1.680  8.86821E-01  9.34911E-01 -4.80903E-02
    9000.627      2.882   1.720  9.39703E-01  9.42392E-01 -2.68852E-03
    9001.157      3.412   1.760  1.06302E+00  9.49458E-01  1.13562E-01
    9001.700      3.955   1.800  1.21610E+00  9.56091E-01  2.60010E-01
    9002.255      4.509   1.840  1.31246E+00  9.62294E-01  3.50164E-01
    9002.821      5.076   1.880  1.29854E+00  9.68068E-01  3.30472E-01
    9003.401      5.656   1.920  1.22598E+00  9.73418E-01  2.52559E-01
    9003.992      6.247   1.960  1.16185E+00  9.78370E-01  1.83482E-01
    9004.595      6.850   2.000  1.12234E+00  9.82928E-01  1.39410E-01
    9005.211      7.466   2.040  1.11488E+00  9.87077E-01  1.27803E-01
    9005.839      8.094   2.080  1.13874E+00  9.90844E-01  1.47897E-01
    9006.479      8.734   2.120  1.18608E+00  9.94258E-01  1.91826E-01
    9007.131      9.386   2.160  1.24099E+00  9.97303E-01  2.43691E-01
    9007.796     10.051   2.200  1.28327E+00  1.00001E+00  2.83263E-01
    9008.472     10.727   2.240  1.29826E+00  1.00238E+00  2.95873E-01
    9009.161     11.416   2.280  1.27462E+00  1.00448E+00  2.70147E-01
    9009.862     12.117   2.320  1.21582E+00  1.00625E+00  2.09567E-01
    9010.576     12.830   2.360  1.14639E+00  1.00774E+00  1.38642E-01
    9011.301     13.556   2.400  1.09143E+00  1.00898E+00  8.24505E-02
    9012.039     14.294   2.440  1.06891E+00  1.00998E+00  5.89244E-02
    9012.788     15.043   2.480  1.07078E+00  1.01075E+00  6.00307E-02
    9013.550     15.805   2.520  1.07721E+00  1.01130E+00  6.59125E-02
    9014.325     16.579   2.560  1.08163E+00  1.01168E+00  6.99588E-02
    9015.111     17.366   2.600  1.08391E+00  1.01185E+00  7.20565E-02
    9015.909     18.164   2.640  1.08501E+00  1.01186E+00  7.31446E-02
    9016.720     18.975   2.680  1.08492E+00  1.01174E+00  7.31889E-02
    9017.543     19.798   2.720  1.08337E+00  1.01146E+00  7.19177E-02
    9018.378     20.633   2.760  1.08006E+00  1.01108E+00  6.89784E-02
    9019.226     21.481   2.800  1.07440E+00  1.01060E+00  6.37976E-02
    9020.085     22.340   2.840  1.06601E+00  1.01001E+00  5.59960E-02
    9020.957     23.212   2.880  1.05493E+00  1.00935E+00  4.55801E-02
    9021.841     24.096   2.920  1.04099E+00  1.00862E+00  3.23684E-02
    9022.737     24.992   2.960  1.02372E+00  1.00783E+00  1.58902E-02
    9023.645     25.900   3.000  1.00349E+00  1.00701E+00 -3.51964E-03
    9024.566     26.821   3.040  9.81849E-01  1.00613E+00 -2.42796E-02
    9025.498     27.753   3.080  9.60884E-01  1.00526E+00 -4.43723E-02
    9026.443     28.698   3.120  9.42283E-01  1.00433E+00 -6.20503E-02
    9027.400     29.655   3.160  9.26915E-01  1.00343E+00 -7.65123E-02
    9028.370     30.625   3.200  9.14630E-01  1.00252E+00 -8.78913E-02
    9029.351     31.606   3.240  9.05143E-01  1.00162E+00 -9.64749E-02
    9030.345     32.600   3.280  8.98153E-01  1.00074E+00 -1.02589E-01
    9031.351     33.606   3.320  8.93605E-01  9.99876E-01 -1.06271E-01
    9032.369     34.624   3.360  8.91473E-01  9.99042E-01 -1.07568E-01
    9033.399     35.654   3.400  8.91504E-01  9.98223E-01 -1.06719E-01
    9034.441     36.696   3.440  8.92788E-01  9.97463E-01 -1.04676E-01
    9035.496     37.751   3.480  8.94136E-01  9.96746E-01 -1.02611E-01
    9036.563     38.818   3.520  8.94748E-01  9.96071E-01 -1.01323E-01
    9037.642     39.897   3.560  8.94515E-01  9.95440E-01 -1.00925E-01
    9038.733     40.988   3.600  8.94082E-01  9.94876E-01 -1.00794E-01
    9039.836     42.091   3.640  8.94692E-01  9.94358E-01 -9.96667E-02
    9040.952     43.207   3.680  8.97544E-01  9.93889E-01 -9.63445E-02
    9042.080     44.334   3.720  9.03153E-01  9.93490E-01 -9.03375E-02
    9043.219     45.474   3.760  9.11083E-01  9.93162E-01 -8.20796E-02
    9044.372     46.627   3.800  9.20307E-01  9.92883E-01 -7.25765E-02
    9045.536     47.791   3.840  9.29617E-01  9.92654E-01 -6.30372E-02
    9046.712     48.967   3.880  9.37994E-01  9.92497E-01 -5.45025E-02
    9047.901     50.156   3.920  9.45161E-01  9.92412E-01 -4.72517E-02
    9049.102     51.357   3.960  9.51498E-01  9.92378E-01 -4.08805E-02
    9050.315     52.570   4.000  9.57899E-01  9.92416E-01 -3.45167E-02
    9051.540     53.795   4.040  9.65148E-01  9.92502E-01 -2.73545E-02
    9052.778     55.033   4.080  9.73461E-01  9.92658E-01 -1.91973E-02
    9054.028     56.283   4.120  9.82172E-01  9.92862E-01 -1.06898E-02
    9055.289     57.544   4.160  9.90078E-01  9.93112E-01 -3.03350E-03
    9056.564     58.819   4.200  9.96256E-01  9.93430E-01  2.82547E-03
    9057.850     60.105   4.240  1.00065E+00  9.93796E-01  6.85890E-03
    9059.148     61.403   4.280  1.00417E+00  9.94227E-01  9.94734E-03
    9060.459     62.714   4.320  1.00815E+00  9.94680E-01  1.34662E-02
    9061.782     64.037   4.360  1.01394E+00  9.95194E-01  1.87485E-02
    9063.117     65.372   4.400  1.02218E+00  9.95727E-01  2.64510E-02
    9064.464     66.719   4.440  1.03251E+00  9.96320E-01  3.61872E-02
    9065.823     68.078   4.480  1.04349E+00  9.96931E-01  4.65624E-02
    9067.195     69.450   4.520  1.05344E+00  9.97597E-01  5.58419E-02
    9068.579     70.834   4.560  1.06119E+00  9.98255E-01  6.29380E-02
    9069.975     72.230   4.600  1.06691E+00  9.98966E-01  6.79452E-02
    9071.383     73.638   4.640  1.07152E+00  9.99686E-01  7.18354E-02
    9072.803     75.058   4.680  1.07617E+00  1.00041E+00  7.57539E-02
    9074.236     76.491   4.720  1.08163E+00  1.00117E+00  8.04582E-02
    9075.681     77.935   4.760  1.08780E+00  1.00193E+00  8.58717E-02
    9077.137     79.392   4.800  1.09384E+00  1.00268E+00  9.11594E-02
    9078.607     80.862   4.840  1.09844E+00  1.00344E+00  9.50005E-02
    9080.088     82.343   4.880  1.10021E+00  1.00420E+00  9.60142E-02
    9081.581     83.836   4.920  1.09825E+00  1.00495E+00  9.33050E-02
    9083.087     85.342   4.960  1.09247E+00  1.00567E+00  8.67998E-02
    9084.605     86.860   5.000  1.08355E+00  1.00639E+00  7.71586E-02
    9086.135     88.390   5.040  1.07248E+00  1.00710E+00  6.53840E-02
    9087.677     89.932   5.080  1.06002E+00  1.00777E+00  5.22457E-02
    9089.232     91.487   5.120  1.04663E+00  1.00844E+00  3.81899E-02
    9090.799     93.053   5.160  1.03271E+00  1.00906E+00  2.36461E-02
    9092.377     94.632   5.200  1.01909E+00  1.00965E+00  9.43934E-03
    9093.968     96.223   5.240  1.00699E+00  1.01020E+00 -3.21675E-03
    9095.572     97.827   5.280  9.97504E-01  1.01074E+00 -1.32350E-02
    9097.187     99.442   5.320  9.91066E-01  1.01121E+00 -2.01425E-02
    9098.815    101.070   5.360  9.87502E-01  1.01164E+00 -2.41350E-02
    9100.455    102.710   5.400  9.86276E-01  1.01204E+00 -2.57686E-02
    9102.107    104.362   5.440  9.86607E-01  1.01238E+00 -2.57772E-02
    9103.771    106.026   5.480  9.87609E-01  1.01266E+00 -2.50478E-02
    9105.447    107.702   5.520  9.88250E-01  1.01291E+00 -2.46584E-02
    9107.136    109.391   5.560  9.87473E-01  1.01311E+00 -2.56407E-02
    9108.837    111.091   5.600  9.84601E-01  1.01325E+00 -2.86478E-02
    9110.549    112.804   5.640  9.79603E-01  1.01331E+00 -3.37119E-02
    9112.275    114.530   5.680  9.73045E-01  1.01336E+00 -4.03112E-02
    9114.012    116.267   5.720  9.65701E-01  1.01333E+00 -4.76284E-02
    9115.762    118.017   5.760  9.58582E-01  1.01326E+00 -5.46744E-02
    9117.523    119.778   5.800  9.52655E-01  1.01311E+00 -6.04582E-02
    9119.297    121.552   5.840  9.48702E-01  1.01292E+00 -6.42218E-02
    9121.083    123.338   5.880  9.47136E-01  1.01269E+00 -6.55565E-02
    9122.882    125.137   5.920  9.47724E-01  1.01239E+00 -6.46699E-02
    9124.692    126.947   5.960  9.50422E-01  1.01207E+00 -6.16501E-02
    9126.515    128.770   6.000  9.55122E-01  1.01164E+00 -5.65213E-02
