# # comment:                                                     FEFF 9.9.1  
# # Source:
# # Structure
# # Reduced
# # space
# # abc:
# # angles:
# # sites:
# # POT  SCF 100  7.0000   0, screened core-hole, AFOLP (folp(0)= 1.150)
# # Abs   Z=29 Rmt= 1.187 Rnm= 1.317 K  shell
# # Pot 1 Z=29 Rmt= 1.176 Rnm= 1.305
# # Pot 2 Z= 8 Rmt= 0.987 Rnm= 1.110
# # Pot 3 Z= 9 Rmt= 1.031 Rnm= 1.117
# # Gam_ch=1.729E+00 H-L exch Vi= 0.000E+00 Vr= 0.000E+00
# # Mu=-6.401E+00eV kf=2.062E+00 Vint=-1.326E+01eV Rs_int= 1.759
# FMS rfms= 9.0000
# # PATH  Rmax=-1.000,  Keep_limit= 0.00, Heap_limit 0.00  Pwcrit= 2.50%
#  S02=0.950  Temp=   0.00  Debye_temp=   0.00  Global_sig2= 0.00000
#  Energy zero shift, vr, vi    0.00000E+00   0.00000E+00
#  Curved wave amplitude ratio filter   4.000%
#     file         sig2 tot  cw amp ratio   deg  nlegs   reff  inp sig2
#     0/   0 paths used
#  xsedge+ 50, used to normalize mu           2.4212E-04
#  -----------------------------------------------------------------------
#  omega    e    k    mu    mu0     chi     @#
    8983.298    -10.211  -1.000  3.43158E-02  5.65417E-02 -2.22259E-02
    8983.596     -9.912  -0.960  3.57502E-02  6.06315E-02 -2.48812E-02
    8983.883     -9.626  -0.920  3.72520E-02  6.51690E-02 -2.79170E-02
    8984.157     -9.352  -0.880  3.88244E-02  7.02189E-02 -3.13945E-02
    8984.419     -9.089  -0.840  4.04713E-02  7.58566E-02 -3.53853E-02
    8984.669     -8.839  -0.800  4.21965E-02  8.21689E-02 -3.99724E-02
    8984.907     -8.602  -0.760  4.40044E-02  8.92554E-02 -4.52510E-02
    8985.133     -8.376  -0.720  4.58993E-02  9.72283E-02 -5.13290E-02
    8985.346     -8.163  -0.680  4.78857E-02  1.06211E-01 -5.83253E-02
    8985.547     -7.962  -0.640  4.99676E-02  1.16333E-01 -6.63658E-02
    8985.736     -7.773  -0.600  5.21476E-02  1.27722E-01 -7.55748E-02
    8985.913     -7.596  -0.560  5.44260E-02  1.40486E-01 -8.60600E-02
    8986.078     -7.431  -0.520  5.67985E-02  1.54688E-01 -9.78892E-02
    8986.230     -7.279  -0.480  5.92534E-02  1.70311E-01 -1.11057E-01
    8986.370     -7.139  -0.440  6.17691E-02  1.87219E-01 -1.25450E-01
    8986.498     -7.011  -0.400  6.43113E-02  2.05122E-01 -1.40811E-01
    8986.614     -6.895  -0.360  6.68328E-02  2.23564E-01 -1.56731E-01
    8986.718     -6.791  -0.320  6.92763E-02  2.41953E-01 -1.72677E-01
    8986.809     -6.700  -0.280  7.15801E-02  2.59629E-01 -1.88049E-01
    8986.888     -6.621  -0.240  7.36858E-02  2.75958E-01 -2.02272E-01
    8986.955     -6.553  -0.200  7.55433E-02  2.90402E-01 -2.14859E-01
    8987.010     -6.499  -0.160  7.71137E-02  3.02567E-01 -2.25453E-01
    8987.053     -6.456  -0.120  7.83680E-02  3.12194E-01 -2.33826E-01
    8987.083     -6.425  -0.080  7.92856E-02  3.19136E-01 -2.39851E-01
    8987.108     -6.401   0.000  8.00480E-02  3.24719E-01 -2.44671E-01
    8987.163     -6.346   0.120  8.18034E-02  3.37319E-01 -2.55515E-01
    8987.205     -6.304   0.160  8.31096E-02  3.47123E-01 -2.64013E-01
    8987.260     -6.249   0.200  8.47866E-02  3.59666E-01 -2.74879E-01
    8987.327     -6.182   0.240  8.68585E-02  3.74824E-01 -2.87965E-01
    8987.406     -6.102   0.280  8.92827E-02  3.92287E-01 -3.03004E-01
    8987.498     -6.011   0.320  9.20555E-02  4.11656E-01 -3.19600E-01
    8987.602     -5.907   0.360  9.52181E-02  4.32428E-01 -3.37210E-01
    8987.717     -5.791   0.400  9.87619E-02  4.54047E-01 -3.55285E-01
    8987.845     -5.663   0.440  1.02768E-01  4.76017E-01 -3.73249E-01
    8987.986     -5.523   0.480  1.07342E-01  4.97956E-01 -3.90613E-01
    8988.138     -5.371   0.520  1.12547E-01  5.19554E-01 -4.07007E-01
    8988.303     -5.206   0.560  1.18597E-01  5.40716E-01 -4.22119E-01
    8988.479     -5.029   0.600  1.25692E-01  5.61403E-01 -4.35712E-01
    8988.668     -4.841   0.640  1.34008E-01  5.81601E-01 -4.47593E-01
    8988.869     -4.639   0.680  1.43795E-01  6.01408E-01 -4.57612E-01
    8989.083     -4.426   0.720  1.55211E-01  6.20875E-01 -4.65664E-01
    8989.308     -4.200   0.760  1.68263E-01  6.40068E-01 -4.71805E-01
    8989.546     -3.963   0.800  1.83040E-01  6.59003E-01 -4.75964E-01
    8989.796     -3.713   0.840  2.00113E-01  6.77745E-01 -4.77631E-01
    8990.058     -3.451   0.880  2.20713E-01  6.96280E-01 -4.75567E-01
    8990.333     -3.176   0.920  2.46752E-01  7.14645E-01 -4.67893E-01
    8990.619     -2.890   0.960  2.79963E-01  7.32804E-01 -4.52841E-01
    8990.918     -2.591   1.000  3.21011E-01  7.50728E-01 -4.29717E-01
    8991.229     -2.280   1.040  3.68319E-01  7.68403E-01 -4.00084E-01
    8991.552     -1.957   1.080  4.19013E-01  7.85787E-01 -3.66775E-01
    8991.887     -1.622   1.120  4.72311E-01  8.02833E-01 -3.30522E-01
    8992.234     -1.274   1.160  5.30183E-01  8.19510E-01 -2.89327E-01
    8992.594     -0.915   1.200  5.90939E-01  8.35744E-01 -2.44805E-01
    8992.966     -0.543   1.240  6.44525E-01  8.51499E-01 -2.06974E-01
    8993.350     -0.159   1.280  6.78667E-01  8.66762E-01 -1.88094E-01
    8993.746      0.237   1.320  6.89219E-01  8.81434E-01 -1.92215E-01
    8994.155      0.646   1.360  6.84986E-01  8.95522E-01 -2.10536E-01
    8994.575      1.066   1.400  6.83591E-01  9.08973E-01 -2.25382E-01
    8995.008      1.499   1.440  7.02406E-01  9.21754E-01 -2.19348E-01
    8995.453      1.944   1.480  7.50745E-01  9.33858E-01 -1.83113E-01
    8995.910      2.401   1.520  8.25453E-01  9.45238E-01 -1.19784E-01
    8996.380      2.871   1.560  9.08205E-01  9.55907E-01 -4.77022E-02
    8996.861      3.352   1.600  9.78074E-01  9.65866E-01  1.22079E-02
    8997.355      3.846   1.640  1.04110E+00  9.75074E-01  6.60305E-02
    8997.861      4.352   1.680  1.12494E+00  9.83552E-01  1.41391E-01
    8998.379      4.870   1.720  1.23335E+00  9.91329E-01  2.42023E-01
    8998.910      5.401   1.760  1.33968E+00  9.98370E-01  3.41305E-01
    8999.452      5.943   1.800  1.42798E+00  1.00475E+00  4.23233E-01
    9000.007      6.498   1.840  1.50238E+00  1.01042E+00  4.91955E-01
    9000.574      7.065   1.880  1.56049E+00  1.01546E+00  5.45025E-01
    9001.153      7.644   1.920  1.58866E+00  1.01989E+00  5.68764E-01
    9001.744      8.235   1.960  1.58313E+00  1.02371E+00  5.59424E-01
    9002.348      8.839   2.000  1.55664E+00  1.02696E+00  5.29673E-01
    9002.963      9.455   2.040  1.51308E+00  1.02968E+00  4.83401E-01
    9003.591     10.082   2.080  1.44854E+00  1.03189E+00  4.16651E-01
    9004.231     10.723   2.120  1.36233E+00  1.03363E+00  3.28697E-01
    9004.884     11.375   2.160  1.27996E+00  1.03493E+00  2.45030E-01
    9005.548     12.039   2.200  1.22250E+00  1.03583E+00  1.86676E-01
    9006.225     12.716   2.240  1.17027E+00  1.03635E+00  1.33916E-01
    9006.914     13.405   2.280  1.10340E+00  1.03654E+00  6.68608E-02
    9007.615     14.106   2.320  1.03458E+00  1.03640E+00 -1.82826E-03
    9008.328     14.819   2.360  9.87586E-01  1.03600E+00 -4.84161E-02
    9009.053     15.544   2.400  9.72303E-01  1.03535E+00 -6.30451E-02
    9009.791     16.282   2.440  9.80402E-01  1.03448E+00 -5.40754E-02
    9010.541     17.032   2.480  1.00517E+00  1.03341E+00 -2.82316E-02
    9011.303     17.794   2.520  1.03404E+00  1.03216E+00  1.87626E-03
    9012.077     18.568   2.560  1.05491E+00  1.03079E+00  2.41241E-02
    9012.863     19.354   2.600  1.06498E+00  1.02928E+00  3.56980E-02
    9013.662     20.153   2.640  1.06604E+00  1.02767E+00  3.83753E-02
    9014.473     20.964   2.680  1.06049E+00  1.02599E+00  3.45058E-02
    9015.296     21.787   2.720  1.05050E+00  1.02424E+00  2.62587E-02
    9016.131     22.622   2.760  1.03803E+00  1.02246E+00  1.55707E-02
    9016.978     23.469   2.800  1.02484E+00  1.02065E+00  4.18988E-03
    9017.838     24.329   2.840  1.01225E+00  1.01882E+00 -6.56472E-03
    9018.709     25.200   2.880  1.00062E+00  1.01700E+00 -1.63810E-02
    9019.593     26.084   2.920  9.89462E-01  1.01519E+00 -2.57299E-02
    9020.489     26.980   2.960  9.78136E-01  1.01342E+00 -3.52804E-02
    9021.398     27.889   3.000  9.66314E-01  1.01168E+00 -4.53663E-02
    9022.318     28.809   3.040  9.53727E-01  1.00999E+00 -5.62612E-02
    9023.251     29.742   3.080  9.40125E-01  1.00836E+00 -6.82399E-02
    9024.196     30.687   3.120  9.25557E-01  1.00679E+00 -8.12366E-02
    9025.153     31.644   3.160  9.10518E-01  1.00530E+00 -9.47814E-02
    9026.122     32.613   3.200  8.95730E-01  1.00388E+00 -1.08155E-01
    9027.103     33.595   3.240  8.82189E-01  1.00255E+00 -1.20364E-01
    9028.097     34.588   3.280  8.71039E-01  1.00133E+00 -1.30289E-01
    9029.103     35.594   3.320  8.63537E-01  1.00017E+00 -1.36631E-01
    9030.121     36.612   3.360  8.60379E-01  9.99117E-01 -1.38738E-01
    9031.151     37.642   3.400  8.61853E-01  9.98178E-01 -1.36325E-01
    9032.194     38.685   3.440  8.67575E-01  9.97328E-01 -1.29753E-01
    9033.248     39.739   3.480  8.76742E-01  9.96570E-01 -1.19829E-01
    9034.315     40.806   3.520  8.88127E-01  9.95924E-01 -1.07797E-01
    9035.394     41.885   3.560  9.00531E-01  9.95369E-01 -9.48384E-02
    9036.485     42.976   3.600  9.13165E-01  9.94928E-01 -8.17631E-02
    9037.589     44.080   3.640  9.25737E-01  9.94601E-01 -6.88638E-02
    9038.704     45.195   3.680  9.38205E-01  9.94364E-01 -5.61590E-02
    9039.832     46.323   3.720  9.50674E-01  9.94218E-01 -4.35440E-02
    9040.972     47.463   3.760  9.63114E-01  9.94181E-01 -3.10671E-02
    9042.124     48.615   3.800  9.75160E-01  9.94234E-01 -1.90739E-02
    9043.288     49.779   3.840  9.86315E-01  9.94395E-01 -8.07954E-03
    9044.465     50.956   3.880  9.96171E-01  9.94619E-01  1.55200E-03
    9045.653     52.145   3.920  1.00467E+00  9.94950E-01  9.71997E-03
    9046.854     53.346   3.960  1.01191E+00  9.95364E-01  1.65459E-02
    9048.068     54.559   4.000  1.01822E+00  9.95858E-01  2.23583E-02
    9049.293     55.784   4.040  1.02409E+00  9.96430E-01  2.76566E-02
    9050.530     57.021   4.080  1.03002E+00  9.97056E-01  3.29663E-02
    9051.780     58.271   4.120  1.03635E+00  9.97755E-01  3.85988E-02
    9053.042     59.533   4.160  1.04288E+00  9.98505E-01  4.43767E-02
    9054.316     60.807   4.200  1.04887E+00  9.99325E-01  4.95469E-02
    9055.602     62.093   4.240  1.05337E+00  1.00021E+00  5.31610E-02
    9056.901     63.392   4.280  1.05561E+00  1.00112E+00  5.44866E-02
    9058.211     64.702   4.320  1.05536E+00  1.00207E+00  5.32916E-02
    9059.534     66.025   4.360  1.05299E+00  1.00306E+00  4.99327E-02
    9060.869     67.360   4.400  1.04931E+00  1.00408E+00  4.52299E-02
    9062.216     68.707   4.440  1.04534E+00  1.00513E+00  4.02043E-02
    9063.576     70.067   4.480  1.04209E+00  1.00620E+00  3.58942E-02
    9064.947     71.438   4.520  1.04045E+00  1.00726E+00  3.31823E-02
    9066.331     72.822   4.560  1.04105E+00  1.00833E+00  3.27160E-02
    9067.727     74.218   4.600  1.04417E+00  1.00942E+00  3.47429E-02
    9069.135     75.626   4.640  1.04950E+00  1.01049E+00  3.90146E-02
    9070.556     77.047   4.680  1.05641E+00  1.01155E+00  4.48588E-02
    9071.988     78.479   4.720  1.06393E+00  1.01260E+00  5.13278E-02
    9073.433     79.924   4.760  1.07104E+00  1.01362E+00  5.74127E-02
    9074.890     81.381   4.800  1.07690E+00  1.01463E+00  6.22725E-02
    9076.359     82.850   4.840  1.08097E+00  1.01560E+00  6.53643E-02
    9077.840     84.331   4.880  1.08299E+00  1.01654E+00  6.64544E-02
    9079.334     85.825   4.920  1.08306E+00  1.01743E+00  6.56299E-02
    9080.839     87.331   4.960  1.08144E+00  1.01827E+00  6.31665E-02
    9082.357     88.849   5.000  1.07840E+00  1.01908E+00  5.93179E-02
    9083.887     90.379   5.040  1.07400E+00  1.01983E+00  5.41683E-02
    9085.430     91.921   5.080  1.06813E+00  1.02052E+00  4.76066E-02
    9086.984     93.475   5.120  1.06055E+00  1.02115E+00  3.93997E-02
    9088.551     95.042   5.160  1.05106E+00  1.02172E+00  2.93404E-02
    9090.130     96.621   5.200  1.03968E+00  1.02223E+00  1.74558E-02
    9091.721     98.212   5.240  1.02678E+00  1.02269E+00  4.08870E-03
    9093.324     99.815   5.280  1.01292E+00  1.02307E+00 -1.01499E-02
    9094.939    101.431   5.320  9.98899E-01  1.02338E+00 -2.44796E-02
    9096.567    103.058   5.360  9.85498E-01  1.02361E+00 -3.81083E-02
    9098.207    104.698   5.400  9.73411E-01  1.02378E+00 -5.03701E-02
    9099.859    106.350   5.440  9.63009E-01  1.02388E+00 -6.08693E-02
    9101.523    108.014   5.480  9.54357E-01  1.02390E+00 -6.95405E-02
    9103.199    109.691   5.520  9.47264E-01  1.02386E+00 -7.66000E-02
    9104.888    111.379   5.560  9.41614E-01  1.02376E+00 -8.21431E-02
    9106.589    113.080   5.600  9.37633E-01  1.02360E+00 -8.59647E-02
    9108.302    114.793   5.640  9.35620E-01  1.02336E+00 -8.77423E-02
    9110.027    116.518   5.680  9.35773E-01  1.02305E+00 -8.72797E-02
    9111.764    118.255   5.720  9.38163E-01  1.02270E+00 -8.45324E-02
    9113.514    120.005   5.760  9.42771E-01  1.02229E+00 -7.95201E-02
    9115.276    121.767   5.800  9.49575E-01  1.02182E+00 -7.22418E-02
    9117.050    123.541   5.840  9.58671E-01  1.02130E+00 -6.26259E-02
    9118.836    125.327   5.880  9.70058E-01  1.02071E+00 -5.06560E-02
    9120.634    127.125   5.920  9.83379E-01  1.02012E+00 -3.67379E-02
    9122.444    128.936   5.960  9.97414E-01  1.01946E+00 -2.20466E-02
    9124.267    130.758   6.000  1.01060E+00  1.01873E+00 -8.12997E-03
