# # comment:                                                     FEFF 9.9.1  
# # Source:
# # Structure
# # Reduced
# # space
# # abc:
# # angles:
# # sites:
# # POT  SCF 100  7.0000   0, screened core-hole, AFOLP (folp(0)= 1.150)
# # Abs   Z=29 Rmt= 1.227 Rnm= 1.313 K  shell
# # Pot 1 Z=29 Rmt= 1.227 Rnm= 1.313
# # Pot 2 Z=15 Rmt= 0.929 Rnm= 1.150
# # Pot 3 Z= 8 Rmt= 0.892 Rnm= 1.049
# # Gam_ch=1.729E+00 H-L exch Vi= 0.000E+00 Vr= 0.000E+00
# # Mu=-7.136E+00eV kf=2.481E+00 Vint=-1.697E+01eV Rs_int= 1.462
# FMS rfms= 9.0000
# # PATH  Rmax=-1.000,  Keep_limit= 0.00, Heap_limit 0.00  Pwcrit= 2.50%
#  S02=0.950  Temp=   0.00  Debye_temp=   0.00  Global_sig2= 0.00000
#  Energy zero shift, vr, vi    0.00000E+00   0.00000E+00
#  Curved wave amplitude ratio filter   4.000%
#     file         sig2 tot  cw amp ratio   deg  nlegs   reff  inp sig2
#     0/   0 paths used
#  xsedge+ 50, used to normalize mu           2.4824E-04
#  -----------------------------------------------------------------------
#  omega    e    k    mu    mu0     chi     @#
    8983.306    -10.946  -1.000  3.45930E-02  5.15318E-02 -1.69388E-02
    8983.605    -10.648  -0.960  3.62595E-02  5.52525E-02 -1.89930E-02
    8983.891    -10.361  -0.920  3.80356E-02  5.93873E-02 -2.13517E-02
    8984.165    -10.087  -0.880  3.99310E-02  6.39974E-02 -2.40664E-02
    8984.428     -9.825  -0.840  4.19563E-02  6.91540E-02 -2.71977E-02
    8984.678     -9.575  -0.800  4.41232E-02  7.49397E-02 -3.08166E-02
    8984.915     -9.337  -0.760  4.64443E-02  8.14495E-02 -3.50052E-02
    8985.141     -9.111  -0.720  4.89330E-02  8.87904E-02 -3.98574E-02
    8985.354     -8.898  -0.680  5.16028E-02  9.70806E-02 -4.54778E-02
    8985.555     -8.697  -0.640  5.44668E-02  1.06445E-01 -5.19782E-02
    8985.744     -8.508  -0.600  5.75359E-02  1.17006E-01 -5.94701E-02
    8985.921     -8.331  -0.560  6.08169E-02  1.28869E-01 -6.80516E-02
    8986.086     -8.166  -0.520  6.43088E-02  1.42095E-01 -7.77860E-02
    8986.238     -8.014  -0.480  6.79991E-02  1.56672E-01 -8.86725E-02
    8986.378     -7.874  -0.440  7.18582E-02  1.72470E-01 -1.00612E-01
    8986.506     -7.746  -0.400  7.58360E-02  1.89216E-01 -1.13380E-01
    8986.622     -7.630  -0.360  7.98594E-02  2.06474E-01 -1.26615E-01
    8986.726     -7.526  -0.320  8.38358E-02  2.23682E-01 -1.39847E-01
    8986.817     -7.435  -0.280  8.76599E-02  2.40215E-01 -1.52556E-01
    8986.896     -7.356  -0.240  9.12234E-02  2.55473E-01 -1.64249E-01
    8986.964     -7.289  -0.200  9.44249E-02  2.68953E-01 -1.74528E-01
    8987.018     -7.234  -0.160  9.71756E-02  2.80289E-01 -1.83113E-01
    8987.061     -7.191  -0.120  9.94024E-02  2.89247E-01 -1.89845E-01
    8987.092     -7.161  -0.080  1.01048E-01  2.95700E-01 -1.94651E-01
    8987.116     -7.136   0.000  1.02428E-01  3.00884E-01 -1.98456E-01
    8987.171     -7.081   0.120  1.05562E-01  3.12564E-01 -2.07002E-01
    8987.213     -7.039   0.160  1.07999E-01  3.21651E-01 -2.13651E-01
    8987.268     -6.984   0.200  1.11157E-01  3.33212E-01 -2.22055E-01
    8987.335     -6.917   0.240  1.15151E-01  3.47146E-01 -2.31995E-01
    8987.415     -6.838   0.280  1.19967E-01  3.63106E-01 -2.43139E-01
    8987.506     -6.746   0.320  1.25732E-01  3.80717E-01 -2.54985E-01
    8987.610     -6.642   0.360  1.32512E-01  3.99443E-01 -2.66930E-01
    8987.726     -6.527   0.400  1.40396E-01  4.18715E-01 -2.78319E-01
    8987.854     -6.399   0.440  1.49463E-01  4.38035E-01 -2.88572E-01
    8987.994     -6.258   0.480  1.59736E-01  4.57018E-01 -2.97282E-01
    8988.146     -6.106   0.520  1.71117E-01  4.75418E-01 -3.04301E-01
    8988.311     -5.941   0.560  1.83292E-01  4.93104E-01 -3.09812E-01
    8988.488     -5.765   0.600  1.95808E-01  5.10046E-01 -3.14238E-01
    8988.676     -5.576   0.640  2.08282E-01  5.26322E-01 -3.18040E-01
    8988.878     -5.374   0.680  2.20609E-01  5.41985E-01 -3.21376E-01
    8989.091     -5.161   0.720  2.33253E-01  5.57161E-01 -3.23908E-01
    8989.317     -4.936   0.760  2.46998E-01  5.71916E-01 -3.24918E-01
    8989.554     -4.698   0.800  2.62668E-01  5.86326E-01 -3.23658E-01
    8989.804     -4.448   0.840  2.80824E-01  6.00495E-01 -3.19671E-01
    8990.066     -4.186   0.880  3.01731E-01  6.14476E-01 -3.12745E-01
    8990.341     -3.911   0.920  3.24894E-01  6.28286E-01 -3.03392E-01
    8990.627     -3.625   0.960  3.48242E-01  6.41954E-01 -2.93712E-01
    8990.926     -3.326   1.000  3.68871E-01  6.55534E-01 -2.86664E-01
    8991.237     -3.015   1.040  3.86513E-01  6.69039E-01 -2.82526E-01
    8991.560     -2.692   1.080  4.05296E-01  6.82426E-01 -2.77130E-01
    8991.895     -2.357   1.120  4.30484E-01  6.95731E-01 -2.65247E-01
    8992.243     -2.010   1.160  4.64441E-01  7.08943E-01 -2.44502E-01
    8992.602     -1.650   1.200  5.06561E-01  7.22049E-01 -2.15488E-01
    8992.974     -1.278   1.240  5.53708E-01  7.35010E-01 -1.81302E-01
    8993.358     -0.894   1.280  6.00875E-01  7.47845E-01 -1.46971E-01
    8993.754     -0.498   1.320  6.44815E-01  7.60512E-01 -1.15697E-01
    8994.163     -0.089   1.360  6.84894E-01  7.73005E-01 -8.81106E-02
    8994.583      0.331   1.400  7.20191E-01  7.85279E-01 -6.50882E-02
    8995.016      0.764   1.440  7.49515E-01  7.97328E-01 -4.78127E-02
    8995.461      1.209   1.480  7.72866E-01  8.09124E-01 -3.62579E-02
    8995.919      1.666   1.520  7.94910E-01  8.20660E-01 -2.57491E-02
    8996.388      2.136   1.560  8.28566E-01  8.31908E-01 -3.34260E-03
    8996.869      2.617   1.600  8.81929E-01  8.42844E-01  3.90851E-02
    8997.363      3.111   1.640  9.44834E-01  8.53436E-01  9.13981E-02
    8997.869      3.617   1.680  1.00179E+00  8.63701E-01  1.38094E-01
    8998.387      4.135   1.720  1.04157E+00  8.73615E-01  1.67960E-01
    8998.918      4.666   1.760  1.05666E+00  8.83151E-01  1.73511E-01
    8999.460      5.208   1.800  1.04637E+00  8.92324E-01  1.54048E-01
    9000.015      5.763   1.840  1.02032E+00  9.01091E-01  1.19225E-01
    9000.582      6.330   1.880  9.93850E-01  9.09470E-01  8.43797E-02
    9001.161      6.909   1.920  9.78062E-01  9.17439E-01  6.06228E-02
    9001.752      7.500   1.960  9.77136E-01  9.25018E-01  5.21178E-02
    9002.356      8.104   2.000  9.91043E-01  9.32166E-01  5.88768E-02
    9002.972      8.719   2.040  1.01886E+00  9.38944E-01  7.99166E-02
    9003.599      9.347   2.080  1.05878E+00  9.45293E-01  1.13488E-01
    9004.240      9.987   2.120  1.10442E+00  9.51259E-01  1.53159E-01
    9004.892     10.640   2.160  1.14847E+00  9.56821E-01  1.91646E-01
    9005.556     11.304   2.200  1.18799E+00  9.62003E-01  2.25990E-01
    9006.233     11.981   2.240  1.22060E+00  9.66812E-01  2.53788E-01
    9006.922     12.670   2.280  1.24448E+00  9.71251E-01  2.73229E-01
    9007.623     13.371   2.320  1.25905E+00  9.75326E-01  2.83722E-01
    9008.336     14.084   2.360  1.26323E+00  9.79043E-01  2.84192E-01
    9009.061     14.809   2.400  1.25484E+00  9.82447E-01  2.72394E-01
    9009.799     15.547   2.440  1.23299E+00  9.85506E-01  2.47488E-01
    9010.549     16.297   2.480  1.20320E+00  9.88266E-01  2.14936E-01
    9011.311     17.059   2.520  1.17718E+00  9.90736E-01  1.86449E-01
    9012.085     17.833   2.560  1.16461E+00  9.92921E-01  1.71691E-01
    9012.871     18.619   2.600  1.16077E+00  9.94830E-01  1.65940E-01
    9013.670     19.418   2.640  1.15280E+00  9.96509E-01  1.56287E-01
    9014.481     20.229   2.680  1.13382E+00  9.97925E-01  1.35892E-01
    9015.304     21.052   2.720  1.10210E+00  9.99126E-01  1.02977E-01
    9016.139     21.887   2.760  1.05763E+00  1.00012E+00  5.75095E-02
    9016.986     22.734   2.800  1.00793E+00  1.00091E+00  7.01848E-03
    9017.846     23.594   2.840  9.65088E-01  1.00151E+00 -3.64234E-02
    9018.717     24.465   2.880  9.40412E-01  1.00196E+00 -6.15519E-02
    9019.601     25.349   2.920  9.28514E-01  1.00226E+00 -7.37434E-02
    9020.497     26.245   2.960  9.19815E-01  1.00240E+00 -8.25813E-02
    9021.406     27.154   3.000  9.10545E-01  1.00241E+00 -9.18641E-02
    9022.326     28.074   3.040  9.00407E-01  1.00230E+00 -1.01895E-01
    9023.259     29.007   3.080  8.90243E-01  1.00210E+00 -1.11858E-01
    9024.204     29.952   3.120  8.80914E-01  1.00181E+00 -1.20898E-01
    9025.161     30.909   3.160  8.73020E-01  1.00142E+00 -1.28400E-01
    9026.130     31.878   3.200  8.67013E-01  1.00097E+00 -1.33955E-01
    9027.112     32.859   3.240  8.63211E-01  1.00044E+00 -1.37232E-01
    9028.105     33.853   3.280  8.61857E-01  9.99870E-01 -1.38013E-01
    9029.111     34.859   3.320  8.62506E-01  9.99254E-01 -1.36748E-01
    9030.129     35.877   3.360  8.64850E-01  9.98598E-01 -1.33749E-01
    9031.159     36.907   3.400  8.68709E-01  9.97906E-01 -1.29197E-01
    9032.202     37.950   3.440  8.73826E-01  9.97204E-01 -1.23378E-01
    9033.256     39.004   3.480  8.80008E-01  9.96495E-01 -1.16486E-01
    9034.323     40.071   3.520  8.87177E-01  9.95760E-01 -1.08583E-01
    9035.402     41.150   3.560  8.95330E-01  9.95045E-01 -9.97150E-02
    9036.493     42.241   3.600  9.04254E-01  9.94332E-01 -9.00779E-02
    9037.597     43.345   3.640  9.13882E-01  9.93621E-01 -7.97390E-02
    9038.712     44.460   3.680  9.24058E-01  9.92916E-01 -6.88575E-02
    9039.840     45.588   3.720  9.34582E-01  9.92237E-01 -5.76549E-02
    9040.980     46.728   3.760  9.45279E-01  9.91569E-01 -4.62904E-02
    9042.132     47.880   3.800  9.56061E-01  9.90934E-01 -3.48724E-02
    9043.296     49.044   3.840  9.66750E-01  9.90333E-01 -2.35826E-02
    9044.473     50.221   3.880  9.77085E-01  9.89768E-01 -1.26826E-02
    9045.662     51.410   3.920  9.86841E-01  9.89218E-01 -2.37645E-03
    9046.863     52.610   3.960  9.95892E-01  9.88726E-01  7.16657E-03
    9048.076     53.824   4.000  1.00417E+00  9.88251E-01  1.59170E-02
    9049.301     55.049   4.040  1.01186E+00  9.87835E-01  2.40280E-02
    9050.538     56.286   4.080  1.01915E+00  9.87438E-01  3.17158E-02
    9051.788     57.536   4.120  1.02622E+00  9.87080E-01  3.91406E-02
    9053.050     58.798   4.160  1.03325E+00  9.86783E-01  4.64627E-02
    9054.324     60.072   4.200  1.04028E+00  9.86505E-01  5.37758E-02
    9055.610     61.358   4.240  1.04733E+00  9.86289E-01  6.10395E-02
    9056.909     62.657   4.280  1.05416E+00  9.86113E-01  6.80458E-02
    9058.219     63.967   4.320  1.06035E+00  9.85954E-01  7.43975E-02
    9059.542     65.290   4.360  1.06531E+00  9.85855E-01  7.94601E-02
    9060.877     66.625   4.400  1.06828E+00  9.85773E-01  8.25039E-02
    9062.224     67.972   4.440  1.06880E+00  9.85751E-01  8.30491E-02
    9063.584     69.332   4.480  1.06670E+00  9.85747E-01  8.09573E-02
    9064.955     70.703   4.520  1.06232E+00  9.85801E-01  7.65215E-02
    9066.339     72.087   4.560  1.05631E+00  9.85870E-01  7.04351E-02
    9067.735     73.483   4.600  1.04951E+00  9.85975E-01  6.35392E-02
    9069.143     74.891   4.640  1.04271E+00  9.86113E-01  5.65984E-02
    9070.564     76.312   4.680  1.03645E+00  9.86264E-01  5.01878E-02
    9071.996     77.744   4.720  1.03106E+00  9.86446E-01  4.46152E-02
    9073.441     79.189   4.760  1.02656E+00  9.86661E-01  3.98984E-02
    9074.898     80.646   4.800  1.02267E+00  9.86886E-01  3.57837E-02
    9076.367     82.115   4.840  1.01888E+00  9.87140E-01  3.17431E-02
    9077.848     83.596   4.880  1.01450E+00  9.87400E-01  2.71033E-02
    9079.342     85.090   4.920  1.00899E+00  9.87666E-01  2.13205E-02
    9080.848     86.595   4.960  1.00214E+00  9.87957E-01  1.41875E-02
    9082.366     88.113   5.000  9.94190E-01  9.88253E-01  5.93668E-03
    9083.896     89.643   5.040  9.85693E-01  9.88550E-01 -2.85716E-03
    9085.438     91.186   5.080  9.77376E-01  9.88847E-01 -1.14706E-02
    9086.992     92.740   5.120  9.69926E-01  9.89144E-01 -1.92182E-02
    9088.559     94.307   5.160  9.63831E-01  9.89439E-01 -2.56082E-02
    9090.138     95.886   5.200  9.59364E-01  9.89733E-01 -3.03690E-02
    9091.729     97.477   5.240  9.56458E-01  9.90025E-01 -3.35661E-02
    9093.332     99.080   5.280  9.54768E-01  9.90310E-01 -3.55429E-02
    9094.948    100.695   5.320  9.53744E-01  9.90569E-01 -3.68258E-02
    9096.575    102.323   5.360  9.52936E-01  9.90820E-01 -3.78839E-02
    9098.215    103.963   5.400  9.52100E-01  9.91064E-01 -3.89640E-02
    9099.867    105.615   5.440  9.51217E-01  9.91277E-01 -4.00596E-02
    9101.531    107.279   5.480  9.50398E-01  9.91457E-01 -4.10587E-02
    9103.208    108.956   5.520  9.49795E-01  9.91649E-01 -4.18545E-02
    9104.896    110.644   5.560  9.49383E-01  9.91789E-01 -4.24061E-02
    9106.597    112.345   5.600  9.49246E-01  9.91915E-01 -4.26692E-02
    9108.310    114.058   5.640  9.49418E-01  9.92007E-01 -4.25889E-02
    9110.035    115.783   5.680  9.50057E-01  9.92088E-01 -4.20305E-02
    9111.773    117.520   5.720  9.51321E-01  9.92134E-01 -4.08131E-02
    9113.522    119.270   5.760  9.53395E-01  9.92143E-01 -3.87482E-02
    9115.284    121.032   5.800  9.56382E-01  9.92116E-01 -3.57339E-02
    9117.058    122.806   5.840  9.60285E-01  9.92076E-01 -3.17901E-02
    9118.844    124.592   5.880  9.64893E-01  9.91975E-01 -2.70826E-02
    9120.642    126.390   5.920  9.69990E-01  9.91864E-01 -2.18738E-02
    9122.453    128.201   5.960  9.75276E-01  9.91716E-01 -1.64399E-02
    9124.275    130.023   6.000  9.80611E-01  9.91541E-01 -1.09297E-02
