# # comment:                                                     FEFF 9.9.1  
# # Source:
# # Structure
# # Reduced
# # space
# # abc:
# # angles:125.938930
# # sites:
# # POT  SCF 100  7.0000   0, screened core-hole, AFOLP (folp(0)= 1.150)
# # Abs   Z=29 Rmt= 1.177 Rnm= 1.283 K  shell
# # Pot 1 Z=39 Rmt= 1.631 Rnm= 1.706
# # Pot 2 Z=29 Rmt= 1.177 Rnm= 1.283
# # Pot 3 Z= 8 Rmt= 1.049 Rnm= 1.109
# # Gam_ch=1.729E+00 H-L exch Vi= 0.000E+00 Vr= 0.000E+00
# # Mu=-7.977E+00eV kf=2.126E+00 Vint=-1.644E+01eV Rs_int= 1.706
# FMS rfms= 9.0000
# # PATH  Rmax=-1.000,  Keep_limit= 0.00, Heap_limit 0.00  Pwcrit= 2.50%
#  S02=0.950  Temp=   0.00  Debye_temp=   0.00  Global_sig2= 0.00000
#  Energy zero shift, vr, vi    0.00000E+00   0.00000E+00
#  Curved wave amplitude ratio filter   4.000%
#     file         sig2 tot  cw amp ratio   deg  nlegs   reff  inp sig2
#     0/   0 paths used
#  xsedge+ 50, used to normalize mu           2.4545E-04
#  -----------------------------------------------------------------------
#  omega    e    k    mu    mu0     chi     @#
    8983.973    -11.787  -1.000  3.55379E-02  5.36722E-02 -1.81343E-02
    8984.271    -11.488  -0.960  3.72835E-02  5.75433E-02 -2.02598E-02
    8984.558    -11.201  -0.920  3.91435E-02  6.18417E-02 -2.26982E-02
    8984.832    -10.927  -0.880  4.11269E-02  6.66299E-02 -2.55030E-02
    8985.094    -10.665  -0.840  4.32436E-02  7.19808E-02 -2.87372E-02
    8985.344    -10.415  -0.800  4.55039E-02  7.79785E-02 -3.24747E-02
    8985.582    -10.177  -0.760  4.79188E-02  8.47199E-02 -3.68010E-02
    8985.808     -9.952  -0.720  5.05000E-02  9.23139E-02 -4.18139E-02
    8986.021     -9.738  -0.680  5.32586E-02  1.00881E-01 -4.76222E-02
    8986.222     -9.537  -0.640  5.62052E-02  1.10547E-01 -5.43421E-02
    8986.411     -9.348  -0.600  5.93476E-02  1.21438E-01 -6.20900E-02
    8986.588     -9.172  -0.560  6.26891E-02  1.33658E-01 -7.09687E-02
    8986.752     -9.007  -0.520  6.62241E-02  1.47271E-01 -8.10465E-02
    8986.905     -8.855  -0.480  6.99334E-02  1.62261E-01 -9.23278E-02
    8987.045     -8.714  -0.440  7.37792E-02  1.78498E-01 -1.04719E-01
    8987.173     -8.586  -0.400  7.77002E-02  1.95700E-01 -1.18000E-01
    8987.289     -8.470  -0.360  8.16118E-02  2.13425E-01 -1.31813E-01
    8987.392     -8.367  -0.320  8.54123E-02  2.31097E-01 -1.45685E-01
    8987.484     -8.275  -0.280  8.89942E-02  2.48080E-01 -1.59085E-01
    8987.563     -8.196  -0.240  9.22582E-02  2.63757E-01 -1.71499E-01
    8987.630     -8.129  -0.200  9.51237E-02  2.77614E-01 -1.82491E-01
    8987.685     -8.074  -0.160  9.75322E-02  2.89274E-01 -1.91742E-01
    8987.728     -8.032  -0.120  9.94441E-02  2.98493E-01 -1.99049E-01
    8987.758     -8.001  -0.080  1.00833E-01  3.05136E-01 -2.04303E-01
    8987.783     -7.977   0.000  1.01971E-01  3.10474E-01 -2.08503E-01
    8987.837     -7.922   0.120  1.04568E-01  3.22520E-01 -2.17952E-01
    8987.880     -7.879   0.160  1.06552E-01  3.31886E-01 -2.25333E-01
    8987.935     -7.824   0.200  1.09087E-01  3.43839E-01 -2.34752E-01
    8988.002     -7.757   0.240  1.12196E-01  3.58245E-01 -2.46049E-01
    8988.081     -7.678   0.280  1.15846E-01  3.74784E-01 -2.58938E-01
    8988.173     -7.587   0.320  1.20123E-01  3.93086E-01 -2.72963E-01
    8988.276     -7.483   0.360  1.25064E-01  4.12600E-01 -2.87536E-01
    8988.392     -7.367   0.400  1.30818E-01  4.32781E-01 -3.01963E-01
    8988.520     -7.239   0.440  1.37673E-01  4.53133E-01 -3.15460E-01
    8988.660     -7.099   0.480  1.46007E-01  4.73271E-01 -3.27264E-01
    8988.813     -6.946   0.520  1.56340E-01  4.92910E-01 -3.36570E-01
    8988.977     -6.782   0.560  1.69450E-01  5.11955E-01 -3.42505E-01
    8989.154     -6.605   0.600  1.86297E-01  5.30356E-01 -3.44060E-01
    8989.343     -6.416   0.640  2.08211E-01  5.48166E-01 -3.39954E-01
    8989.544     -6.215   0.680  2.36787E-01  5.65474E-01 -3.28687E-01
    8989.758     -6.002   0.720  2.73471E-01  5.82342E-01 -3.08871E-01
    8989.983     -5.776   0.760  3.18732E-01  5.98868E-01 -2.80136E-01
    8990.221     -5.538   0.800  3.70902E-01  6.15104E-01 -2.44202E-01
    8990.471     -5.288   0.840  4.26870E-01  6.31127E-01 -2.04257E-01
    8990.733     -5.026   0.880  4.83990E-01  6.46981E-01 -1.62991E-01
    8991.007     -4.752   0.920  5.37729E-01  6.62677E-01 -1.24948E-01
    8991.294     -4.465   0.960  5.76262E-01  6.78255E-01 -1.01993E-01
    8991.593     -4.167   1.000  5.85644E-01  6.93724E-01 -1.08080E-01
    8991.903     -3.856   1.040  5.66259E-01  7.09042E-01 -1.42784E-01
    8992.227     -3.533   1.080  5.34162E-01  7.24225E-01 -1.90063E-01
    8992.562     -3.197   1.120  5.03559E-01  7.39279E-01 -2.35720E-01
    8992.909     -2.850   1.160  4.78093E-01  7.54144E-01 -2.76051E-01
    8993.269     -2.490   1.200  4.57015E-01  7.68799E-01 -3.11783E-01
    8993.641     -2.118   1.240  4.41720E-01  7.83238E-01 -3.41518E-01
    8994.025     -1.734   1.280  4.34608E-01  7.97395E-01 -3.62787E-01
    8994.421     -1.338   1.320  4.39013E-01  8.11281E-01 -3.72269E-01
    8994.830     -0.930   1.360  4.55674E-01  8.24847E-01 -3.69174E-01
    8995.250     -0.509   1.400  4.76569E-01  8.38061E-01 -3.61493E-01
    8995.683     -0.076   1.440  4.94668E-01  8.50912E-01 -3.56244E-01
    8996.128      0.369   1.480  5.11868E-01  8.63332E-01 -3.51464E-01
    8996.585      0.826   1.520  5.32391E-01  8.75330E-01 -3.42939E-01
    8997.055      1.295   1.560  5.60067E-01  8.86877E-01 -3.26810E-01
    8997.536      1.777   1.600  6.02659E-01  8.97946E-01 -2.95287E-01
    8998.030      2.271   1.640  6.65653E-01  9.08531E-01 -2.42878E-01
    8998.536      2.777   1.680  7.42412E-01  9.18624E-01 -1.76212E-01
    8999.054      3.295   1.720  8.20275E-01  9.28183E-01 -1.07908E-01
    8999.584      3.825   1.760  8.91896E-01  9.37225E-01 -4.53291E-02
    9000.127      4.368   1.800  9.59971E-01  9.45749E-01  1.42219E-02
    9000.682      4.922   1.840  1.04599E+00  9.53733E-01  9.22609E-02
    9001.249      5.489   1.880  1.17715E+00  9.61179E-01  2.15974E-01
    9001.828      6.068   1.920  1.35675E+00  9.68113E-01  3.88642E-01
    9002.419      6.660   1.960  1.53587E+00  9.74536E-01  5.61336E-01
    9003.023      7.263   2.000  1.63321E+00  9.80433E-01  6.52778E-01
    9003.638      7.879   2.040  1.61999E+00  9.85851E-01  6.34143E-01
    9004.266      8.507   2.080  1.54153E+00  9.90777E-01  5.50753E-01
    9004.906      9.147   2.120  1.45000E+00  9.95218E-01  4.54785E-01
    9005.558      9.799   2.160  1.35164E+00  9.99224E-01  3.52419E-01
    9006.223     10.464   2.200  1.24276E+00  1.00278E+00  2.39976E-01
    9006.900     11.140   2.240  1.15168E+00  1.00592E+00  1.45758E-01
    9007.588     11.829   2.280  1.10877E+00  1.00866E+00  1.00116E-01
    9008.289     12.530   2.320  1.11463E+00  1.01101E+00  1.03621E-01
    9009.003     13.243   2.360  1.14284E+00  1.01302E+00  1.29811E-01
    9009.728     13.969   2.400  1.16257E+00  1.01468E+00  1.47888E-01
    9010.466     14.706   2.440  1.16656E+00  1.01603E+00  1.50523E-01
    9011.216     15.456   2.480  1.16538E+00  1.01707E+00  1.48314E-01
    9011.978     16.218   2.520  1.16614E+00  1.01784E+00  1.48299E-01
    9012.752     16.992   2.560  1.16112E+00  1.01834E+00  1.42779E-01
    9013.538     17.779   2.600  1.14864E+00  1.01862E+00  1.30020E-01
    9014.337     18.577   2.640  1.12955E+00  1.01868E+00  1.10864E-01
    9015.147     19.388   2.680  1.10522E+00  1.01855E+00  8.66691E-02
    9015.970     20.211   2.720  1.07764E+00  1.01822E+00  5.94197E-02
    9016.806     21.046   2.760  1.04935E+00  1.01775E+00  3.16073E-02
    9017.653     21.894   2.800  1.02251E+00  1.01712E+00  5.39022E-03
    9018.512     22.753   2.840  9.98878E-01  1.01639E+00 -1.75086E-02
    9019.384     23.625   2.880  9.78818E-01  1.01552E+00 -3.66978E-02
    9020.268     24.509   2.920  9.61227E-01  1.01458E+00 -5.33493E-02
    9021.164     25.405   2.960  9.44996E-01  1.01353E+00 -6.85368E-02
    9022.072     26.313   3.000  9.29496E-01  1.01244E+00 -8.29393E-02
    9022.993     27.234   3.040  9.14619E-01  1.01129E+00 -9.66703E-02
    9023.926     28.166   3.080  9.00734E-01  1.01010E+00 -1.09367E-01
    9024.871     29.111   3.120  8.88393E-01  1.00887E+00 -1.20481E-01
    9025.828     30.068   3.160  8.77991E-01  1.00762E+00 -1.29624E-01
    9026.797     31.038   3.200  8.70102E-01  1.00635E+00 -1.36250E-01
    9027.778     32.019   3.240  8.65354E-01  1.00511E+00 -1.39754E-01
    9028.772     33.013   3.280  8.63764E-01  1.00387E+00 -1.40104E-01
    9029.778     34.018   3.320  8.64860E-01  1.00263E+00 -1.37775E-01
    9030.796     35.036   3.360  8.67878E-01  1.00143E+00 -1.33553E-01
    9031.826     36.067   3.400  8.72151E-01  1.00024E+00 -1.28091E-01
    9032.868     37.109   3.440  8.77150E-01  9.99111E-01 -1.21961E-01
    9033.923     38.164   3.480  8.82924E-01  9.98001E-01 -1.15077E-01
    9034.990     39.231   3.520  8.89947E-01  9.96955E-01 -1.07007E-01
    9036.069     40.310   3.560  8.98455E-01  9.95954E-01 -9.74986E-02
    9037.160     41.401   3.600  9.08317E-01  9.95023E-01 -8.67057E-02
    9038.263     42.504   3.640  9.18932E-01  9.94140E-01 -7.52076E-02
    9039.379     43.620   3.680  9.29571E-01  9.93328E-01 -6.37573E-02
    9040.507     44.747   3.720  9.39416E-01  9.92568E-01 -5.31522E-02
    9041.647     45.887   3.760  9.48029E-01  9.91881E-01 -4.38516E-02
    9042.799     47.039   3.800  9.55218E-01  9.91247E-01 -3.60285E-02
    9043.963     48.204   3.840  9.61111E-01  9.90709E-01 -2.95981E-02
    9045.140     49.380   3.880  9.66089E-01  9.90226E-01 -2.41365E-02
    9046.328     50.569   3.920  9.70881E-01  9.89818E-01 -1.89363E-02
    9047.529     51.770   3.960  9.76289E-01  9.89464E-01 -1.31754E-02
    9048.742     52.983   4.000  9.83127E-01  9.89208E-01 -6.08100E-03
    9049.968     54.208   4.040  9.91873E-01  9.89006E-01  2.86700E-03
    9051.205     55.446   4.080  1.00255E+00  9.88880E-01  1.36689E-02
    9052.455     56.695   4.120  1.01469E+00  9.88829E-01  2.58587E-02
    9053.717     57.957   4.160  1.02753E+00  9.88830E-01  3.86965E-02
    9054.991     59.231   4.200  1.04003E+00  9.88904E-01  5.11219E-02
    9056.277     60.518   4.240  1.05105E+00  9.89050E-01  6.19966E-02
    9057.575     61.816   4.280  1.05976E+00  9.89247E-01  7.05154E-02
    9058.886     63.127   4.320  1.06589E+00  9.89489E-01  7.64049E-02
    9060.209     64.450   4.360  1.06966E+00  9.89799E-01  7.98561E-02
    9061.544     65.785   4.400  1.07146E+00  9.90156E-01  8.13085E-02
    9062.891     67.132   4.440  1.07189E+00  9.90558E-01  8.13364E-02
    9064.251     68.491   4.480  1.07132E+00  9.91026E-01  8.02911E-02
    9065.622     69.863   4.520  1.06969E+00  9.91535E-01  7.81563E-02
    9067.006     71.247   4.560  1.06670E+00  9.92062E-01  7.46412E-02
    9068.402     72.643   4.600  1.06217E+00  9.92648E-01  6.95268E-02
    9069.810     74.051   4.640  1.05627E+00  9.93250E-01  6.30225E-02
    9071.230     75.471   4.680  1.04980E+00  9.93909E-01  5.58953E-02
    9072.663     76.904   4.720  1.04365E+00  9.94557E-01  4.90958E-02
    9074.108     78.348   4.760  1.03849E+00  9.95255E-01  4.32321E-02
    9075.565     79.805   4.800  1.03440E+00  9.95940E-01  3.84651E-02
    9077.034     81.274   4.840  1.03127E+00  9.96651E-01  3.46192E-02
    9078.515     82.756   4.880  1.02876E+00  9.97366E-01  3.13985E-02
    9080.009     84.249   4.920  1.02656E+00  9.98105E-01  2.84577E-02
    9081.514     85.755   4.960  1.02414E+00  9.98823E-01  2.53128E-02
    9083.032     87.273   5.000  1.02092E+00  9.99538E-01  2.13836E-02
    9084.562     88.803   5.040  1.01653E+00  1.00027E+00  1.62641E-02
    9086.105     90.345   5.080  1.01091E+00  1.00095E+00  9.95475E-03
    9087.659     91.900   5.120  1.00458E+00  1.00165E+00  2.92993E-03
    9089.226     93.466   5.160  9.98185E-01  1.00232E+00 -4.13309E-03
    9090.805     95.045   5.200  9.92385E-01  1.00295E+00 -1.05664E-02
    9092.396     96.636   5.240  9.87813E-01  1.00357E+00 -1.57583E-02
    9093.999     98.240   5.280  9.84921E-01  1.00416E+00 -1.92376E-02
    9095.614     99.855   5.320  9.83808E-01  1.00473E+00 -2.09227E-02
    9097.242    101.483   5.360  9.83884E-01  1.00524E+00 -2.13559E-02
    9098.882    103.122   5.400  9.84009E-01  1.00573E+00 -2.17225E-02
    9100.534    104.774   5.440  9.82806E-01  1.00616E+00 -2.33548E-02
    9102.198    106.439   5.480  9.79568E-01  1.00657E+00 -2.70000E-02
    9103.874    108.115   5.520  9.74373E-01  1.00691E+00 -3.25388E-02
    9105.563    109.804   5.560  9.67820E-01  1.00721E+00 -3.93897E-02
    9107.264    111.504   5.600  9.60598E-01  1.00746E+00 -4.68665E-02
    9108.977    113.217   5.640  9.53587E-01  1.00768E+00 -5.40893E-02
    9110.702    114.943   5.680  9.47995E-01  1.00784E+00 -5.98471E-02
    9112.439    116.680   5.720  9.45044E-01  1.00794E+00 -6.28938E-02
    9114.189    118.429   5.760  9.45584E-01  1.00799E+00 -6.24037E-02
    9115.950    120.191   5.800  9.49689E-01  1.00797E+00 -5.82776E-02
    9117.724    121.965   5.840  9.56778E-01  1.00790E+00 -5.11215E-02
    9119.511    123.751   5.880  9.65695E-01  1.00779E+00 -4.20949E-02
    9121.309    125.550   5.920  9.74922E-01  1.00764E+00 -3.27142E-02
    9123.119    127.360   5.960  9.82888E-01  1.00741E+00 -2.45188E-02
    9124.942    129.183   6.000  9.88665E-01  1.00709E+00 -1.84266E-02
