# # comment:                                                     FEFF 9.9.1  
# # Source:
# # Structure
# # Reduced
# # space
# # abc:
# # angles:
# # sites:
# # POT  SCF 100  7.0000   0, screened core-hole, AFOLP (folp(0)= 1.150)
# # Abs   Z=29 Rmt= 1.294 Rnm= 1.343 K  shell
# # Pot 1 Z=29 Rmt= 1.294 Rnm= 1.343
# # Pot 2 Z=28 Rmt= 1.337 Rnm= 1.407
# # Pot 3 Z= 8 Rmt= 1.044 Rnm= 1.093
# # Gam_ch=1.729E+00 H-L exch Vi= 0.000E+00 Vr= 0.000E+00
# # Mu=-9.698E+00eV kf=2.144E+00 Vint=-1.834E+01eV Rs_int= 1.692
# FMS rfms= 9.0000
# # PATH  Rmax=-1.000,  Keep_limit= 0.00, Heap_limit 0.00  Pwcrit= 2.50%
#  S02=0.950  Temp=   0.00  Debye_temp=   0.00  Global_sig2= 0.00000
#  Energy zero shift, vr, vi    0.00000E+00   0.00000E+00
#  Curved wave amplitude ratio filter   4.000%
#     file         sig2 tot  cw amp ratio   deg  nlegs   reff  inp sig2
#     0/   0 paths used
#  xsedge+ 50, used to normalize mu           2.4674E-04
#  -----------------------------------------------------------------------
#  omega    e    k    mu    mu0     chi     @#
    8984.588    -13.508  -1.000  3.73159E-02  5.55837E-02 -1.82678E-02
    8984.886    -13.209  -0.960  3.89826E-02  5.96480E-02 -2.06654E-02
    8985.173    -12.923  -0.920  4.07416E-02  6.41653E-02 -2.34237E-02
    8985.447    -12.648  -0.880  4.26006E-02  6.92021E-02 -2.66015E-02
    8985.709    -12.386  -0.840  4.45689E-02  7.48361E-02 -3.02672E-02
    8985.959    -12.136  -0.800  4.66575E-02  8.11571E-02 -3.44996E-02
    8986.197    -11.899  -0.760  4.88792E-02  8.82683E-02 -3.93891E-02
    8986.422    -11.673  -0.720  5.12486E-02  9.62861E-02 -4.50375E-02
    8986.636    -11.460  -0.680  5.37823E-02  1.05339E-01 -5.15564E-02
    8986.837    -11.259  -0.640  5.64978E-02  1.15562E-01 -5.90637E-02
    8987.026    -11.070  -0.600  5.94116E-02  1.27088E-01 -6.76759E-02
    8987.203    -10.893  -0.560  6.25354E-02  1.40030E-01 -7.74945E-02
    8987.367    -10.728  -0.520  6.58706E-02  1.54456E-01 -8.85857E-02
    8987.520    -10.576  -0.480  6.93999E-02  1.70351E-01 -1.00952E-01
    8987.660    -10.436  -0.440  7.30780E-02  1.87576E-01 -1.14498E-01
    8987.788    -10.308  -0.400  7.68260E-02  2.05830E-01 -1.29004E-01
    8987.904    -10.192  -0.360  8.05326E-02  2.24643E-01 -1.44110E-01
    8988.007    -10.088  -0.320  8.40676E-02  2.43403E-01 -1.59335E-01
    8988.099     -9.997  -0.280  8.73042E-02  2.61431E-01 -1.74126E-01
    8988.178     -9.917  -0.240  9.01429E-02  2.78072E-01 -1.87929E-01
    8988.245     -9.850  -0.200  9.25249E-02  2.92780E-01 -2.00255E-01
    8988.300     -9.796  -0.160  9.44309E-02  3.05153E-01 -2.10722E-01
    8988.343     -9.753  -0.120  9.58664E-02  3.14934E-01 -2.19068E-01
    8988.373     -9.722  -0.080  9.68441E-02  3.21981E-01 -2.25137E-01
    8988.398     -9.698   0.000  9.75321E-02  3.27643E-01 -2.30111E-01
    8988.452     -9.643   0.120  9.93477E-02  3.40404E-01 -2.41056E-01
    8988.495     -9.600   0.160  1.00769E-01  3.50326E-01 -2.49557E-01
    8988.550     -9.546   0.200  1.02567E-01  3.63002E-01 -2.60434E-01
    8988.617     -9.479   0.240  1.04688E-01  3.78261E-01 -2.73574E-01
    8988.696     -9.399   0.280  1.07004E-01  3.95762E-01 -2.88758E-01
    8988.788     -9.308   0.320  1.09526E-01  4.15104E-01 -3.05578E-01
    8988.891     -9.204   0.360  1.12164E-01  4.35716E-01 -3.23552E-01
    8989.007     -9.088   0.400  1.14915E-01  4.56974E-01 -3.42058E-01
    8989.135     -8.960   0.440  1.17907E-01  4.78383E-01 -3.60476E-01
    8989.275     -8.820   0.480  1.21265E-01  4.99490E-01 -3.78225E-01
    8989.428     -8.668   0.520  1.25206E-01  5.20030E-01 -3.94823E-01
    8989.592     -8.503   0.560  1.29912E-01  5.39841E-01 -4.09929E-01
    8989.769     -8.326   0.600  1.35706E-01  5.58929E-01 -4.23223E-01
    8989.958     -8.137   0.640  1.42866E-01  5.77331E-01 -4.34465E-01
    8990.159     -7.936   0.680  1.51691E-01  5.95102E-01 -4.43411E-01
    8990.373     -7.723   0.720  1.62625E-01  6.12370E-01 -4.49745E-01
    8990.598     -7.497   0.760  1.75998E-01  6.29181E-01 -4.53183E-01
    8990.836     -7.260   0.800  1.92225E-01  6.45632E-01 -4.53407E-01
    8991.086     -7.010   0.840  2.11791E-01  6.61785E-01 -4.49994E-01
    8991.348     -6.748   0.880  2.35707E-01  6.77670E-01 -4.41963E-01
    8991.622     -6.473   0.920  2.66041E-01  6.93342E-01 -4.27301E-01
    8991.909     -6.187   0.960  3.05975E-01  7.08824E-01 -4.02849E-01
    8992.208     -5.888   1.000  3.58736E-01  7.24107E-01 -3.65371E-01
    8992.518     -5.577   1.040  4.24380E-01  7.39175E-01 -3.14795E-01
    8992.842     -5.254   1.080  4.94306E-01  7.54062E-01 -2.59756E-01
    8993.177     -4.919   1.120  5.51421E-01  7.68697E-01 -2.17275E-01
    8993.524     -4.571   1.160  5.87440E-01  7.83124E-01 -1.95684E-01
    8993.884     -4.212   1.200  6.15091E-01  7.97262E-01 -1.82171E-01
    8994.256     -3.840   1.240  6.49461E-01  8.11110E-01 -1.61649E-01
    8994.640     -3.456   1.280  6.85894E-01  8.24663E-01 -1.38769E-01
    8995.036     -3.060   1.320  7.12588E-01  8.37852E-01 -1.25264E-01
    8995.445     -2.651   1.360  7.39615E-01  8.50670E-01 -1.11055E-01
    8995.865     -2.230   1.400  7.90952E-01  8.63089E-01 -7.21377E-02
    8996.298     -1.798   1.440  8.88201E-01  8.75083E-01  1.31181E-02
    8996.743     -1.353   1.480  1.04932E+00  8.86621E-01  1.62702E-01
    8997.200     -0.895   1.520  1.25602E+00  8.97699E-01  3.58317E-01
    8997.670     -0.426   1.560  1.41139E+00  9.08311E-01  5.03076E-01
    8998.151      0.056   1.600  1.44611E+00  9.18411E-01  5.27694E-01
    8998.645      0.549   1.640  1.40544E+00  9.27993E-01  4.77451E-01
    8999.151      1.055   1.680  1.36277E+00  9.37059E-01  4.25709E-01
    8999.669      1.573   1.720  1.38840E+00  9.45607E-01  4.42797E-01
    9000.199      2.104   1.760  1.52454E+00  9.53635E-01  5.70900E-01
    9000.742      2.646   1.800  1.77168E+00  9.61126E-01  8.10553E-01
    9001.297      3.201   1.840  2.05715E+00  9.68102E-01  1.08905E+00
    9001.864      3.768   1.880  2.15827E+00  9.74548E-01  1.18372E+00
    9002.443      4.347   1.920  1.92144E+00  9.80507E-01  9.40929E-01
    9003.034      4.938   1.960  1.59288E+00  9.85946E-01  6.06937E-01
    9003.638      5.542   2.000  1.35779E+00  9.90914E-01  3.66872E-01
    9004.253      6.158   2.040  1.18309E+00  9.95396E-01  1.87691E-01
    9004.881      6.785   2.080  1.04255E+00  9.99443E-01  4.31071E-02
    9005.521      7.426   2.120  9.44014E-01  1.00304E+00 -5.90285E-02
    9006.173      8.078   2.160  8.83680E-01  1.00622E+00 -1.22545E-01
    9006.838      8.742   2.200  8.45687E-01  1.00900E+00 -1.63311E-01
    9007.515      9.419   2.240  8.16231E-01  1.01140E+00 -1.95166E-01
    9008.203     10.108   2.280  7.93597E-01  1.01343E+00 -2.19832E-01
    9008.904     10.809   2.320  7.81880E-01  1.01513E+00 -2.33246E-01
    9009.618     11.522   2.360  7.80462E-01  1.01652E+00 -2.36057E-01
    9010.343     12.247   2.400  7.82580E-01  1.01760E+00 -2.35019E-01
    9011.081     12.985   2.440  7.86284E-01  1.01840E+00 -2.32112E-01
    9011.831     13.735   2.480  7.99974E-01  1.01896E+00 -2.18986E-01
    9012.592     14.497   2.520  8.37542E-01  1.01928E+00 -1.81742E-01
    9013.367     15.271   2.560  9.06882E-01  1.01938E+00 -1.12494E-01
    9014.153     16.057   2.600  9.77259E-01  1.01929E+00 -4.20291E-02
    9014.952     16.856   2.640  1.01979E+00  1.01903E+00  7.66498E-04
    9015.762     17.667   2.680  1.02590E+00  1.01858E+00  7.32016E-03
    9016.585     18.490   2.720  1.00190E+00  1.01803E+00 -1.61252E-02
    9017.421     19.325   2.760  9.60800E-01  1.01733E+00 -5.65253E-02
    9018.268     20.172   2.800  9.15897E-01  1.01653E+00 -1.00629E-01
    9019.127     21.032   2.840  8.79379E-01  1.01562E+00 -1.36239E-01
    9019.999     21.904   2.880  8.56359E-01  1.01465E+00 -1.58290E-01
    9020.883     22.787   2.920  8.45840E-01  1.01360E+00 -1.67764E-01
    9021.779     23.684   2.960  8.44436E-01  1.01251E+00 -1.68073E-01
    9022.687     24.592   3.000  8.47622E-01  1.01135E+00 -1.63730E-01
    9023.608     25.512   3.040  8.52052E-01  1.01020E+00 -1.58148E-01
    9024.541     26.445   3.080  8.56001E-01  1.00899E+00 -1.52993E-01
    9025.485     27.390   3.120  8.59392E-01  1.00780E+00 -1.48411E-01
    9026.443     28.347   3.160  8.63911E-01  1.00659E+00 -1.42679E-01
    9027.412     29.316   3.200  8.72058E-01  1.00540E+00 -1.33342E-01
    9028.393     30.298   3.240  8.85144E-01  1.00422E+00 -1.19072E-01
    9029.387     31.291   3.280  9.02736E-01  1.00306E+00 -1.00326E-01
    9030.393     32.297   3.320  9.22989E-01  1.00192E+00 -7.89317E-02
    9031.411     33.315   3.360  9.43455E-01  1.00084E+00 -5.73813E-02
    9032.441     34.345   3.400  9.61983E-01  9.99769E-01 -3.77856E-02
    9033.483     35.388   3.440  9.78196E-01  9.98742E-01 -2.05458E-02
    9034.538     36.442   3.480  9.93689E-01  9.97778E-01 -4.08963E-03
    9035.605     37.509   3.520  1.01129E+00  9.96860E-01  1.44340E-02
    9036.684     38.588   3.560  1.03425E+00  9.95987E-01  3.82617E-02
    9037.775     39.679   3.600  1.06455E+00  9.95182E-01  6.93665E-02
    9038.878     40.783   3.640  1.10151E+00  9.94423E-01  1.07083E-01
    9039.994     41.898   3.680  1.14098E+00  9.93714E-01  1.47268E-01
    9041.122     43.026   3.720  1.17617E+00  9.93074E-01  1.83091E-01
    9042.262     44.166   3.760  1.20017E+00  9.92506E-01  2.07667E-01
    9043.414     45.318   3.800  1.20957E+00  9.91989E-01  2.17585E-01
    9044.578     46.482   3.840  1.20679E+00  9.91542E-01  2.15253E-01
    9045.755     47.659   3.880  1.19699E+00  9.91146E-01  2.05849E-01
    9046.943     48.848   3.920  1.18434E+00  9.90821E-01  1.93520E-01
    9048.144     50.049   3.960  1.17040E+00  9.90566E-01  1.79834E-01
    9049.357     51.262   4.000  1.15523E+00  9.90339E-01  1.64896E-01
    9050.583     52.487   4.040  1.13849E+00  9.90201E-01  1.48290E-01
    9051.820     53.724   4.080  1.11920E+00  9.90090E-01  1.29109E-01
    9053.070     54.974   4.120  1.09627E+00  9.90068E-01  1.06199E-01
    9054.332     56.236   4.160  1.06911E+00  9.90070E-01  7.90433E-02
    9055.606     57.510   4.200  1.03850E+00  9.90134E-01  4.83695E-02
    9056.892     58.796   4.240  1.00639E+00  9.90221E-01  1.61714E-02
    9058.190     60.095   4.280  9.75507E-01  9.90372E-01 -1.48648E-02
    9059.501     61.405   4.320  9.48224E-01  9.90563E-01 -4.23393E-02
    9060.824     62.728   4.360  9.25709E-01  9.90796E-01 -6.50862E-02
    9062.159     64.063   4.400  9.07540E-01  9.91064E-01 -8.35245E-02
    9063.506     65.410   4.440  8.92258E-01  9.91370E-01 -9.91118E-02
    9064.865     66.770   4.480  8.78691E-01  9.91689E-01 -1.12998E-01
    9066.237     68.141   4.520  8.66941E-01  9.92039E-01 -1.25099E-01
    9067.621     69.525   4.560  8.58183E-01  9.92422E-01 -1.34239E-01
    9069.017     70.921   4.600  8.54012E-01  9.92815E-01 -1.38804E-01
    9070.425     72.329   4.640  8.55868E-01  9.93237E-01 -1.37369E-01
    9071.845     73.750   4.680  8.63991E-01  9.93664E-01 -1.29672E-01
    9073.278     75.182   4.720  8.77347E-01  9.94092E-01 -1.16745E-01
    9074.723     76.627   4.760  8.93881E-01  9.94524E-01 -1.00643E-01
    9076.180     78.084   4.800  9.11165E-01  9.94979E-01 -8.38138E-02
    9077.649     79.553   4.840  9.27127E-01  9.95412E-01 -6.82853E-02
    9079.130     81.034   4.880  9.40947E-01  9.95863E-01 -5.49158E-02
    9080.624     82.528   4.920  9.52836E-01  9.96289E-01 -4.34531E-02
    9082.129     84.034   4.960  9.63441E-01  9.96708E-01 -3.32667E-02
    9083.647     85.552   5.000  9.73304E-01  9.97097E-01 -2.37924E-02
    9085.177     87.082   5.040  9.83350E-01  9.97478E-01 -1.41275E-02
    9086.720     88.624   5.080  9.95223E-01  9.97851E-01 -2.62844E-03
    9088.274     90.178   5.120  1.01050E+00  9.98195E-01  1.23096E-02
    9089.841     91.745   5.160  1.02932E+00  9.98526E-01  3.07980E-02
    9091.420     93.324   5.200  1.04946E+00  9.98824E-01  5.06409E-02
    9093.011     94.915   5.240  1.06745E+00  9.99108E-01  6.83396E-02
    9094.614     96.518   5.280  1.08042E+00  9.99334E-01  8.10855E-02
    9096.229     98.134   5.320  1.08710E+00  9.99543E-01  8.75591E-02
    9097.857     99.761   5.360  1.08689E+00  9.99715E-01  8.71768E-02
    9099.497    101.401   5.400  1.08010E+00  9.99849E-01  8.02517E-02
    9101.149    103.053   5.440  1.06870E+00  9.99944E-01  6.87559E-02
    9102.813    104.717   5.480  1.05491E+00  1.00002E+00  5.48876E-02
    9104.489    106.394   5.520  1.03910E+00  1.00004E+00  3.90573E-02
    9106.178    108.082   5.560  1.02088E+00  1.00004E+00  2.08355E-02
    9107.879    109.783   5.600  1.00069E+00  1.00001E+00  6.79865E-04
    9109.592    111.496   5.640  9.79501E-01  9.99905E-01 -2.04039E-02
    9111.317    113.221   5.680  9.57919E-01  9.99788E-01 -4.18686E-02
    9113.054    114.959   5.720  9.36790E-01  9.99633E-01 -6.28434E-02
    9114.804    116.708   5.760  9.18961E-01  9.99440E-01 -8.04786E-02
    9116.565    118.470   5.800  9.09273E-01  9.99207E-01 -8.99342E-02
    9118.339    120.244   5.840  9.12276E-01  9.98937E-01 -8.66613E-02
    9120.125    122.030   5.880  9.29358E-01  9.98631E-01 -6.92725E-02
    9121.924    123.828   5.920  9.57281E-01  9.98291E-01 -4.10101E-02
    9123.734    125.639   5.960  9.88973E-01  9.97943E-01 -8.97039E-03
    9125.557    127.461   6.000  1.01677E+00  9.97541E-01  1.92309E-02
