# # comment:                                                     FEFF 9.9.1  
# # Source:
# # Structure
# # Reduced
# # space
# # abc:
# # angles:
# # sites:
# # POT  SCF 100  7.0000   0, screened core-hole, AFOLP (folp(0)= 1.150)
# # Abs   Z=29 Rmt= 1.106 Rnm= 1.261 K  shell
# # Pot 1 Z=29 Rmt= 1.106 Rnm= 1.261
# # Pot 2 Z=17 Rmt= 0.792 Rnm= 1.072
# # Pot 3 Z= 8 Rmt= 1.062 Rnm= 1.200
# # Gam_ch=1.729E+00 H-L exch Vi= 0.000E+00 Vr= 0.000E+00
# # Mu=-7.818E+00eV kf=2.162E+00 Vint=-1.246E+01eV Rs_int= 1.677
# FMS rfms= 9.0000
# # PATH  Rmax=-1.000,  Keep_limit= 0.00, Heap_limit 0.00  Pwcrit= 2.50%
#  S02=0.950  Temp=   0.00  Debye_temp=   0.00  Global_sig2= 0.00000
#  Energy zero shift, vr, vi    0.00000E+00   0.00000E+00
#  Curved wave amplitude ratio filter   4.000%
#     file         sig2 tot  cw amp ratio   deg  nlegs   reff  inp sig2
#     0/   0 paths used
#  xsedge+ 50, used to normalize mu           2.4168E-04
#  -----------------------------------------------------------------------
#  omega    e    k    mu    mu0     chi     @#
    8983.287    -11.628  -1.000  2.69771E-02  5.16121E-02 -2.46350E-02
    8983.586    -11.329  -0.960  2.80017E-02  5.50279E-02 -2.70262E-02
    8983.872    -11.043  -0.920  2.90936E-02  5.87844E-02 -2.96907E-02
    8984.146    -10.768  -0.880  3.02633E-02  6.29274E-02 -3.26641E-02
    8984.409    -10.506  -0.840  3.15235E-02  6.75099E-02 -3.59864E-02
    8984.658    -10.256  -0.800  3.28898E-02  7.25926E-02 -3.97028E-02
    8984.896    -10.019  -0.760  3.43812E-02  7.82447E-02 -4.38635E-02
    8985.122     -9.793  -0.720  3.60199E-02  8.45436E-02 -4.85237E-02
    8985.335     -9.580  -0.680  3.78318E-02  9.15735E-02 -5.37417E-02
    8985.536     -9.378  -0.640  3.98449E-02  9.94225E-02 -5.95776E-02
    8985.725     -9.190  -0.600  4.20878E-02  1.08176E-01 -6.60879E-02
    8985.902     -9.013  -0.560  4.45851E-02  1.17904E-01 -7.33190E-02
    8986.067     -8.848  -0.520  4.73503E-02  1.28646E-01 -8.12962E-02
    8986.219     -8.696  -0.480  5.03759E-02  1.40386E-01 -9.00100E-02
    8986.359     -8.556  -0.440  5.36226E-02  1.53021E-01 -9.93989E-02
    8986.487     -8.428  -0.400  5.70109E-02  1.66345E-01 -1.09334E-01
    8986.603     -8.312  -0.360  6.04222E-02  1.80033E-01 -1.19611E-01
    8986.707     -8.208  -0.320  6.37133E-02  1.93667E-01 -1.29953E-01
    8986.798     -8.117  -0.280  6.67430E-02  2.06775E-01 -1.40032E-01
    8986.877     -8.037  -0.240  6.94004E-02  2.18903E-01 -1.49503E-01
    8986.944     -7.970  -0.200  7.16220E-02  2.29658E-01 -1.58036E-01
    8986.999     -7.915  -0.160  7.33908E-02  2.38741E-01 -1.65350E-01
    8987.042     -7.873  -0.120  7.47232E-02  2.45952E-01 -1.71229E-01
    8987.072     -7.842  -0.080  7.56528E-02  2.51167E-01 -1.75514E-01
    8987.097     -7.818   0.000  7.64144E-02  2.55374E-01 -1.78959E-01
    8987.152     -7.763   0.120  7.83645E-02  2.64887E-01 -1.86522E-01
    8987.194     -7.720   0.160  7.96203E-02  2.72331E-01 -1.92711E-01
    8987.249     -7.666   0.200  8.10165E-02  2.81910E-01 -2.00894E-01
    8987.316     -7.598   0.240  8.24162E-02  2.93561E-01 -2.11144E-01
    8987.396     -7.519   0.280  8.36511E-02  3.07138E-01 -2.23487E-01
    8987.487     -7.428   0.320  8.45691E-02  3.22424E-01 -2.37855E-01
    8987.591     -7.324   0.360  8.50619E-02  3.39127E-01 -2.54065E-01
    8987.706     -7.208   0.400  8.50976E-02  3.56925E-01 -2.71828E-01
    8987.834     -7.080   0.440  8.47710E-02  3.75527E-01 -2.90756E-01
    8987.975     -6.940   0.480  8.42556E-02  3.94703E-01 -3.10447E-01
    8988.127     -6.788   0.520  8.37601E-02  4.14307E-01 -3.30547E-01
    8988.292     -6.623   0.560  8.35068E-02  4.34254E-01 -3.50748E-01
    8988.468     -6.446   0.600  8.35822E-02  4.54537E-01 -3.70955E-01
    8988.657     -6.257   0.640  8.40868E-02  4.75186E-01 -3.91100E-01
    8988.859     -6.056   0.680  8.49957E-02  4.96211E-01 -4.11215E-01
    8989.072     -5.843   0.720  8.63378E-02  5.17641E-01 -4.31303E-01
    8989.298     -5.617   0.760  8.81888E-02  5.39524E-01 -4.51335E-01
    8989.535     -5.380   0.800  9.06581E-02  5.61855E-01 -4.71197E-01
    8989.785     -5.130   0.840  9.37980E-02  5.84618E-01 -4.90820E-01
    8990.047     -4.867   0.880  9.76736E-02  6.07786E-01 -5.10112E-01
    8990.322     -4.593   0.920  1.02483E-01  6.31338E-01 -5.28856E-01
    8990.608     -4.307   0.960  1.08369E-01  6.55202E-01 -5.46833E-01
    8990.907     -4.008   1.000  1.15542E-01  6.79316E-01 -5.63774E-01
    8991.218     -3.697   1.040  1.24178E-01  7.03592E-01 -5.79414E-01
    8991.541     -3.374   1.080  1.34422E-01  7.27952E-01 -5.93530E-01
    8991.876     -3.039   1.120  1.46311E-01  7.52273E-01 -6.05962E-01
    8992.224     -2.691   1.160  1.60020E-01  7.76470E-01 -6.16450E-01
    8992.583     -2.332   1.200  1.76235E-01  8.00431E-01 -6.24196E-01
    8992.955     -1.960   1.240  1.95804E-01  8.24047E-01 -6.28243E-01
    8993.339     -1.576   1.280  2.18629E-01  8.47227E-01 -6.28598E-01
    8993.735     -1.179   1.320  2.44490E-01  8.69837E-01 -6.25348E-01
    8994.144     -0.771   1.360  2.73989E-01  8.91789E-01 -6.17800E-01
    8994.564     -0.350   1.400  3.06635E-01  9.12977E-01 -6.06342E-01
    8994.997      0.082   1.440  3.42014E-01  9.33339E-01 -5.91325E-01
    8995.442      0.527   1.480  3.83310E-01  9.52795E-01 -5.69485E-01
    8995.899      0.985   1.520  4.36512E-01  9.71252E-01 -5.34740E-01
    8996.369      1.454   1.560  5.08713E-01  9.88681E-01 -4.79968E-01
    8996.850      1.936   1.600  6.02646E-01  1.00500E+00 -4.02354E-01
    8997.344      2.429   1.640  7.02897E-01  1.02021E+00 -3.17314E-01
    8997.850      2.935   1.680  7.83698E-01  1.03426E+00 -2.50563E-01
    8998.368      3.454   1.720  8.40853E-01  1.04717E+00 -2.06316E-01
    8998.899      3.984   1.760  8.88370E-01  1.05891E+00 -1.70541E-01
    8999.441      4.526   1.800  9.37487E-01  1.06949E+00 -1.32002E-01
    8999.996      5.081   1.840  9.93203E-01  1.07894E+00 -8.57319E-02
    9000.563      5.648   1.880  1.05778E+00  1.08726E+00 -2.94812E-02
    9001.142      6.227   1.920  1.12469E+00  1.09450E+00  3.01813E-02
    9001.733      6.819   1.960  1.19019E+00  1.10070E+00  8.94895E-02
    9002.337      7.422   2.000  1.27136E+00  1.10590E+00  1.65458E-01
    9002.953      8.038   2.040  1.36087E+00  1.11014E+00  2.50731E-01
    9003.580      8.666   2.080  1.42515E+00  1.11349E+00  3.11663E-01
    9004.220      9.306   2.120  1.46556E+00  1.11596E+00  3.49598E-01
    9004.873      9.958   2.160  1.50680E+00  1.11765E+00  3.89147E-01
    9005.537     10.622   2.200  1.55736E+00  1.11859E+00  4.38767E-01
    9006.214     11.299   2.240  1.62600E+00  1.11884E+00  5.07161E-01
    9006.903     11.988   2.280  1.72404E+00  1.11845E+00  6.05590E-01
    9007.604     12.689   2.320  1.81146E+00  1.11748E+00  6.93974E-01
    9008.317     13.402   2.360  1.80910E+00  1.11598E+00  6.93116E-01
    9009.042     14.128   2.400  1.70233E+00  1.11401E+00  5.88319E-01
    9009.780     14.865   2.440  1.55443E+00  1.11159E+00  4.42834E-01
    9010.530     15.615   2.480  1.41729E+00  1.10882E+00  3.08465E-01
    9011.292     16.377   2.520  1.30347E+00  1.10569E+00  1.97780E-01
    9012.066     17.151   2.560  1.21483E+00  1.10228E+00  1.12557E-01
    9012.852     17.938   2.600  1.16014E+00  1.09862E+00  6.15168E-02
    9013.651     18.736   2.640  1.12928E+00  1.09474E+00  3.45360E-02
    9014.462     19.547   2.680  1.10792E+00  1.09069E+00  1.72289E-02
    9015.285     20.370   2.720  1.09001E+00  1.08650E+00  3.51174E-03
    9016.120     21.205   2.760  1.07221E+00  1.08219E+00 -9.97836E-03
    9016.967     22.052   2.800  1.05312E+00  1.07779E+00 -2.46782E-02
    9017.827     22.912   2.840  1.03399E+00  1.07332E+00 -3.93278E-02
    9018.698     23.784   2.880  1.01733E+00  1.06884E+00 -5.15105E-02
    9019.582     24.668   2.920  1.00437E+00  1.06435E+00 -5.99788E-02
    9020.478     25.564   2.960  9.94775E-01  1.05986E+00 -6.50895E-02
    9021.387     26.472   3.000  9.87323E-01  1.05541E+00 -6.80896E-02
    9022.307     27.392   3.040  9.80443E-01  1.05099E+00 -7.05448E-02
    9023.240     28.325   3.080  9.73125E-01  1.04665E+00 -7.35246E-02
    9024.185     29.270   3.120  9.65005E-01  1.04236E+00 -7.73567E-02
    9025.142     30.227   3.160  9.56478E-01  1.03817E+00 -8.16874E-02
    9026.111     31.196   3.200  9.48136E-01  1.03408E+00 -8.59488E-02
    9027.093     32.178   3.240  9.40566E-01  1.03012E+00 -8.95574E-02
    9028.086     33.171   3.280  9.34103E-01  1.02628E+00 -9.21819E-02
    9029.092     34.177   3.320  9.28636E-01  1.02256E+00 -9.39283E-02
    9030.110     35.195   3.360  9.23517E-01  1.01897E+00 -9.54544E-02
    9031.140     36.225   3.400  9.18132E-01  1.01551E+00 -9.73807E-02
    9032.183     37.268   3.440  9.12311E-01  1.01221E+00 -9.99022E-02
    9033.237     38.323   3.480  9.06359E-01  1.00907E+00 -1.02715E-01
    9034.304     39.389   3.520  9.01024E-01  1.00610E+00 -1.05075E-01
    9035.383     40.468   3.560  8.97240E-01  1.00328E+00 -1.06040E-01
    9036.474     41.559   3.600  8.95858E-01  1.00060E+00 -1.04740E-01
    9037.578     42.663   3.640  8.97161E-01  9.98111E-01 -1.00949E-01
    9038.693     43.778   3.680  9.00774E-01  9.95791E-01 -9.50175E-02
    9039.821     44.906   3.720  9.05929E-01  9.93611E-01 -8.76824E-02
    9040.961     46.046   3.760  9.11785E-01  9.91613E-01 -7.98287E-02
    9042.113     47.198   3.800  9.17650E-01  9.89785E-01 -7.21351E-02
    9043.277     48.363   3.840  9.23371E-01  9.88126E-01 -6.47548E-02
    9044.454     49.539   3.880  9.29218E-01  9.86636E-01 -5.74173E-02
    9045.643     50.728   3.920  9.35603E-01  9.85307E-01 -4.97042E-02
    9046.844     51.929   3.960  9.42827E-01  9.84138E-01 -4.13113E-02
    9048.057     53.142   4.000  9.51047E-01  9.83136E-01 -3.20880E-02
    9049.282     54.367   4.040  9.60184E-01  9.82297E-01 -2.21128E-02
    9050.519     55.605   4.080  9.69965E-01  9.81619E-01 -1.16540E-02
    9051.769     56.854   4.120  9.80063E-01  9.81078E-01 -1.01502E-03
    9053.031     58.116   4.160  9.90227E-01  9.80696E-01  9.53109E-03
    9054.305     59.390   4.200  1.00016E+00  9.80470E-01  1.96927E-02
    9055.591     60.676   4.240  1.00949E+00  9.80378E-01  2.91103E-02
    9056.890     61.975   4.280  1.01773E+00  9.80440E-01  3.72861E-02
    9058.200     63.286   4.320  1.02429E+00  9.80631E-01  4.36616E-02
    9059.523     64.608   4.360  1.02881E+00  9.80948E-01  4.78646E-02
    9060.858     65.943   4.400  1.03127E+00  9.81389E-01  4.98763E-02
    9062.205     67.291   4.440  1.03190E+00  9.81954E-01  4.99432E-02
    9063.565     68.650   4.480  1.03112E+00  9.82639E-01  4.84822E-02
    9064.936     70.022   4.520  1.02943E+00  9.83442E-01  4.59859E-02
    9066.320     71.405   4.560  1.02726E+00  9.84339E-01  4.29196E-02
    9067.716     72.801   4.600  1.02504E+00  9.85348E-01  3.96932E-02
    9069.124     74.210   4.640  1.02313E+00  9.86443E-01  3.66846E-02
    9070.545     75.630   4.680  1.02184E+00  9.87623E-01  3.42147E-02
    9071.977     77.062   4.720  1.02142E+00  9.88885E-01  3.25321E-02
    9073.422     78.507   4.760  1.02206E+00  9.90223E-01  3.18374E-02
    9074.879     79.964   4.800  1.02395E+00  9.91614E-01  3.23346E-02
    9076.348     81.433   4.840  1.02728E+00  9.93076E-01  3.42059E-02
    9077.829     82.915   4.880  1.03207E+00  9.94584E-01  3.74886E-02
    9079.323     84.408   4.920  1.03799E+00  9.96134E-01  4.18542E-02
    9080.829     85.914   4.960  1.04431E+00  9.97723E-01  4.65857E-02
    9082.346     87.432   5.000  1.05019E+00  9.99349E-01  5.08444E-02
    9083.877     88.962   5.040  1.05495E+00  1.00099E+00  5.39666E-02
    9085.419     90.504   5.080  1.05821E+00  1.00265E+00  5.55630E-02
    9086.973     92.059   5.120  1.05970E+00  1.00432E+00  5.53751E-02
    9088.540     93.625   5.160  1.05900E+00  1.00599E+00  5.30128E-02
    9090.119     95.204   5.200  1.05568E+00  1.00765E+00  4.80279E-02
    9091.710     96.795   5.240  1.04949E+00  1.00929E+00  4.02028E-02
    9093.313     98.398   5.280  1.04080E+00  1.01091E+00  2.98866E-02
    9094.929    100.014   5.320  1.03056E+00  1.01250E+00  1.80563E-02
    9096.556    101.641   5.360  1.02014E+00  1.01405E+00  6.09295E-03
    9098.196    103.281   5.400  1.01095E+00  1.01558E+00 -4.63271E-03
    9099.848    104.933   5.440  1.00392E+00  1.01705E+00 -1.31278E-02
    9101.512    106.597   5.480  9.99547E-01  1.01846E+00 -1.89164E-02
    9103.189    108.274   5.520  9.97831E-01  1.01981E+00 -2.19745E-02
    9104.877    109.962   5.560  9.98424E-01  1.02109E+00 -2.26699E-02
    9106.578    111.663   5.600  1.00058E+00  1.02230E+00 -2.17279E-02
    9108.291    113.376   5.640  1.00333E+00  1.02343E+00 -2.01070E-02
    9110.016    115.101   5.680  1.00570E+00  1.02448E+00 -1.87785E-02
    9111.753    116.839   5.720  1.00697E+00  1.02544E+00 -1.84754E-02
    9113.503    118.588   5.760  1.00679E+00  1.02632E+00 -1.95221E-02
    9115.265    120.350   5.800  1.00523E+00  1.02708E+00 -2.18443E-02
    9117.039    122.124   5.840  1.00268E+00  1.02778E+00 -2.50957E-02
    9118.825    123.910   5.880  9.99501E-01  1.02833E+00 -2.88291E-02
    9120.623    125.708   5.920  9.96203E-01  1.02881E+00 -3.26065E-02
    9122.434    127.519   5.960  9.93088E-01  1.02914E+00 -3.60565E-02
    9124.256    129.342   6.000  9.90407E-01  1.02928E+00 -3.88761E-02
