# # comment:                                                     FEFF 9.9.1  
# # Source:
# # Structure
# # Reduced
# # space
# # abc:
# # angles:
# # sites:
# # POT  SCF 100  7.0000   0, screened core-hole, AFOLP (folp(0)= 1.150)
# # Abs   Z=29 Rmt= 1.354 Rnm= 1.415 K  shell
# # Pot 1 Z= 3 Rmt= 1.257 Rnm= 1.318
# # Pot 2 Z=29 Rmt= 1.345 Rnm= 1.412
# # Pot 3 Z=15 Rmt= 0.944 Rnm= 1.156
# # Pot 4 Z= 8 Rmt= 0.921 Rnm= 1.042
# # Gam_ch=1.729E+00 H-L exch Vi= 0.000E+00 Vr= 0.000E+00
# # Mu=-6.046E+00eV kf=2.377E+00 Vint=-1.673E+01eV Rs_int= 1.526
# FMS rfms= 9.0000
# # PATH  Rmax=-1.000,  Keep_limit= 0.00, Heap_limit 0.00  Pwcrit= 2.50%
#  S02=0.950  Temp=   0.00  Debye_temp=   0.00  Global_sig2= 0.00000
#  Energy zero shift, vr, vi    0.00000E+00   0.00000E+00
#  Curved wave amplitude ratio filter   4.000%
#     file         sig2 tot  cw amp ratio   deg  nlegs   reff  inp sig2
#     0/   0 paths used
#  xsedge+ 50, used to normalize mu           2.4650E-04
#  -----------------------------------------------------------------------
#  omega    e    k    mu    mu0     chi     @#
    8983.570     -9.856  -1.000  5.26362E-02  5.59716E-02 -3.33540E-03
    8983.869     -9.557  -0.960  5.61993E-02  6.01030E-02 -3.90366E-03
    8984.155     -9.271  -0.920  6.01291E-02  6.47006E-02 -4.57149E-03
    8984.429     -8.996  -0.880  6.44771E-02  6.98337E-02 -5.35660E-03
    8984.692     -8.734  -0.840  6.93034E-02  7.55832E-02 -6.27980E-03
    8984.941     -8.484  -0.800  7.46775E-02  8.20429E-02 -7.36540E-03
    8985.179     -8.246  -0.760  8.06789E-02  8.93203E-02 -8.64146E-03
    8985.405     -8.021  -0.720  8.73975E-02  9.75375E-02 -1.01399E-02
    8985.618     -7.808  -0.680  9.49323E-02  1.06829E-01 -1.18962E-02
    8985.819     -7.606  -0.640  1.03387E-01  1.17335E-01 -1.39481E-02
    8986.008     -7.417  -0.600  1.12864E-01  1.29198E-01 -1.63335E-02
    8986.185     -7.241  -0.560  1.23449E-01  1.42536E-01 -1.90864E-02
    8986.350     -7.076  -0.520  1.35189E-01  1.57420E-01 -2.22301E-02
    8986.502     -6.924  -0.480  1.48067E-01  1.73836E-01 -2.57688E-02
    8986.642     -6.783  -0.440  1.61963E-01  1.91639E-01 -2.96768E-02
    8986.770     -6.655  -0.400  1.76629E-01  2.10518E-01 -3.38892E-02
    8986.886     -6.540  -0.360  1.91684E-01  2.29981E-01 -3.82976E-02
    8986.990     -6.436  -0.320  2.06636E-01  2.49390E-01 -4.27549E-02
    8987.081     -6.344  -0.280  2.20947E-01  2.68038E-01 -4.70910E-02
    8987.160     -6.265  -0.240  2.34109E-01  2.85244E-01 -5.11355E-02
    8987.227     -6.198  -0.200  2.45703E-01  3.00442E-01 -5.47394E-02
    8987.282     -6.143  -0.160  2.55432E-01  3.13219E-01 -5.77876E-02
    8987.325     -6.101  -0.120  2.63110E-01  3.23313E-01 -6.02034E-02
    8987.355     -6.070  -0.080  2.68637E-01  3.30582E-01 -6.19454E-02
    8987.380     -6.046   0.000  2.73063E-01  3.36420E-01 -6.33562E-02
    8987.435     -5.991   0.120  2.82836E-01  3.49572E-01 -6.67357E-02
    8987.477     -5.948   0.160  2.90495E-01  3.59782E-01 -6.92872E-02
    8987.532     -5.893   0.200  3.00306E-01  3.72811E-01 -7.25044E-02
    8987.599     -5.826   0.240  3.12153E-01  3.88446E-01 -7.62936E-02
    8987.679     -5.747   0.280  3.25888E-01  4.06380E-01 -8.04917E-02
    8987.770     -5.656   0.320  3.41242E-01  4.26109E-01 -8.48672E-02
    8987.874     -5.552   0.360  3.57922E-01  4.47021E-01 -8.90985E-02
    8987.989     -5.436   0.400  3.75676E-01  4.68527E-01 -9.28507E-02
    8988.117     -5.308   0.440  3.94176E-01  4.89992E-01 -9.58155E-02
    8988.258     -5.168   0.480  4.13128E-01  5.10992E-01 -9.78642E-02
    8988.410     -5.016   0.520  4.32143E-01  5.31248E-01 -9.91051E-02
    8988.575     -4.851   0.560  4.50670E-01  5.50610E-01 -9.99401E-02
    8988.751     -4.674   0.600  4.68184E-01  5.69046E-01 -1.00862E-01
    8988.940     -4.485   0.640  4.84560E-01  5.86622E-01 -1.02062E-01
    8989.142     -4.284   0.680  5.00297E-01  6.03446E-01 -1.03149E-01
    8989.355     -4.071   0.720  5.16207E-01  6.19598E-01 -1.03391E-01
    8989.581     -3.845   0.760  5.33025E-01  6.35201E-01 -1.02176E-01
    8989.818     -3.607   0.800  5.51555E-01  6.50365E-01 -9.88101E-02
    8990.068     -3.357   0.840  5.73348E-01  6.65147E-01 -9.17984E-02
    8990.330     -3.095   0.880  6.00352E-01  6.79630E-01 -7.92780E-02
    8990.605     -2.821   0.920  6.32675E-01  6.93864E-01 -6.11889E-02
    8990.891     -2.535   0.960  6.66483E-01  7.07884E-01 -4.14008E-02
    8991.190     -2.236   1.000  6.94691E-01  7.21711E-01 -2.70203E-02
    8991.501     -1.925   1.040  7.11471E-01  7.35381E-01 -2.39103E-02
    8991.824     -1.602   1.080  7.17308E-01  7.48879E-01 -3.15708E-02
    8992.159     -1.267   1.120  7.19429E-01  7.62223E-01 -4.27934E-02
    8992.507     -0.919   1.160  7.25357E-01  7.75384E-01 -5.00267E-02
    8992.866     -0.559   1.200  7.37594E-01  7.88391E-01 -5.07971E-02
    8993.238     -0.188   1.240  7.56532E-01  8.01188E-01 -4.46561E-02
    8993.622      0.196   1.280  7.83564E-01  8.13755E-01 -3.01915E-02
    8994.018      0.593   1.320  8.18221E-01  8.26111E-01 -7.88993E-03
    8994.427      1.001   1.360  8.57782E-01  8.38211E-01  1.95705E-02
    8994.847      1.422   1.400  9.01828E-01  8.50050E-01  5.17776E-02
    8995.280      1.855   1.440  9.52200E-01  8.61584E-01  9.06159E-02
    8995.725      2.300   1.480  1.01000E+00  8.72785E-01  1.37210E-01
    8996.182      2.757   1.520  1.07175E+00  8.83668E-01  1.88079E-01
    8996.652      3.226   1.560  1.13245E+00  8.94204E-01  2.38245E-01
    8997.133      3.708   1.600  1.19186E+00  9.04348E-01  2.87516E-01
    8997.627      4.202   1.640  1.25476E+00  9.14113E-01  3.40651E-01
    8998.133      4.708   1.680  1.31988E+00  9.23455E-01  3.96423E-01
    8998.651      5.226   1.720  1.36775E+00  9.32388E-01  4.35364E-01
    8999.182      5.756   1.760  1.37241E+00  9.40889E-01  4.31524E-01
    8999.724      6.299   1.800  1.32731E+00  9.48956E-01  3.78350E-01
    9000.279      6.853   1.840  1.25318E+00  9.56585E-01  2.96595E-01
    9000.846      7.420   1.880  1.17844E+00  9.63755E-01  2.14688E-01
    9001.425      7.999   1.920  1.12212E+00  9.70467E-01  1.51651E-01
    9002.016      8.591   1.960  1.09186E+00  9.76743E-01  1.15116E-01
    9002.620      9.194   2.000  1.08395E+00  9.82562E-01  1.01393E-01
    9003.236      9.810   2.040  1.08573E+00  9.87928E-01  9.78010E-02
    9003.863     10.438   2.080  1.08414E+00  9.92867E-01  9.12746E-02
    9004.503     11.078   2.120  1.07403E+00  9.97380E-01  7.66499E-02
    9005.156     11.730   2.160  1.05920E+00  1.00145E+00  5.77416E-02
    9005.820     12.395   2.200  1.04390E+00  1.00514E+00  3.87650E-02
    9006.497     13.071   2.240  1.03012E+00  1.00841E+00  2.17039E-02
    9007.186     13.760   2.280  1.01942E+00  1.01131E+00  8.10734E-03
    9007.887     14.461   2.320  1.01038E+00  1.01384E+00 -3.45365E-03
    9008.600     15.174   2.360  1.00091E+00  1.01600E+00 -1.50833E-02
    9009.325     15.900   2.400  9.90845E-01  1.01784E+00 -2.70000E-02
    9010.063     16.637   2.440  9.80229E-01  1.01935E+00 -3.91173E-02
    9010.813     17.387   2.480  9.68870E-01  1.02057E+00 -5.17028E-02
    9011.575     18.149   2.520  9.56790E-01  1.02149E+00 -6.47003E-02
    9012.349     18.923   2.560  9.44734E-01  1.02215E+00 -7.74168E-02
    9013.135     19.710   2.600  9.34156E-01  1.02256E+00 -8.84049E-02
    9013.934     20.508   2.640  9.26443E-01  1.02273E+00 -9.62885E-02
    9014.745     21.319   2.680  9.21153E-01  1.02271E+00 -1.01560E-01
    9015.568     22.142   2.720  9.15593E-01  1.02247E+00 -1.06879E-01
    9016.403     22.977   2.760  9.07722E-01  1.02206E+00 -1.14337E-01
    9017.250     23.824   2.800  9.01517E-01  1.02150E+00 -1.19985E-01
    9018.110     24.684   2.840  8.98748E-01  1.02079E+00 -1.22041E-01
    9018.981     25.556   2.880  8.99961E-01  1.01993E+00 -1.19967E-01
    9019.865     26.440   2.920  9.05037E-01  1.01897E+00 -1.13932E-01
    9020.761     27.336   2.960  9.12899E-01  1.01792E+00 -1.05019E-01
    9021.670     28.244   3.000  9.22677E-01  1.01678E+00 -9.41066E-02
    9022.590     29.165   3.040  9.33697E-01  1.01557E+00 -8.18730E-02
    9023.523     30.097   3.080  9.45619E-01  1.01429E+00 -6.86670E-02
    9024.468     31.042   3.120  9.58360E-01  1.01298E+00 -5.46180E-02
    9025.425     31.999   3.160  9.71621E-01  1.01163E+00 -4.00117E-02
    9026.394     32.968   3.200  9.84706E-01  1.01025E+00 -2.55481E-02
    9027.376     33.950   3.240  9.96829E-01  1.00887E+00 -1.20405E-02
    9028.369     34.944   3.280  1.00689E+00  1.00751E+00 -6.19601E-04
    9029.375     35.949   3.320  1.01369E+00  1.00612E+00  7.56448E-03
    9030.393     36.967   3.360  1.01677E+00  1.00477E+00  1.19991E-02
    9031.423     37.998   3.400  1.01658E+00  1.00344E+00  1.31367E-02
    9032.466     39.040   3.440  1.01430E+00  1.00214E+00  1.21662E-02
    9033.520     40.095   3.480  1.01147E+00  1.00089E+00  1.05819E-02
    9034.587     41.161   3.520  1.00928E+00  9.99657E-01  9.62651E-03
    9035.666     42.240   3.560  1.00854E+00  9.98495E-01  1.00497E-02
    9036.757     43.332   3.600  1.00956E+00  9.97401E-01  1.21596E-02
    9037.861     44.435   3.640  1.01231E+00  9.96356E-01  1.59535E-02
    9038.976     45.551   3.680  1.01664E+00  9.95360E-01  2.12788E-02
    9040.104     46.678   3.720  1.02233E+00  9.94437E-01  2.78969E-02
    9041.244     47.818   3.760  1.02909E+00  9.93589E-01  3.54997E-02
    9042.396     48.970   3.800  1.03645E+00  9.92818E-01  4.36311E-02
    9043.560     50.135   3.840  1.04374E+00  9.92102E-01  5.16337E-02
    9044.737     51.311   3.880  1.05029E+00  9.91485E-01  5.88101E-02
    9045.926     52.500   3.920  1.05551E+00  9.90924E-01  6.45838E-02
    9047.127     53.701   3.960  1.05902E+00  9.90439E-01  6.85832E-02
    9048.340     54.914   4.000  1.06064E+00  9.90033E-01  7.06043E-02
    9049.565     56.139   4.040  1.06037E+00  9.89706E-01  7.06647E-02
    9050.802     57.377   4.080  1.05826E+00  9.89457E-01  6.88028E-02
    9052.052     58.626   4.120  1.05437E+00  9.89284E-01  6.50873E-02
    9053.314     59.888   4.160  1.04882E+00  9.89167E-01  5.96507E-02
    9054.588     61.162   4.200  1.04190E+00  9.89148E-01  5.27513E-02
    9055.874     62.449   4.240  1.03394E+00  9.89180E-01  4.47551E-02
    9057.173     63.747   4.280  1.02542E+00  9.89265E-01  3.61594E-02
    9058.483     65.058   4.320  1.01689E+00  9.89443E-01  2.74475E-02
    9059.806     66.380   4.360  1.00858E+00  9.89649E-01  1.89281E-02
    9061.141     67.715   4.400  1.00068E+00  9.89946E-01  1.07295E-02
    9062.488     69.063   4.440  9.93066E-01  9.90268E-01  2.79786E-03
    9063.848     70.422   4.480  9.85596E-01  9.90655E-01 -5.05913E-03
    9065.219     71.794   4.520  9.78052E-01  9.91085E-01 -1.30328E-02
    9066.603     73.177   4.560  9.70368E-01  9.91555E-01 -2.11874E-02
    9067.999     74.573   4.600  9.62675E-01  9.92063E-01 -2.93883E-02
    9069.407     75.982   4.640  9.55281E-01  9.92586E-01 -3.73047E-02
    9070.828     77.402   4.680  9.48613E-01  9.93165E-01 -4.45524E-02
    9072.260     78.835   4.720  9.42950E-01  9.93755E-01 -5.08044E-02
    9073.705     80.279   4.760  9.38673E-01  9.94352E-01 -5.56796E-02
    9075.162     81.736   4.800  9.36262E-01  9.94980E-01 -5.87176E-02
    9076.631     83.205   4.840  9.36095E-01  9.95634E-01 -5.95391E-02
    9078.112     84.687   4.880  9.38240E-01  9.96266E-01 -5.80267E-02
    9079.606     86.180   4.920  9.42472E-01  9.96898E-01 -5.44258E-02
    9081.112     87.686   4.960  9.48245E-01  9.97526E-01 -4.92805E-02
    9082.629     89.204   5.000  9.54910E-01  9.98150E-01 -4.32399E-02
    9084.160     90.734   5.040  9.61849E-01  9.98769E-01 -3.69201E-02
    9085.702     92.276   5.080  9.68602E-01  9.99357E-01 -3.07551E-02
    9087.256     93.831   5.120  9.74994E-01  9.99935E-01 -2.49407E-02
    9088.823     95.397   5.160  9.81000E-01  1.00048E+00 -1.94775E-02
    9090.402     96.976   5.200  9.86790E-01  1.00098E+00 -1.41936E-02
    9091.993     98.567   5.240  9.92660E-01  1.00147E+00 -8.81386E-03
    9093.596    100.170   5.280  9.98864E-01  1.00190E+00 -3.03958E-03
    9095.212    101.786   5.320  1.00558E+00  1.00231E+00  3.26375E-03
    9096.839    103.414   5.360  1.01259E+00  1.00266E+00  9.92885E-03
    9098.479    105.053   5.400  1.01944E+00  1.00298E+00  1.64574E-02
    9100.131    106.705   5.440  1.02536E+00  1.00324E+00  2.21174E-02
    9101.795    108.370   5.480  1.02967E+00  1.00345E+00  2.62180E-02
    9103.472    110.046   5.520  1.03203E+00  1.00360E+00  2.84303E-02
    9105.160    111.735   5.560  1.03266E+00  1.00372E+00  2.89447E-02
    9106.861    113.435   5.600  1.03208E+00  1.00377E+00  2.83081E-02
    9108.574    115.148   5.640  1.03085E+00  1.00375E+00  2.71051E-02
    9110.299    116.873   5.680  1.02936E+00  1.00368E+00  2.56829E-02
    9112.036    118.611   5.720  1.02762E+00  1.00357E+00  2.40470E-02
    9113.786    120.360   5.760  1.02534E+00  1.00341E+00  2.19318E-02
    9115.548    122.122   5.800  1.02220E+00  1.00318E+00  1.90149E-02
    9117.322    123.896   5.840  1.01806E+00  1.00289E+00  1.51748E-02
    9119.108    125.682   5.880  1.01323E+00  1.00257E+00  1.06608E-02
    9120.906    127.480   5.920  1.00824E+00  1.00219E+00  6.05195E-03
    9122.717    129.291   5.960  1.00378E+00  1.00177E+00  2.01423E-03
    9124.539    131.114   6.000  1.00024E+00  1.00124E+00 -9.99173E-04
