# # comment:                                                     FEFF 9.9.1  
# # Source:
# # Structure
# # Reduced
# # space
# # abc:
# # angles:
# # sites:
# # POT  SCF 100  7.0000   0, screened core-hole, AFOLP (folp(0)= 1.150)
# # Abs   Z=29 Rmt= 1.168 Rnm= 1.320 K  shell
# # Pot 1 Z=29 Rmt= 1.189 Rnm= 1.343
# # Pot 2 Z= 1 Rmt= 0.734 Rnm= 0.858
# # Pot 3 Z=34 Rmt= 1.096 Rnm= 1.335
# # Pot 4 Z= 8 Rmt= 0.954 Rnm= 1.098
# # Gam_ch=1.729E+00 H-L exch Vi= 0.000E+00 Vr= 0.000E+00
# # Mu=-6.567E+00eV kf=2.168E+00 Vint=-1.398E+01eV Rs_int= 1.673
# FMS rfms= 9.0000
# # PATH  Rmax=-1.000,  Keep_limit= 0.00, Heap_limit 0.00  Pwcrit= 2.50%
#  S02=0.950  Temp=   0.00  Debye_temp=   0.00  Global_sig2= 0.00000
#  Energy zero shift, vr, vi    0.00000E+00   0.00000E+00
#  Curved wave amplitude ratio filter   4.000%
#     file         sig2 tot  cw amp ratio   deg  nlegs   reff  inp sig2
#     0/   0 paths used
#  xsedge+ 50, used to normalize mu           2.4254E-04
#  -----------------------------------------------------------------------
#  omega    e    k    mu    mu0     chi     @#
    8983.398    -10.377  -1.000  3.90485E-02  5.54622E-02 -1.64137E-02
    8983.697    -10.079  -0.960  4.12276E-02  5.94575E-02 -1.82299E-02
    8983.984     -9.792  -0.920  4.35922E-02  6.38904E-02 -2.02982E-02
    8984.258     -9.518  -0.880  4.61642E-02  6.88243E-02 -2.26602E-02
    8984.520     -9.256  -0.840  4.89680E-02  7.43330E-02 -2.53651E-02
    8984.770     -9.006  -0.800  5.20311E-02  8.05019E-02 -2.84707E-02
    8985.008     -8.768  -0.760  5.53839E-02  8.74285E-02 -3.20446E-02
    8985.233     -8.543  -0.720  5.90591E-02  9.52233E-02 -3.61642E-02
    8985.447     -8.329  -0.680  6.30910E-02  1.04007E-01 -4.09164E-02
    8985.648     -8.128  -0.640  6.75140E-02  1.13908E-01 -4.63944E-02
    8985.837     -7.939  -0.600  7.23597E-02  1.25052E-01 -5.26918E-02
    8986.014     -7.762  -0.560  7.76525E-02  1.37543E-01 -5.98904E-02
    8986.178     -7.598  -0.520  8.34033E-02  1.51445E-01 -6.80420E-02
    8986.331     -7.445  -0.480  8.96011E-02  1.66743E-01 -7.71416E-02
    8986.471     -7.305  -0.440  9.62037E-02  1.83301E-01 -8.70978E-02
    8986.599     -7.177  -0.400  1.03129E-01  2.00836E-01 -9.77077E-02
    8986.715     -7.061  -0.360  1.10248E-01  2.18899E-01 -1.08651E-01
    8986.818     -6.958  -0.320  1.17392E-01  2.36909E-01 -1.19517E-01
    8986.910     -6.866  -0.280  1.24359E-01  2.54219E-01 -1.29860E-01
    8986.989     -6.787  -0.240  1.30932E-01  2.70204E-01 -1.39272E-01
    8987.056     -6.720  -0.200  1.36900E-01  2.84342E-01 -1.47442E-01
    8987.111     -6.665  -0.160  1.42069E-01  2.96244E-01 -1.54175E-01
    8987.154     -6.622  -0.120  1.46279E-01  3.05660E-01 -1.59381E-01
    8987.184     -6.592  -0.080  1.49406E-01  3.12449E-01 -1.63043E-01
    8987.208     -6.567   0.000  1.52041E-01  3.17906E-01 -1.65865E-01
    8987.263     -6.513   0.120  1.57975E-01  3.30228E-01 -1.72254E-01
    8987.306     -6.470   0.160  1.62639E-01  3.39815E-01 -1.77176E-01
    8987.361     -6.415   0.200  1.68750E-01  3.52069E-01 -1.83319E-01
    8987.428     -6.348   0.240  1.76455E-01  3.66861E-01 -1.90405E-01
    8987.507     -6.269   0.280  1.85841E-01  3.83881E-01 -1.98040E-01
    8987.599     -6.177   0.320  1.97066E-01  4.02751E-01 -2.05685E-01
    8987.702     -6.074   0.360  2.10207E-01  4.22948E-01 -2.12740E-01
    8987.818     -5.958   0.400  2.25344E-01  4.43937E-01 -2.18593E-01
    8987.946     -5.830   0.440  2.42437E-01  4.65207E-01 -2.22770E-01
    8988.086     -5.690   0.480  2.61248E-01  4.86377E-01 -2.25130E-01
    8988.239     -5.537   0.520  2.81109E-01  5.07184E-01 -2.26076E-01
    8988.403     -5.373   0.560  3.00781E-01  5.27514E-01 -2.26733E-01
    8988.580     -5.196   0.600  3.18459E-01  5.47311E-01 -2.28852E-01
    8988.769     -5.007   0.640  3.32268E-01  5.66645E-01 -2.34377E-01
    8988.970     -4.806   0.680  3.40925E-01  5.85538E-01 -2.44613E-01
    8989.184     -4.592   0.720  3.44537E-01  6.04064E-01 -2.59527E-01
    8989.409     -4.367   0.760  3.44726E-01  6.22336E-01 -2.77610E-01
    8989.647     -4.129   0.800  3.43783E-01  6.40355E-01 -2.96572E-01
    8989.897     -3.879   0.840  3.43767E-01  6.58210E-01 -3.14443E-01
    8990.159     -3.617   0.880  3.45787E-01  6.75915E-01 -3.30129E-01
    8990.433     -3.343   0.920  3.50433E-01  6.93452E-01 -3.43019E-01
    8990.720     -3.056   0.960  3.58501E-01  7.10870E-01 -3.52369E-01
    8991.018     -2.757   1.000  3.70728E-01  7.28107E-01 -3.57379E-01
    8991.329     -2.447   1.040  3.87759E-01  7.45196E-01 -3.57437E-01
    8991.652     -2.124   1.080  4.09817E-01  7.62057E-01 -3.52240E-01
    8991.988     -1.788   1.120  4.36910E-01  7.78690E-01 -3.41780E-01
    8992.335     -1.441   1.160  4.68329E-01  7.95046E-01 -3.26718E-01
    8992.695     -1.081   1.200  5.02013E-01  8.11076E-01 -3.09063E-01
    8993.067     -0.709   1.240  5.33720E-01  8.26767E-01 -2.93047E-01
    8993.451     -0.325   1.280  5.59809E-01  8.42045E-01 -2.82236E-01
    8993.847      0.071   1.320  5.83529E-01  8.56895E-01 -2.73366E-01
    8994.255      0.479   1.360  6.12365E-01  8.71243E-01 -2.58878E-01
    8994.676      0.900   1.400  6.48473E-01  8.85093E-01 -2.36621E-01
    8995.109      1.333   1.440  6.87137E-01  8.98394E-01 -2.11258E-01
    8995.554      1.778   1.480  7.24218E-01  9.11114E-01 -1.86896E-01
    8996.011      2.235   1.520  7.61447E-01  9.23221E-01 -1.61774E-01
    8996.480      2.705   1.560  8.03427E-01  9.34708E-01 -1.31281E-01
    8996.962      3.186   1.600  8.51934E-01  9.45546E-01 -9.36128E-02
    8997.456      3.680   1.640  9.04374E-01  9.55755E-01 -5.13810E-02
    8997.962      4.186   1.680  9.54892E-01  9.65269E-01 -1.03767E-02
    8998.480      4.704   1.720  9.96770E-01  9.74130E-01  2.26403E-02
    8999.010      5.234   1.760  1.02613E+00  9.82339E-01  4.37943E-02
    8999.553      5.777   1.800  1.04713E+00  9.89880E-01  5.72522E-02
    9000.108      6.332   1.840  1.06673E+00  9.96779E-01  6.99497E-02
    9000.674      6.899   1.880  1.08736E+00  1.00304E+00  8.43118E-02
    9001.254      7.478   1.920  1.11003E+00  1.00868E+00  1.01345E-01
    9001.845      8.069   1.960  1.13647E+00  1.01372E+00  1.22744E-01
    9002.448      8.672   2.000  1.16554E+00  1.01818E+00  1.47359E-01
    9003.064      9.288   2.040  1.19540E+00  1.02206E+00  1.73334E-01
    9003.692      9.916   2.080  1.22557E+00  1.02545E+00  2.00117E-01
    9004.332     10.556   2.120  1.25235E+00  1.02829E+00  2.24065E-01
    9004.984     11.208   2.160  1.26652E+00  1.03068E+00  2.35841E-01
    9005.649     11.873   2.200  1.26153E+00  1.03261E+00  2.28918E-01
    9006.325     12.549   2.240  1.24400E+00  1.03410E+00  2.09906E-01
    9007.014     13.238   2.280  1.22648E+00  1.03522E+00  1.91263E-01
    9007.715     13.939   2.320  1.21455E+00  1.03595E+00  1.78601E-01
    9008.429     14.653   2.360  1.20781E+00  1.03637E+00  1.71445E-01
    9009.154     15.378   2.400  1.20713E+00  1.03644E+00  1.70689E-01
    9009.892     16.116   2.440  1.21490E+00  1.03626E+00  1.78633E-01
    9010.641     16.865   2.480  1.22548E+00  1.03581E+00  1.89667E-01
    9011.403     17.627   2.520  1.22865E+00  1.03512E+00  1.93537E-01
    9012.178     18.402   2.560  1.21764E+00  1.03423E+00  1.83409E-01
    9012.964     19.188   2.600  1.18908E+00  1.03316E+00  1.55921E-01
    9013.763     19.987   2.640  1.15992E+00  1.03194E+00  1.27990E-01
    9014.573     20.797   2.680  1.13339E+00  1.03056E+00  1.02831E-01
    9015.396     21.620   2.720  1.10957E+00  1.02908E+00  8.04850E-02
    9016.231     22.455   2.760  1.08700E+00  1.02749E+00  5.95040E-02
    9017.079     23.303   2.800  1.06438E+00  1.02582E+00  3.85562E-02
    9017.938     24.162   2.840  1.04172E+00  1.02410E+00  1.76275E-02
    9018.810     25.034   2.880  1.02020E+00  1.02233E+00 -2.12546E-03
    9019.694     25.918   2.920  1.00070E+00  1.02052E+00 -1.98179E-02
    9020.590     26.814   2.960  9.83923E-01  1.01870E+00 -3.47773E-02
    9021.498     27.722   3.000  9.69778E-01  1.01686E+00 -4.70807E-02
    9022.419     28.643   3.040  9.57779E-01  1.01506E+00 -5.72843E-02
    9023.351     29.576   3.080  9.47367E-01  1.01326E+00 -6.58886E-02
    9024.296     30.520   3.120  9.38219E-01  1.01150E+00 -7.32842E-02
    9025.253     31.477   3.160  9.29904E-01  1.00977E+00 -7.98653E-02
    9026.223     32.447   3.200  9.22404E-01  1.00810E+00 -8.56966E-02
    9027.204     33.428   3.240  9.15889E-01  1.00648E+00 -9.05890E-02
    9028.198     34.422   3.280  9.10475E-01  1.00491E+00 -9.44333E-02
    9029.204     35.428   3.320  9.06409E-01  1.00343E+00 -9.70254E-02
    9030.222     36.446   3.360  9.03941E-01  1.00202E+00 -9.80765E-02
    9031.252     37.476   3.400  9.03259E-01  1.00068E+00 -9.74223E-02
    9032.294     38.518   3.440  9.04272E-01  9.99450E-01 -9.51783E-02
    9033.349     39.573   3.480  9.06721E-01  9.98282E-01 -9.15615E-02
    9034.416     40.640   3.520  9.10352E-01  9.97221E-01 -8.68688E-02
    9035.495     41.719   3.560  9.14779E-01  9.96249E-01 -8.14691E-02
    9036.586     42.810   3.600  9.19744E-01  9.95387E-01 -7.56435E-02
    9037.689     43.913   3.640  9.25029E-01  9.94614E-01 -6.95851E-02
    9038.805     45.029   3.680  9.30488E-01  9.93930E-01 -6.34421E-02
    9039.933     46.157   3.720  9.35995E-01  9.93359E-01 -5.73640E-02
    9041.072     47.297   3.760  9.41604E-01  9.92900E-01 -5.12957E-02
    9042.225     48.449   3.800  9.47392E-01  9.92510E-01 -4.51176E-02
    9043.389     49.613   3.840  9.53511E-01  9.92251E-01 -3.87402E-02
    9044.565     50.790   3.880  9.59923E-01  9.92062E-01 -3.21395E-02
    9045.754     51.978   3.920  9.66612E-01  9.92006E-01 -2.53937E-02
    9046.955     53.179   3.960  9.73328E-01  9.92015E-01 -1.86872E-02
    9048.168     54.392   4.000  9.79865E-01  9.92131E-01 -1.22669E-02
    9049.393     55.618   4.040  9.86028E-01  9.92335E-01 -6.30713E-03
    9050.631     56.855   4.080  9.91730E-01  9.92623E-01 -8.93098E-04
    9051.881     58.105   4.120  9.96971E-01  9.92993E-01  3.97748E-03
    9053.142     59.367   4.160  1.00186E+00  9.93446E-01  8.41082E-03
    9054.417     60.641   4.200  1.00658E+00  9.94000E-01  1.25761E-02
    9055.703     61.927   4.240  1.01119E+00  9.94590E-01  1.66040E-02
    9057.001     63.225   4.280  1.01585E+00  9.95278E-01  2.05744E-02
    9058.312     64.536   4.320  1.02057E+00  9.96041E-01  2.45281E-02
    9059.635     65.859   4.360  1.02530E+00  9.96856E-01  2.84489E-02
    9060.970     67.194   4.400  1.03001E+00  9.97718E-01  3.22924E-02
    9062.317     68.541   4.440  1.03475E+00  9.98645E-01  3.61024E-02
    9063.676     69.900   4.480  1.03957E+00  9.99595E-01  3.99768E-02
    9065.048     71.272   4.520  1.04462E+00  1.00061E+00  4.40138E-02
    9066.432     72.656   4.560  1.04992E+00  1.00166E+00  4.82544E-02
    9067.828     74.052   4.600  1.05527E+00  1.00276E+00  5.25180E-02
    9069.236     75.460   4.640  1.06023E+00  1.00386E+00  5.63695E-02
    9070.656     76.880   4.680  1.06425E+00  1.00499E+00  5.92637E-02
    9072.089     78.313   4.720  1.06678E+00  1.00613E+00  6.06499E-02
    9073.534     79.758   4.760  1.06742E+00  1.00727E+00  6.01445E-02
    9074.990     81.215   4.800  1.06613E+00  1.00844E+00  5.76838E-02
    9076.460     82.684   4.840  1.06310E+00  1.00959E+00  5.35175E-02
    9077.941     84.165   4.880  1.05885E+00  1.01075E+00  4.80985E-02
    9079.434     85.659   4.920  1.05385E+00  1.01189E+00  4.19635E-02
    9080.940     87.164   4.960  1.04856E+00  1.01299E+00  3.55683E-02
    9082.458     88.682   5.000  1.04335E+00  1.01411E+00  2.92437E-02
    9083.988     90.212   5.040  1.03833E+00  1.01517E+00  2.31670E-02
    9085.530     91.754   5.080  1.03356E+00  1.01621E+00  1.73471E-02
    9087.085     93.309   5.120  1.02890E+00  1.01721E+00  1.16865E-02
    9088.652     94.876   5.160  1.02422E+00  1.01815E+00  6.07183E-03
    9090.230     96.454   5.200  1.01954E+00  1.01907E+00  4.77204E-04
    9091.821     98.046   5.240  1.01491E+00  1.01991E+00 -4.99910E-03
    9093.425     99.649   5.280  1.01060E+00  1.02074E+00 -1.01341E-02
    9095.040    101.264   5.320  1.00685E+00  1.02147E+00 -1.46185E-02
    9096.668    102.892   5.360  1.00404E+00  1.02217E+00 -1.81321E-02
    9098.308    104.532   5.400  1.00230E+00  1.02277E+00 -2.04712E-02
    9099.960    106.184   5.440  1.00168E+00  1.02332E+00 -2.16449E-02
    9101.624    107.848   5.480  1.00194E+00  1.02382E+00 -2.18779E-02
    9103.300    109.524   5.520  1.00274E+00  1.02422E+00 -2.14833E-02
    9104.989    111.213   5.560  1.00378E+00  1.02456E+00 -2.07779E-02
    9106.690    112.914   5.600  1.00476E+00  1.02482E+00 -2.00657E-02
    9108.403    114.627   5.640  1.00538E+00  1.02503E+00 -1.96491E-02
    9110.128    116.352   5.680  1.00534E+00  1.02514E+00 -1.97947E-02
    9111.865    118.089   5.720  1.00449E+00  1.02519E+00 -2.07006E-02
    9113.615    119.839   5.760  1.00272E+00  1.02513E+00 -2.24122E-02
    9115.376    121.600   5.800  1.00026E+00  1.02502E+00 -2.47582E-02
    9117.150    123.374   5.840  9.97476E-01  1.02484E+00 -2.73621E-02
    9118.936    125.160   5.880  9.94845E-01  1.02460E+00 -2.97555E-02
    9120.735    126.959   5.920  9.92786E-01  1.02426E+00 -3.14758E-02
    9122.545    128.769   5.960  9.91810E-01  1.02386E+00 -3.20519E-02
    9124.368    130.592   6.000  9.92377E-01  1.02333E+00 -3.09500E-02
