# # comment:                                                     FEFF 9.9.1  
# # Source:
# # Structure
# # Reduced
# # space
# # abc:
# # angles:
# # sites:
# # POT  SCF 100  7.0000   0, screened core-hole, AFOLP (folp(0)= 1.150)
# # Abs   Z=29 Rmt= 1.241 Rnm= 1.309 K  shell
# # Pot 1 Z=12 Rmt= 1.370 Rnm= 1.447
# # Pot 2 Z=29 Rmt= 1.241 Rnm= 1.309
# # Pot 3 Z= 6 Rmt= 0.712 Rnm= 0.925
# # Pot 4 Z= 8 Rmt= 0.834 Rnm= 1.010
# # Gam_ch=1.729E+00 H-L exch Vi= 0.000E+00 Vr= 0.000E+00
# # Mu=-6.359E+00eV kf=2.565E+00 Vint=-1.704E+01eV Rs_int= 1.414
# FMS rfms= 9.0000
# # PATH  Rmax=-1.000,  Keep_limit= 0.00, Heap_limit 0.00  Pwcrit= 2.50%
#  S02=0.950  Temp=   0.00  Debye_temp=   0.00  Global_sig2= 0.00000
#  Energy zero shift, vr, vi    0.00000E+00   0.00000E+00
#  Curved wave amplitude ratio filter   4.000%
#     file         sig2 tot  cw amp ratio   deg  nlegs   reff  inp sig2
#     0/   0 paths used
#  xsedge+ 50, used to normalize mu           2.4703E-04
#  -----------------------------------------------------------------------
#  omega    e    k    mu    mu0     chi     @#
    8983.681    -10.169  -1.000  3.96475E-02  5.43450E-02 -1.46974E-02
    8983.980     -9.871  -0.960  4.18322E-02  5.83564E-02 -1.65243E-02
    8984.267     -9.584  -0.920  4.41954E-02  6.28218E-02 -1.86264E-02
    8984.541     -9.310  -0.880  4.67579E-02  6.78087E-02 -2.10508E-02
    8984.803     -9.048  -0.840  4.95433E-02  7.33962E-02 -2.38529E-02
    8985.053     -8.798  -0.800  5.25781E-02  7.96756E-02 -2.70976E-02
    8985.291     -8.560  -0.760  5.58922E-02  8.67524E-02 -3.08602E-02
    8985.516     -8.334  -0.720  5.95187E-02  9.47454E-02 -3.52267E-02
    8985.730     -8.121  -0.680  6.34927E-02  1.03786E-01 -4.02932E-02
    8985.931     -7.920  -0.640  6.78505E-02  1.14013E-01 -4.61622E-02
    8986.120     -7.731  -0.600  7.26261E-02  1.25562E-01 -5.29363E-02
    8986.297     -7.554  -0.560  7.78461E-02  1.38552E-01 -6.07056E-02
    8986.461     -7.389  -0.520  8.35226E-02  1.53051E-01 -6.95283E-02
    8986.614     -7.237  -0.480  8.96425E-02  1.69046E-01 -7.94036E-02
    8986.754     -7.097  -0.440  9.61560E-02  1.86396E-01 -9.02401E-02
    8986.882     -6.969  -0.400  1.02966E-01  2.04797E-01 -1.01830E-01
    8986.998     -6.853  -0.360  1.09926E-01  2.23768E-01 -1.13842E-01
    8987.101     -6.749  -0.320  1.16843E-01  2.42687E-01 -1.25844E-01
    8987.193     -6.658  -0.280  1.23504E-01  2.60864E-01 -1.37360E-01
    8987.272     -6.579  -0.240  1.29691E-01  2.77634E-01 -1.47943E-01
    8987.339     -6.512  -0.200  1.35214E-01  2.92446E-01 -1.57231E-01
    8987.394     -6.457  -0.160  1.39918E-01  3.04896E-01 -1.64978E-01
    8987.437     -6.414  -0.120  1.43687E-01  3.14731E-01 -1.71044E-01
    8987.467     -6.384  -0.080  1.46444E-01  3.21812E-01 -1.75368E-01
    8987.491     -6.359   0.000  1.48715E-01  3.27497E-01 -1.78782E-01
    8987.546     -6.304   0.120  1.53832E-01  3.40324E-01 -1.86492E-01
    8987.589     -6.262   0.160  1.57804E-01  3.50266E-01 -1.92462E-01
    8987.644     -6.207   0.200  1.62940E-01  3.62947E-01 -2.00007E-01
    8987.711     -6.140   0.240  1.69230E-01  3.78160E-01 -2.08930E-01
    8987.790     -6.061   0.280  1.76696E-01  3.95599E-01 -2.18903E-01
    8987.882     -5.969   0.320  1.85288E-01  4.14793E-01 -2.29506E-01
    8987.985     -5.865   0.360  1.94926E-01  4.35118E-01 -2.40193E-01
    8988.101     -5.750   0.400  2.05553E-01  4.55976E-01 -2.50424E-01
    8988.229     -5.622   0.440  2.17064E-01  4.76785E-01 -2.59721E-01
    8988.369     -5.481   0.480  2.29403E-01  4.97130E-01 -2.67727E-01
    8988.522     -5.329   0.520  2.42441E-01  5.16674E-01 -2.74233E-01
    8988.686     -5.164   0.560  2.56130E-01  5.35331E-01 -2.79201E-01
    8988.863     -4.988   0.600  2.70301E-01  5.53069E-01 -2.82768E-01
    8989.052     -4.799   0.640  2.84761E-01  5.69914E-01 -2.85153E-01
    8989.253     -4.597   0.680  2.99317E-01  5.85989E-01 -2.86672E-01
    8989.467     -4.384   0.720  3.13880E-01  6.01395E-01 -2.87515E-01
    8989.692     -4.159   0.760  3.28599E-01  6.16230E-01 -2.87632E-01
    8989.930     -3.921   0.800  3.44012E-01  6.30604E-01 -2.86592E-01
    8990.180     -3.671   0.840  3.60474E-01  6.44573E-01 -2.84099E-01
    8990.442     -3.409   0.880  3.77790E-01  6.58240E-01 -2.80450E-01
    8990.716     -3.134   0.920  3.95783E-01  6.71630E-01 -2.75847E-01
    8991.003     -2.848   0.960  4.15495E-01  6.84782E-01 -2.69287E-01
    8991.301     -2.549   1.000  4.39386E-01  6.97738E-01 -2.58352E-01
    8991.612     -2.238   1.040  4.70765E-01  7.10533E-01 -2.39769E-01
    8991.935     -1.915   1.080  5.12811E-01  7.23133E-01 -2.10322E-01
    8992.271     -1.580   1.120  5.65978E-01  7.35578E-01 -1.69600E-01
    8992.618     -1.233   1.160  6.24002E-01  7.47843E-01 -1.23841E-01
    8992.978     -0.873   1.200  6.74544E-01  7.59936E-01 -8.53921E-02
    8993.350     -0.501   1.240  7.07031E-01  7.71843E-01 -6.48123E-02
    8993.734     -0.117   1.280  7.18166E-01  7.83549E-01 -6.53829E-02
    8994.130      0.279   1.320  7.14961E-01  7.95033E-01 -8.00718E-02
    8994.538      0.688   1.360  7.11966E-01  8.06294E-01 -9.43285E-02
    8994.959      1.108   1.400  7.17663E-01  8.17332E-01 -9.96686E-02
    8995.392      1.541   1.440  7.31131E-01  8.28081E-01 -9.69499E-02
    8995.837      1.986   1.480  7.51131E-01  8.38578E-01 -8.74470E-02
    8996.294      2.443   1.520  7.77443E-01  8.48760E-01 -7.13169E-02
    8996.763      2.913   1.560  8.08786E-01  8.58642E-01 -4.98560E-02
    8997.245      3.394   1.600  8.43068E-01  8.68220E-01 -2.51520E-02
    8997.739      3.888   1.640  8.76524E-01  8.77451E-01 -9.27326E-04
    8998.245      4.394   1.680  9.07044E-01  8.86351E-01  2.06928E-02
    8998.763      4.912   1.720  9.36310E-01  8.94877E-01  4.14335E-02
    8999.293      5.443   1.760  9.69440E-01  9.03067E-01  6.63731E-02
    8999.836      5.985   1.800  1.00960E+00  9.10879E-01  9.87247E-02
    9000.391      6.540   1.840  1.05614E+00  9.18334E-01  1.37806E-01
    9000.957      7.107   1.880  1.10845E+00  9.25410E-01  1.83044E-01
    9001.537      7.686   1.920  1.16429E+00  9.32108E-01  2.32184E-01
    9002.128      8.277   1.960  1.21841E+00  9.38429E-01  2.79981E-01
    9002.731      8.881   2.000  1.26339E+00  9.44395E-01  3.18998E-01
    9003.347      9.496   2.040  1.29019E+00  9.49989E-01  3.40203E-01
    9003.975     10.124   2.080  1.29855E+00  9.55214E-01  3.43334E-01
    9004.615     10.764   2.120  1.29336E+00  9.60093E-01  3.33268E-01
    9005.267     11.417   2.160  1.27863E+00  9.64633E-01  3.13998E-01
    9005.932     12.081   2.200  1.25846E+00  9.68837E-01  2.89618E-01
    9006.608     12.758   2.240  1.23430E+00  9.72689E-01  2.61610E-01
    9007.297     13.447   2.280  1.20779E+00  9.76257E-01  2.31535E-01
    9007.998     14.148   2.320  1.17960E+00  9.79486E-01  2.00117E-01
    9008.712     14.861   2.360  1.15031E+00  9.82441E-01  1.67870E-01
    9009.437     15.586   2.400  1.12319E+00  9.85110E-01  1.38078E-01
    9010.175     16.324   2.440  1.10362E+00  9.87498E-01  1.16125E-01
    9010.924     17.074   2.480  1.09411E+00  9.89633E-01  1.04473E-01
    9011.686     17.836   2.520  1.08991E+00  9.91522E-01  9.83887E-02
    9012.461     18.610   2.560  1.08213E+00  9.93192E-01  8.89398E-02
    9013.247     19.396   2.600  1.06713E+00  9.94630E-01  7.24959E-02
    9014.046     20.195   2.640  1.04926E+00  9.95882E-01  5.33784E-02
    9014.856     21.006   2.680  1.03327E+00  9.96935E-01  3.63357E-02
    9015.679     21.829   2.720  1.02010E+00  9.97797E-01  2.23007E-02
    9016.514     22.664   2.760  1.00897E+00  9.98513E-01  1.04594E-02
    9017.362     23.511   2.800  9.99633E-01  9.99072E-01  5.60969E-04
    9018.221     24.371   2.840  9.91467E-01  9.99498E-01 -8.03165E-03
    9019.093     25.242   2.880  9.82615E-01  9.99798E-01 -1.71821E-02
    9019.977     26.126   2.920  9.72178E-01  9.99957E-01 -2.77789E-02
    9020.873     27.022   2.960  9.61206E-01  1.00004E+00 -3.88350E-02
    9021.781     27.931   3.000  9.48256E-01  1.00002E+00 -5.17608E-02
    9022.702     28.851   3.040  9.33530E-01  9.99910E-01 -6.63806E-02
    9023.634     29.784   3.080  9.18476E-01  9.99745E-01 -8.12690E-02
    9024.579     30.729   3.120  9.04413E-01  9.99505E-01 -9.50922E-02
    9025.536     31.686   3.160  8.92686E-01  9.99196E-01 -1.06510E-01
    9026.506     32.655   3.200  8.83714E-01  9.98861E-01 -1.15148E-01
    9027.487     33.636   3.240  8.77284E-01  9.98465E-01 -1.21182E-01
    9028.481     34.630   3.280  8.73052E-01  9.98055E-01 -1.25002E-01
    9029.487     35.636   3.320  8.70390E-01  9.97633E-01 -1.27243E-01
    9030.505     36.654   3.360  8.68886E-01  9.97181E-01 -1.28296E-01
    9031.535     37.684   3.400  8.68672E-01  9.96722E-01 -1.28050E-01
    9032.577     38.727   3.440  8.69765E-01  9.96260E-01 -1.26495E-01
    9033.632     39.781   3.480  8.72562E-01  9.95797E-01 -1.23235E-01
    9034.699     40.848   3.520  8.77480E-01  9.95335E-01 -1.17855E-01
    9035.778     41.927   3.560  8.84643E-01  9.94877E-01 -1.10234E-01
    9036.869     43.018   3.600  8.93983E-01  9.94447E-01 -1.00464E-01
    9037.972     44.122   3.640  9.05252E-01  9.94044E-01 -8.87923E-02
    9039.088     45.237   3.680  9.17999E-01  9.93630E-01 -7.56311E-02
    9040.216     46.365   3.720  9.31649E-01  9.93269E-01 -6.16201E-02
    9041.355     47.505   3.760  9.45720E-01  9.92919E-01 -4.71990E-02
    9042.508     48.657   3.800  9.59837E-01  9.92604E-01 -3.27668E-02
    9043.672     49.821   3.840  9.73695E-01  9.92322E-01 -1.86267E-02
    9044.848     50.998   3.880  9.87095E-01  9.92054E-01 -4.95905E-03
    9046.037     52.187   3.920  9.99927E-01  9.91822E-01  8.10494E-03
    9047.238     53.387   3.960  1.01194E+00  9.91650E-01  2.02868E-02
    9048.451     54.601   4.000  1.02283E+00  9.91492E-01  3.13373E-02
    9049.676     55.826   4.040  1.03236E+00  9.91371E-01  4.09847E-02
    9050.914     57.063   4.080  1.04026E+00  9.91286E-01  4.89746E-02
    9052.164     58.313   4.120  1.04646E+00  9.91216E-01  5.52477E-02
    9053.425     59.575   4.160  1.05121E+00  9.91204E-01  6.00063E-02
    9054.700     60.849   4.200  1.05480E+00  9.91208E-01  6.35877E-02
    9055.986     62.135   4.240  1.05759E+00  9.91270E-01  6.63158E-02
    9057.284     63.434   4.280  1.05984E+00  9.91346E-01  6.84921E-02
    9058.595     64.744   4.320  1.06159E+00  9.91455E-01  7.01332E-02
    9059.918     66.067   4.360  1.06255E+00  9.91576E-01  7.09712E-02
    9061.253     67.402   4.400  1.06231E+00  9.91730E-01  7.05807E-02
    9062.600     68.749   4.440  1.06050E+00  9.91919E-01  6.85778E-02
    9063.959     70.109   4.480  1.05699E+00  9.92141E-01  6.48465E-02
    9065.331     71.480   4.520  1.05207E+00  9.92369E-01  5.97021E-02
    9066.715     72.864   4.560  1.04643E+00  9.92605E-01  5.38232E-02
    9068.111     74.260   4.600  1.04084E+00  9.92871E-01  4.79731E-02
    9069.519     75.668   4.640  1.03587E+00  9.93142E-01  4.27300E-02
    9070.939     77.089   4.680  1.03180E+00  9.93442E-01  3.83570E-02
    9072.372     78.521   4.720  1.02851E+00  9.93746E-01  3.47647E-02
    9073.817     79.966   4.760  1.02574E+00  9.94052E-01  3.16835E-02
    9075.273     81.423   4.800  1.02314E+00  9.94361E-01  2.87827E-02
    9076.743     82.892   4.840  1.02040E+00  9.94691E-01  2.57074E-02
    9078.224     84.373   4.880  1.01714E+00  9.94998E-01  2.21435E-02
    9079.717     85.867   4.920  1.01319E+00  9.95302E-01  1.78898E-02
    9081.223     87.372   4.960  1.00850E+00  9.95605E-01  1.28957E-02
    9082.741     88.890   5.000  1.00317E+00  9.95905E-01  7.26506E-03
    9084.271     90.420   5.040  9.97367E-01  9.96202E-01  1.16548E-03
    9085.813     91.963   5.080  9.91284E-01  9.96491E-01 -5.20693E-03
    9087.368     93.517   5.120  9.85114E-01  9.96753E-01 -1.16395E-02
    9088.935     95.084   5.160  9.79109E-01  9.97006E-01 -1.78974E-02
    9090.513     96.663   5.200  9.73516E-01  9.97228E-01 -2.37119E-02
    9092.104     98.254   5.240  9.68623E-01  9.97442E-01 -2.88184E-02
    9093.708     99.857   5.280  9.64652E-01  9.97644E-01 -3.29924E-02
    9095.323    101.472   5.320  9.61653E-01  9.97792E-01 -3.61389E-02
    9096.951    103.100   5.360  9.59653E-01  9.97950E-01 -3.82970E-02
    9098.591    104.740   5.400  9.58418E-01  9.98052E-01 -3.96341E-02
    9100.243    106.392   5.440  9.57773E-01  9.98142E-01 -4.03688E-02
    9101.907    108.056   5.480  9.57521E-01  9.98219E-01 -4.06975E-02
    9103.583    109.733   5.520  9.57569E-01  9.98238E-01 -4.06695E-02
    9105.272    111.421   5.560  9.58039E-01  9.98243E-01 -4.02037E-02
    9106.973    113.122   5.600  9.59092E-01  9.98209E-01 -3.91173E-02
    9108.686    114.835   5.640  9.60893E-01  9.98138E-01 -3.72456E-02
    9110.411    116.560   5.680  9.63485E-01  9.98033E-01 -3.45476E-02
    9112.148    118.297   5.720  9.66695E-01  9.97914E-01 -3.12188E-02
    9113.898    120.047   5.760  9.70137E-01  9.97759E-01 -2.76228E-02
    9115.659    121.809   5.800  9.73422E-01  9.97567E-01 -2.41456E-02
    9117.433    123.583   5.840  9.76305E-01  9.97341E-01 -2.10364E-02
    9119.219    125.369   5.880  9.78696E-01  9.97104E-01 -1.84082E-02
    9121.018    127.167   5.920  9.80556E-01  9.96810E-01 -1.62535E-02
    9122.828    128.978   5.960  9.82039E-01  9.96506E-01 -1.44667E-02
    9124.651    130.800   6.000  9.83384E-01  9.96178E-01 -1.27941E-02
