# # comment:                                                     FEFF 9.9.1  
# # Source:
# # Structure
# # Reduced
# # space
# # abc:
# # angles:107.580080
# # sites:
# # POT  SCF 100  7.0000   0, screened core-hole, AFOLP (folp(0)= 1.150)
# # Abs   Z=29 Rmt= 1.121 Rnm= 1.259 K  shell
# # Pot 1 Z=56 Rmt= 1.898 Rnm= 1.967
# # Pot 2 Z=38 Rmt= 1.787 Rnm= 1.856
# # Pot 3 Z=29 Rmt= 1.119 Rnm= 1.258
# # Pot 4 Z= 8 Rmt= 1.084 Rnm= 1.142
# # Gam_ch=1.729E+00 H-L exch Vi= 0.000E+00 Vr= 0.000E+00
# # Mu=-9.445E+00eV kf=1.997E+00 Vint=-1.639E+01eV Rs_int= 1.816
# FMS rfms= 9.0000
# # PATH  Rmax=-1.000,  Keep_limit= 0.00, Heap_limit 0.00  Pwcrit= 2.50%
#  S02=0.950  Temp=   0.00  Debye_temp=   0.00  Global_sig2= 0.00000
#  Energy zero shift, vr, vi    0.00000E+00   0.00000E+00
#  Curved wave amplitude ratio filter   4.000%
#     file         sig2 tot  cw amp ratio   deg  nlegs   reff  inp sig2
#     0/   0 paths used
#  xsedge+ 50, used to normalize mu           2.4450E-04
#  -----------------------------------------------------------------------
#  omega    e    k    mu    mu0     chi     @#
    8984.525    -13.255  -1.000  2.86000E-02  5.20111E-02 -2.34111E-02
    8984.824    -12.957  -0.960  2.97563E-02  5.56629E-02 -2.59066E-02
    8985.110    -12.670  -0.920  3.09818E-02  5.97067E-02 -2.87249E-02
    8985.385    -12.396  -0.880  3.22844E-02  6.41988E-02 -3.19144E-02
    8985.647    -12.134  -0.840  3.36731E-02  6.92045E-02 -3.55314E-02
    8985.897    -11.884  -0.800  3.51585E-02  7.47991E-02 -3.96406E-02
    8986.134    -11.646  -0.760  3.67530E-02  8.10690E-02 -4.43160E-02
    8986.360    -11.421  -0.720  3.84706E-02  8.81114E-02 -4.96409E-02
    8986.573    -11.207  -0.680  4.03268E-02  9.60332E-02 -5.57064E-02
    8986.774    -11.006  -0.640  4.23379E-02  1.04947E-01 -6.26087E-02
    8986.963    -10.817  -0.600  4.45196E-02  1.14962E-01 -7.04421E-02
    8987.140    -10.640  -0.560  4.68839E-02  1.26171E-01 -7.92874E-02
    8987.305    -10.476  -0.520  4.94352E-02  1.38630E-01 -8.91948E-02
    8987.457    -10.323  -0.480  5.21637E-02  1.52322E-01 -1.00159E-01
    8987.597    -10.183  -0.440  5.50393E-02  1.67129E-01 -1.12090E-01
    8987.725    -10.055  -0.400  5.80062E-02  1.82798E-01 -1.24791E-01
    8987.841     -9.939  -0.360  6.09833E-02  1.98930E-01 -1.37947E-01
    8987.945     -9.836  -0.320  6.38720E-02  2.15011E-01 -1.51139E-01
    8988.036     -9.744  -0.280  6.65716E-02  2.30467E-01 -1.63896E-01
    8988.116     -9.665  -0.240  6.89963E-02  2.44744E-01 -1.75748E-01
    8988.183     -9.598  -0.200  7.10853E-02  2.57376E-01 -1.86290E-01
    8988.237     -9.543  -0.160  7.28027E-02  2.68015E-01 -1.95212E-01
    8988.280     -9.500  -0.120  7.41279E-02  2.76436E-01 -2.02308E-01
    8988.311     -9.470  -0.080  7.50513E-02  2.82511E-01 -2.07460E-01
    8988.335     -9.445   0.000  7.57413E-02  2.87398E-01 -2.11657E-01
    8988.390     -9.391   0.120  7.79500E-02  2.98425E-01 -2.20475E-01
    8988.433     -9.348   0.160  7.95567E-02  3.07019E-01 -2.27462E-01
    8988.487     -9.293   0.200  8.15733E-02  3.18016E-01 -2.36442E-01
    8988.554     -9.226   0.240  8.39407E-02  3.31291E-01 -2.47350E-01
    8988.634     -9.147   0.280  8.65808E-02  3.46595E-01 -2.60014E-01
    8988.725     -9.055   0.320  8.94890E-02  3.63603E-01 -2.74114E-01
    8988.829     -8.952   0.360  9.26485E-02  3.81885E-01 -2.89236E-01
    8988.945     -8.836   0.400  9.60557E-02  4.00956E-01 -3.04900E-01
    8989.073     -8.708   0.440  9.98218E-02  4.20372E-01 -3.20550E-01
    8989.213     -8.568   0.480  1.04023E-01  4.39804E-01 -3.35781E-01
    8989.365     -8.415   0.520  1.08689E-01  4.59063E-01 -3.50374E-01
    8989.530     -8.251   0.560  1.13595E-01  4.77989E-01 -3.64393E-01
    8989.707     -8.074   0.600  1.18364E-01  4.96592E-01 -3.78228E-01
    8989.896     -7.885   0.640  1.22492E-01  5.14896E-01 -3.92404E-01
    8990.097     -7.684   0.680  1.25654E-01  5.32934E-01 -4.07279E-01
    8990.310     -7.470   0.720  1.27963E-01  5.50808E-01 -4.22845E-01
    8990.536     -7.245   0.760  1.29993E-01  5.68558E-01 -4.38565E-01
    8990.773     -7.007   0.800  1.32679E-01  5.86215E-01 -4.53536E-01
    8991.023     -6.757   0.840  1.37109E-01  6.03859E-01 -4.66750E-01
    8991.285     -6.495   0.880  1.44096E-01  6.21475E-01 -4.77378E-01
    8991.560     -6.221   0.920  1.54201E-01  6.39077E-01 -4.84876E-01
    8991.846     -5.934   0.960  1.67568E-01  6.56670E-01 -4.89102E-01
    8992.145     -5.635   1.000  1.83838E-01  6.74226E-01 -4.90388E-01
    8992.456     -5.325   1.040  2.02094E-01  6.91732E-01 -4.89638E-01
    8992.779     -5.001   1.080  2.21362E-01  7.09148E-01 -4.87785E-01
    8993.114     -4.666   1.120  2.41713E-01  7.26446E-01 -4.84732E-01
    8993.462     -4.319   1.160  2.64838E-01  7.43576E-01 -4.78738E-01
    8993.821     -3.959   1.200  2.93142E-01  7.60485E-01 -4.67344E-01
    8994.193     -3.587   1.240  3.27206E-01  7.77157E-01 -4.49951E-01
    8994.577     -3.203   1.280  3.64985E-01  7.93513E-01 -4.28528E-01
    8994.974     -2.807   1.320  4.04694E-01  8.09537E-01 -4.04842E-01
    8995.382     -2.399   1.360  4.46159E-01  8.25147E-01 -3.78988E-01
    8995.803     -1.978   1.400  4.86836E-01  8.40328E-01 -3.53492E-01
    8996.235     -1.545   1.440  5.20655E-01  8.55020E-01 -3.34365E-01
    8996.680     -1.100   1.480  5.45986E-01  8.69208E-01 -3.23222E-01
    8997.138     -0.643   1.520  5.67842E-01  8.82835E-01 -3.14993E-01
    8997.607     -0.173   1.560  5.93014E-01  8.95891E-01 -3.02878E-01
    8998.089      0.308   1.600  6.25237E-01  9.08323E-01 -2.83086E-01
    8998.582      0.802   1.640  6.65408E-01  9.20142E-01 -2.54734E-01
    8999.088      1.308   1.680  7.19597E-01  9.31301E-01 -2.11704E-01
    8999.606      1.826   1.720  7.87777E-01  9.41837E-01 -1.54060E-01
    9000.137      2.356   1.760  8.58468E-01  9.51685E-01 -9.32169E-02
    9000.679      2.899   1.800  9.34760E-01  9.60867E-01 -2.61066E-02
    9001.234      3.454   1.840  1.03401E+00  9.69403E-01  6.46054E-02
    9001.801      4.021   1.880  1.15922E+00  9.77279E-01  1.81940E-01
    9002.380      4.600   1.920  1.27796E+00  9.84520E-01  2.93443E-01
    9002.971      5.191   1.960  1.34582E+00  9.91110E-01  3.54713E-01
    9003.575      5.794   2.000  1.35263E+00  9.97079E-01  3.55548E-01
    9004.191      6.410   2.040  1.31740E+00  1.00246E+00  3.14943E-01
    9004.819      7.038   2.080  1.26600E+00  1.00728E+00  2.58720E-01
    9005.459      7.678   2.120  1.21852E+00  1.01151E+00  2.07005E-01
    9006.111      8.330   2.160  1.18632E+00  1.01523E+00  1.71087E-01
    9006.775      8.995   2.200  1.17465E+00  1.01844E+00  1.56205E-01
    9007.452      9.672   2.240  1.18350E+00  1.02117E+00  1.62329E-01
    9008.141     10.360   2.280  1.20842E+00  1.02344E+00  1.84978E-01
    9008.842     11.061   2.320  1.24432E+00  1.02529E+00  2.19023E-01
    9009.555     11.775   2.360  1.28490E+00  1.02674E+00  2.58163E-01
    9010.280     12.500   2.400  1.31927E+00  1.02782E+00  2.91456E-01
    9011.018     13.238   2.440  1.32745E+00  1.02855E+00  2.98894E-01
    9011.768     13.987   2.480  1.31549E+00  1.02899E+00  2.86498E-01
    9012.530     14.749   2.520  1.29151E+00  1.02911E+00  2.62396E-01
    9013.304     15.524   2.560  1.25986E+00  1.02900E+00  2.30857E-01
    9014.090     16.310   2.600  1.22429E+00  1.02863E+00  1.95660E-01
    9014.889     17.109   2.640  1.18811E+00  1.02804E+00  1.60065E-01
    9015.700     17.919   2.680  1.15407E+00  1.02728E+00  1.26787E-01
    9016.523     18.742   2.720  1.12419E+00  1.02635E+00  9.78447E-02
    9017.358     19.577   2.760  1.09869E+00  1.02526E+00  7.34338E-02
    9018.205     20.425   2.800  1.07728E+00  1.02404E+00  5.32325E-02
    9019.065     21.284   2.840  1.05982E+00  1.02271E+00  3.71050E-02
    9019.937     22.156   2.880  1.04613E+00  1.02131E+00  2.48223E-02
    9020.820     23.040   2.920  1.03536E+00  1.01981E+00  1.55471E-02
    9021.717     23.936   2.960  1.02600E+00  1.01829E+00  7.71354E-03
    9022.625     24.844   3.000  1.01618E+00  1.01670E+00 -5.14761E-04
    9023.545     25.765   3.040  1.00416E+00  1.01509E+00 -1.09260E-02
    9024.478     26.698   3.080  9.89146E-01  1.01345E+00 -2.43056E-02
    9025.423     27.642   3.120  9.71546E-01  1.01181E+00 -4.02663E-02
    9026.380     28.600   3.160  9.52516E-01  1.01020E+00 -5.76816E-02
    9027.349     29.569   3.200  9.33305E-01  1.00859E+00 -7.52864E-02
    9028.331     30.550   3.240  9.15054E-01  1.00702E+00 -9.19621E-02
    9029.324     31.544   3.280  8.98209E-01  1.00546E+00 -1.07249E-01
    9030.330     32.550   3.320  8.82989E-01  1.00396E+00 -1.20973E-01
    9031.348     33.568   3.360  8.69608E-01  1.00251E+00 -1.32904E-01
    9032.378     34.598   3.400  8.58287E-01  1.00113E+00 -1.42845E-01
    9033.421     35.640   3.440  8.49178E-01  9.99802E-01 -1.50624E-01
    9034.475     36.695   3.480  8.42590E-01  9.98546E-01 -1.55956E-01
    9035.542     37.762   3.520  8.38938E-01  9.97345E-01 -1.58406E-01
    9036.621     38.841   3.560  8.38455E-01  9.96242E-01 -1.57787E-01
    9037.712     39.932   3.600  8.41315E-01  9.95199E-01 -1.53884E-01
    9038.816     41.035   3.640  8.47779E-01  9.94258E-01 -1.46479E-01
    9039.931     42.151   3.680  8.57852E-01  9.93378E-01 -1.35525E-01
    9041.059     43.279   3.720  8.71262E-01  9.92601E-01 -1.21339E-01
    9042.199     44.419   3.760  8.87461E-01  9.91910E-01 -1.04449E-01
    9043.351     45.571   3.800  9.05509E-01  9.91302E-01 -8.57929E-02
    9044.515     46.735   3.840  9.23995E-01  9.90778E-01 -6.67831E-02
    9045.692     47.912   3.880  9.41413E-01  9.90361E-01 -4.89482E-02
    9046.881     49.100   3.920  9.56621E-01  9.90005E-01 -3.33847E-02
    9048.082     50.301   3.960  9.69205E-01  9.89754E-01 -2.05489E-02
    9049.295     51.514   4.000  9.79378E-01  9.89586E-01 -1.02077E-02
    9050.520     52.740   4.040  9.87790E-01  9.89502E-01 -1.71149E-03
    9051.758     53.977   4.080  9.94993E-01  9.89499E-01  5.49424E-03
    9053.007     55.227   4.120  1.00122E+00  9.89575E-01  1.16467E-02
    9054.269     56.489   4.160  1.00653E+00  9.89731E-01  1.68002E-02
    9055.543     57.763   4.200  1.01099E+00  9.89964E-01  2.10240E-02
    9056.829     59.049   4.240  1.01470E+00  9.90252E-01  2.44472E-02
    9058.128     60.347   4.280  1.01797E+00  9.90615E-01  2.73576E-02
    9059.438     61.658   4.320  1.02115E+00  9.91054E-01  3.00968E-02
    9060.761     62.981   4.360  1.02451E+00  9.91565E-01  3.29417E-02
    9062.096     64.316   4.400  1.02814E+00  9.92124E-01  3.60165E-02
    9063.443     65.663   4.440  1.03203E+00  9.92729E-01  3.92966E-02
    9064.803     67.022   4.480  1.03605E+00  9.93378E-01  4.26734E-02
    9066.174     68.394   4.520  1.04014E+00  9.94092E-01  4.60476E-02
    9067.558     69.778   4.560  1.04438E+00  9.94848E-01  4.95331E-02
    9068.954     71.174   4.600  1.04887E+00  9.95621E-01  5.32449E-02
    9070.362     72.582   4.640  1.05365E+00  9.96451E-01  5.72015E-02
    9071.783     74.002   4.680  1.05860E+00  9.97292E-01  6.13034E-02
    9073.215     75.435   4.720  1.06359E+00  9.98142E-01  6.54488E-02
    9074.660     76.880   4.760  1.06867E+00  9.99021E-01  6.96502E-02
    9076.117     78.337   4.800  1.07390E+00  9.99907E-01  7.39894E-02
    9077.586     79.806   4.840  1.07904E+00  1.00082E+00  7.82174E-02
    9079.067     81.287   4.880  1.08322E+00  1.00173E+00  8.14891E-02
    9080.561     82.781   4.920  1.08514E+00  1.00262E+00  8.25174E-02
    9082.067     84.286   4.960  1.08369E+00  1.00353E+00  8.01588E-02
    9083.585     85.804   5.000  1.07852E+00  1.00441E+00  7.41108E-02
    9085.115     87.334   5.040  1.07039E+00  1.00528E+00  6.51066E-02
    9086.657     88.877   5.080  1.06054E+00  1.00612E+00  5.44151E-02
    9088.211     90.431   5.120  1.05021E+00  1.00695E+00  4.32577E-02
    9089.778     91.998   5.160  1.04017E+00  1.00775E+00  3.24265E-02
    9091.357     93.577   5.200  1.03080E+00  1.00850E+00  2.22971E-02
    9092.948     95.168   5.240  1.02215E+00  1.00922E+00  1.29393E-02
    9094.551     96.771   5.280  1.01411E+00  1.00991E+00  4.19425E-03
    9096.167     98.386   5.320  1.00632E+00  1.01055E+00 -4.22718E-03
    9097.794    100.014   5.360  9.98535E-01  1.01113E+00 -1.25981E-02
    9099.434    101.654   5.400  9.90732E-01  1.01168E+00 -2.09442E-02
    9101.086    103.306   5.440  9.83310E-01  1.01217E+00 -2.88636E-02
    9102.750    104.970   5.480  9.77021E-01  1.01260E+00 -3.55791E-02
    9104.427    106.646   5.520  9.72737E-01  1.01298E+00 -4.02401E-02
    9106.115    108.335   5.560  9.70924E-01  1.01328E+00 -4.23592E-02
    9107.816    110.036   5.600  9.71456E-01  1.01354E+00 -4.20836E-02
    9109.529    111.749   5.640  9.73468E-01  1.01375E+00 -4.02799E-02
    9111.254    113.474   5.680  9.75534E-01  1.01388E+00 -3.83489E-02
    9112.992    115.211   5.720  9.76332E-01  1.01394E+00 -3.76101E-02
    9114.741    116.961   5.760  9.75286E-01  1.01395E+00 -3.86654E-02
    9116.503    118.722   5.800  9.72816E-01  1.01389E+00 -4.10723E-02
    9118.277    120.496   5.840  9.70081E-01  1.01378E+00 -4.36948E-02
    9120.063    122.282   5.880  9.68083E-01  1.01359E+00 -4.55064E-02
    9121.861    124.081   5.920  9.67221E-01  1.01333E+00 -4.61088E-02
    9123.672    125.891   5.960  9.67403E-01  1.01302E+00 -4.56129E-02
    9125.494    127.714   6.000  9.68509E-01  1.01261E+00 -4.41000E-02
