# # comment:                                                     FEFF 9.9.1  
# # Source:
# # Structure
# # Reduced
# # space
# # abc:
# # angles:
# # sites:
# # POT  SCF 100  7.0000   0, screened core-hole, AFOLP (folp(0)= 1.150)
# # Abs   Z=29 Rmt= 1.186 Rnm= 1.271 K  shell
# # Pot 1 Z=57 Rmt= 1.767 Rnm= 1.839
# # Pot 2 Z=29 Rmt= 1.186 Rnm= 1.271
# # Pot 3 Z= 8 Rmt= 1.066 Rnm= 1.113
# # Gam_ch=1.729E+00 H-L exch Vi= 0.000E+00 Vr= 0.000E+00
# # Mu=-8.259E+00eV kf=2.061E+00 Vint=-1.837E+01eV Rs_int= 1.760
# FMS rfms= 9.0000
# # PATH  Rmax=-1.000,  Keep_limit= 0.00, Heap_limit 0.00  Pwcrit= 2.50%
#  S02=0.950  Temp=   0.00  Debye_temp=   0.00  Global_sig2= 0.00000
#  Energy zero shift, vr, vi    0.00000E+00   0.00000E+00
#  Curved wave amplitude ratio filter   4.000%
#     file         sig2 tot  cw amp ratio   deg  nlegs   reff  inp sig2
#     0/   0 paths used
#  xsedge+ 50, used to normalize mu           2.4579E-04
#  -----------------------------------------------------------------------
#  omega    e    k    mu    mu0     chi     @#
    8985.001    -12.069  -1.000  3.78405E-02  5.64621E-02 -1.86216E-02
    8985.300    -11.770  -0.960  3.98492E-02  6.06617E-02 -2.08125E-02
    8985.586    -11.484  -0.920  4.20304E-02  6.53377E-02 -2.33073E-02
    8985.861    -11.209  -0.880  4.44081E-02  7.05610E-02 -2.61528E-02
    8986.123    -10.947  -0.840  4.70107E-02  7.64143E-02 -2.94036E-02
    8986.373    -10.697  -0.800  4.98711E-02  8.29938E-02 -3.31227E-02
    8986.611    -10.459  -0.760  5.30278E-02  9.04097E-02 -3.73819E-02
    8986.836    -10.234  -0.720  5.65245E-02  9.87866E-02 -4.22622E-02
    8987.049    -10.021  -0.680  6.04098E-02  1.08262E-01 -4.78526E-02
    8987.251     -9.819  -0.640  6.47355E-02  1.18982E-01 -5.42466E-02
    8987.440     -9.630  -0.600  6.95527E-02  1.31089E-01 -6.15364E-02
    8987.616     -9.454  -0.560  7.49047E-02  1.44706E-01 -6.98010E-02
    8987.781     -9.289  -0.520  8.08163E-02  1.59905E-01 -7.90890E-02
    8987.933     -9.137  -0.480  8.72788E-02  1.76673E-01 -8.93947E-02
    8988.074     -8.996  -0.440  9.42324E-02  1.94862E-01 -1.00630E-01
    8988.202     -8.868  -0.400  1.01553E-01  2.14153E-01 -1.12600E-01
    8988.317     -8.753  -0.360  1.09047E-01  2.34042E-01 -1.24996E-01
    8988.421     -8.649  -0.320  1.16467E-01  2.53878E-01 -1.37411E-01
    8988.512     -8.557  -0.280  1.23547E-01  2.72937E-01 -1.49390E-01
    8988.592     -8.478  -0.240  1.30034E-01  2.90523E-01 -1.60489E-01
    8988.659     -8.411  -0.200  1.35729E-01  3.06057E-01 -1.70328E-01
    8988.714     -8.356  -0.160  1.40491E-01  3.19116E-01 -1.78626E-01
    8988.756     -8.314  -0.120  1.44236E-01  3.29433E-01 -1.85197E-01
    8988.787     -8.283  -0.080  1.46924E-01  3.36862E-01 -1.89938E-01
    8988.811     -8.259   0.000  1.49070E-01  3.42827E-01 -1.93758E-01
    8988.866     -8.204   0.120  1.53955E-01  3.56270E-01 -2.02316E-01
    8988.909     -8.161   0.160  1.57723E-01  3.66715E-01 -2.08992E-01
    8988.964     -8.106   0.200  1.62501E-01  3.80012E-01 -2.17512E-01
    8989.031     -8.039   0.240  1.68244E-01  3.96007E-01 -2.27763E-01
    8989.110     -7.960   0.280  1.74799E-01  4.14321E-01 -2.39522E-01
    8989.201     -7.869   0.320  1.82036E-01  4.34462E-01 -2.52425E-01
    8989.305     -7.765   0.360  1.89832E-01  4.55843E-01 -2.66011E-01
    8989.421     -7.649   0.400  1.98035E-01  4.77779E-01 -2.79744E-01
    8989.549     -7.521   0.440  2.06509E-01  4.99681E-01 -2.93172E-01
    8989.689     -7.381   0.480  2.14991E-01  5.21096E-01 -3.06105E-01
    8989.841     -7.229   0.520  2.22832E-01  5.41715E-01 -3.18883E-01
    8990.006     -7.064   0.560  2.29014E-01  5.61403E-01 -3.32389E-01
    8990.183     -6.887   0.600  2.32519E-01  5.80128E-01 -3.47609E-01
    8990.372     -6.698   0.640  2.33079E-01  5.97936E-01 -3.64857E-01
    8990.573     -6.497   0.680  2.31590E-01  6.14932E-01 -3.83341E-01
    8990.786     -6.284   0.720  2.29560E-01  6.31198E-01 -4.01638E-01
    8991.012     -6.058   0.760  2.28506E-01  6.46878E-01 -4.18372E-01
    8991.250     -5.820   0.800  2.29583E-01  6.62042E-01 -4.32459E-01
    8991.500     -5.570   0.840  2.33710E-01  6.76789E-01 -4.43079E-01
    8991.762     -5.308   0.880  2.41572E-01  6.91161E-01 -4.49590E-01
    8992.036     -5.034   0.920  2.53503E-01  7.05227E-01 -4.51724E-01
    8992.322     -4.747   0.960  2.69271E-01  7.19001E-01 -4.49730E-01
    8992.621     -4.449   1.000  2.87823E-01  7.32548E-01 -4.44725E-01
    8992.932     -4.138   1.040  3.07298E-01  7.45838E-01 -4.38540E-01
    8993.255     -3.815   1.080  3.26219E-01  7.58898E-01 -4.32678E-01
    8993.590     -3.480   1.120  3.44625E-01  7.71726E-01 -4.27101E-01
    8993.938     -3.132   1.160  3.64949E-01  7.84296E-01 -4.19347E-01
    8994.298     -2.772   1.200  3.92841E-01  7.96636E-01 -4.03794E-01
    8994.669     -2.401   1.240  4.34082E-01  8.08730E-01 -3.74647E-01
    8995.053     -2.016   1.280  4.90940E-01  8.20520E-01 -3.29580E-01
    8995.450     -1.620   1.320  5.61360E-01  8.32028E-01 -2.70668E-01
    8995.858     -1.212   1.360  6.40066E-01  8.43231E-01 -2.03165E-01
    8996.279     -0.791   1.400  7.23058E-01  8.54105E-01 -1.31047E-01
    8996.712     -0.358   1.440  8.11568E-01  8.64649E-01 -5.30818E-02
    8997.157      0.087   1.480  9.08674E-01  8.74819E-01  3.38550E-02
    8997.614      0.544   1.520  1.01791E+00  8.84633E-01  1.33274E-01
    8998.083      1.013   1.560  1.13001E+00  8.94066E-01  2.35942E-01
    8998.565      1.495   1.600  1.21081E+00  9.03096E-01  3.07717E-01
    8999.059      1.989   1.640  1.25184E+00  9.11720E-01  3.40123E-01
    8999.564      2.495   1.680  1.30261E+00  9.19916E-01  3.82690E-01
    9000.083      3.013   1.720  1.38741E+00  9.27726E-01  4.59679E-01
    9000.613      3.543   1.760  1.45780E+00  9.35108E-01  5.22694E-01
    9001.156      4.086   1.800  1.46674E+00  9.42064E-01  5.24678E-01
    9001.710      4.640   1.840  1.42278E+00  9.48595E-01  4.74185E-01
    9002.277      5.207   1.880  1.35924E+00  9.54725E-01  4.04520E-01
    9002.856      5.786   1.920  1.28980E+00  9.60436E-01  3.29362E-01
    9003.448      6.378   1.960  1.22046E+00  9.65752E-01  2.54712E-01
    9004.051      6.981   2.000  1.17185E+00  9.70660E-01  2.01190E-01
    9004.667      7.597   2.040  1.15472E+00  9.75183E-01  1.79539E-01
    9005.295      8.225   2.080  1.14822E+00  9.79348E-01  1.68875E-01
    9005.935      8.865   2.120  1.14319E+00  9.83120E-01  1.60071E-01
    9006.587      9.517   2.160  1.13698E+00  9.86549E-01  1.50429E-01
    9007.252     10.182   2.200  1.13061E+00  9.89640E-01  1.40974E-01
    9007.928     10.858   2.240  1.12692E+00  9.92421E-01  1.34503E-01
    9008.617     11.547   2.280  1.12534E+00  9.94881E-01  1.30462E-01
    9009.318     12.248   2.320  1.12156E+00  9.97026E-01  1.24532E-01
    9010.031     12.961   2.360  1.11399E+00  9.98925E-01  1.15069E-01
    9010.757     13.687   2.400  1.10741E+00  1.00053E+00  1.06887E-01
    9011.494     14.424   2.440  1.10747E+00  1.00190E+00  1.05572E-01
    9012.244     15.174   2.480  1.10956E+00  1.00305E+00  1.06509E-01
    9013.006     15.936   2.520  1.10098E+00  1.00398E+00  9.70013E-02
    9013.780     16.710   2.560  1.08255E+00  1.00471E+00  7.78332E-02
    9014.567     17.497   2.600  1.06035E+00  1.00525E+00  5.50974E-02
    9015.365     18.295   2.640  1.03790E+00  1.00563E+00  3.22689E-02
    9016.176     19.106   2.680  1.01641E+00  1.00586E+00  1.05475E-02
    9016.999     19.929   2.720  9.96967E-01  1.00594E+00 -8.97142E-03
    9017.834     20.764   2.760  9.79970E-01  1.00589E+00 -2.59186E-02
    9018.681     21.612   2.800  9.64942E-01  1.00572E+00 -4.07770E-02
    9019.541     22.471   2.840  9.51244E-01  1.00546E+00 -5.42149E-02
    9020.413     23.343   2.880  9.38259E-01  1.00511E+00 -6.68526E-02
    9021.297     24.227   2.920  9.25422E-01  1.00468E+00 -7.92620E-02
    9022.193     25.123   2.960  9.12806E-01  1.00420E+00 -9.13971E-02
    9023.101     26.031   3.000  9.01013E-01  1.00365E+00 -1.02638E-01
    9024.022     26.952   3.040  8.90432E-01  1.00308E+00 -1.12644E-01
    9024.954     27.884   3.080  8.81088E-01  1.00244E+00 -1.21354E-01
    9025.899     28.829   3.120  8.73312E-01  1.00179E+00 -1.28481E-01
    9026.856     29.786   3.160  8.67482E-01  1.00113E+00 -1.33653E-01
    9027.825     30.755   3.200  8.63973E-01  1.00045E+00 -1.36475E-01
    9028.807     31.737   3.240  8.63030E-01  9.99780E-01 -1.36750E-01
    9029.801     32.731   3.280  8.64347E-01  9.99091E-01 -1.34745E-01
    9030.806     33.736   3.320  8.67460E-01  9.98429E-01 -1.30969E-01
    9031.824     34.754   3.360  8.72124E-01  9.97792E-01 -1.25668E-01
    9032.855     35.785   3.400  8.78511E-01  9.97142E-01 -1.18632E-01
    9033.897     36.827   3.440  8.86847E-01  9.96546E-01 -1.09699E-01
    9034.952     37.882   3.480  8.97281E-01  9.95964E-01 -9.86826E-02
    9036.018     38.948   3.520  9.09722E-01  9.95415E-01 -8.56928E-02
    9037.097     40.027   3.560  9.23601E-01  9.94904E-01 -7.13030E-02
    9038.189     41.119   3.600  9.38126E-01  9.94432E-01 -5.63060E-02
    9039.292     42.222   3.640  9.52679E-01  9.93999E-01 -4.13205E-02
    9040.408     43.338   3.680  9.66735E-01  9.93608E-01 -2.68726E-02
    9041.535     44.465   3.720  9.79864E-01  9.93258E-01 -1.33942E-02
    9042.675     45.605   3.760  9.91863E-01  9.92971E-01 -1.10752E-03
    9043.827     46.757   3.800  1.00260E+00  9.92705E-01  9.89859E-03
    9044.992     47.922   3.840  1.01201E+00  9.92504E-01  1.95102E-02
    9046.168     49.098   3.880  1.01986E+00  9.92345E-01  2.75173E-02
    9047.357     50.287   3.920  1.02595E+00  9.92229E-01  3.37188E-02
    9048.558     51.488   3.960  1.03017E+00  9.92155E-01  3.80159E-02
    9049.771     52.701   4.000  1.03282E+00  9.92146E-01  4.06728E-02
    9050.996     53.926   4.040  1.03446E+00  9.92158E-01  4.23034E-02
    9052.234     55.164   4.080  1.03570E+00  9.92232E-01  4.34692E-02
    9053.483     56.413   4.120  1.03684E+00  9.92348E-01  4.44886E-02
    9054.745     57.675   4.160  1.03799E+00  9.92502E-01  4.54900E-02
    9056.019     58.949   4.200  1.03915E+00  9.92675E-01  4.64742E-02
    9057.306     60.236   4.240  1.04021E+00  9.92907E-01  4.73081E-02
    9058.604     61.534   4.280  1.04099E+00  9.93176E-01  4.78143E-02
    9059.915     62.845   4.320  1.04140E+00  9.93459E-01  4.79394E-02
    9061.237     64.168   4.360  1.04145E+00  9.93777E-01  4.76776E-02
    9062.572     65.503   4.400  1.04119E+00  9.94128E-01  4.70621E-02
    9063.920     66.850   4.440  1.04066E+00  9.94490E-01  4.61682E-02
    9065.279     68.209   4.480  1.04006E+00  9.94885E-01  4.51760E-02
    9066.651     69.581   4.520  1.03979E+00  9.95311E-01  4.44800E-02
    9068.034     70.965   4.560  1.04040E+00  9.95744E-01  4.46613E-02
    9069.430     72.360   4.600  1.04235E+00  9.96181E-01  4.61690E-02
    9070.839     73.769   4.640  1.04551E+00  9.96644E-01  4.88622E-02
    9072.259     75.189   4.680  1.04901E+00  9.97111E-01  5.18963E-02
    9073.692     76.622   4.720  1.05156E+00  9.97555E-01  5.40004E-02
    9075.136     78.066   4.760  1.05199E+00  9.98021E-01  5.39713E-02
    9076.593     79.523   4.800  1.04958E+00  9.98488E-01  5.10944E-02
    9078.062     80.992   4.840  1.04426E+00  9.98952E-01  4.53079E-02
    9079.544     82.474   4.880  1.03661E+00  9.99412E-01  3.72012E-02
    9081.037     83.967   4.920  1.02773E+00  9.99844E-01  2.78841E-02
    9082.543     85.473   4.960  1.01883E+00  1.00027E+00  1.85582E-02
    9084.061     86.991   5.000  1.01074E+00  1.00069E+00  1.00521E-02
    9085.591     88.521   5.040  1.00360E+00  1.00107E+00  2.52515E-03
    9087.133     90.063   5.080  9.97075E-01  1.00145E+00 -4.37511E-03
    9088.688     91.618   5.120  9.90700E-01  1.00180E+00 -1.10955E-02
    9090.254     93.184   5.160  9.84247E-01  1.00213E+00 -1.78811E-02
    9091.833     94.763   5.200  9.77710E-01  1.00242E+00 -2.47144E-02
    9093.424     96.354   5.240  9.71312E-01  1.00268E+00 -3.13721E-02
    9095.027     97.957   5.280  9.65430E-01  1.00291E+00 -3.74767E-02
    9096.643     99.573   5.320  9.60530E-01  1.00312E+00 -4.25850E-02
    9098.271    101.201   5.360  9.56995E-01  1.00329E+00 -4.62913E-02
    9099.910    102.840   5.400  9.55156E-01  1.00342E+00 -4.82628E-02
    9101.562    104.492   5.440  9.55240E-01  1.00351E+00 -4.82721E-02
    9103.227    106.157   5.480  9.57186E-01  1.00357E+00 -4.63818E-02
    9104.903    107.833   5.520  9.60497E-01  1.00361E+00 -4.31104E-02
    9106.592    109.522   5.560  9.64214E-01  1.00359E+00 -3.93725E-02
    9108.292    111.222   5.600  9.67400E-01  1.00355E+00 -3.61468E-02
    9110.005    112.935   5.640  9.69343E-01  1.00347E+00 -3.41246E-02
    9111.730    114.660   5.680  9.69913E-01  1.00333E+00 -3.34145E-02
    9113.468    116.398   5.720  9.69653E-01  1.00317E+00 -3.35171E-02
    9115.217    118.147   5.760  9.69400E-01  1.00297E+00 -3.35749E-02
    9116.979    119.909   5.800  9.69928E-01  1.00274E+00 -3.28142E-02
    9118.753    121.683   5.840  9.71620E-01  1.00247E+00 -3.08555E-02
    9120.539    123.469   5.880  9.74475E-01  1.00220E+00 -2.77205E-02
    9122.337    125.267   5.920  9.78206E-01  1.00186E+00 -2.36511E-02
    9124.148    127.078   5.960  9.82543E-01  1.00151E+00 -1.89663E-02
    9125.971    128.901   6.000  9.87173E-01  1.00108E+00 -1.39032E-02
