# # comment:                                                     FEFF 9.9.1  
# # Source:
# # Structure
# # Reduced
# # space
# # abc:
# # angles:106.217321
# # sites:
# # POT  SCF 100  7.0000   0, screened core-hole, AFOLP (folp(0)= 1.150)
# # Abs   Z=29 Rmt= 1.273 Rnm= 1.351 K  shell
# # Pot 1 Z=23 Rmt= 1.103 Rnm= 1.320
# # Pot 2 Z=29 Rmt= 1.241 Rnm= 1.322
# # Pot 3 Z= 8 Rmt= 0.999 Rnm= 1.107
# # Gam_ch=1.729E+00 H-L exch Vi= 0.000E+00 Vr= 0.000E+00
# # Mu=-8.888E+00eV kf=2.209E+00 Vint=-1.692E+01eV Rs_int= 1.641
# FMS rfms= 9.0000
# # PATH  Rmax=-1.000,  Keep_limit= 0.00, Heap_limit 0.00  Pwcrit= 2.50%
#  S02=0.950  Temp=   0.00  Debye_temp=   0.00  Global_sig2= 0.00000
#  Energy zero shift, vr, vi    0.00000E+00   0.00000E+00
#  Curved wave amplitude ratio filter   4.000%
#     file         sig2 tot  cw amp ratio   deg  nlegs   reff  inp sig2
#     0/   0 paths used
#  xsedge+ 50, used to normalize mu           2.4767E-04
#  -----------------------------------------------------------------------
#  omega    e    k    mu    mu0     chi     @#
    8983.913    -12.698  -1.000  3.51569E-02  4.94442E-02 -1.42873E-02
    8984.211    -12.399  -0.960  3.68846E-02  5.29067E-02 -1.60221E-02
    8984.498    -12.113  -0.920  3.87323E-02  5.67437E-02 -1.80114E-02
    8984.772    -11.838  -0.880  4.07119E-02  6.10095E-02 -2.02975E-02
    8985.034    -11.576  -0.840  4.28366E-02  6.57671E-02 -2.29305E-02
    8985.284    -11.326  -0.800  4.51207E-02  7.10896E-02 -2.59689E-02
    8985.522    -11.089  -0.760  4.75800E-02  7.70606E-02 -2.94806E-02
    8985.748    -10.863  -0.720  5.02314E-02  8.37746E-02 -3.35432E-02
    8985.961    -10.650  -0.680  5.30921E-02  9.13352E-02 -3.82431E-02
    8986.162    -10.449  -0.640  5.61789E-02  9.98519E-02 -4.36730E-02
    8986.351    -10.260  -0.600  5.95067E-02  1.09432E-01 -4.99252E-02
    8986.528    -10.083  -0.560  6.30856E-02  1.20166E-01 -5.70805E-02
    8986.693     -9.918  -0.520  6.69180E-02  1.32108E-01 -6.51904E-02
    8986.845     -9.766  -0.480  7.09932E-02  1.45245E-01 -7.42515E-02
    8986.985     -9.626  -0.440  7.52829E-02  1.59460E-01 -8.41776E-02
    8987.113     -9.498  -0.400  7.97361E-02  1.74510E-01 -9.47744E-02
    8987.229     -9.382  -0.360  8.42765E-02  1.90010E-01 -1.05734E-01
    8987.333     -9.278  -0.320  8.88041E-02  2.05461E-01 -1.16657E-01
    8987.424     -9.187  -0.280  9.32006E-02  2.20308E-01 -1.27107E-01
    8987.503     -9.107  -0.240  9.73393E-02  2.34016E-01 -1.36676E-01
    8987.570     -9.040  -0.200  1.01094E-01  2.46136E-01 -1.45042E-01
    8987.625     -8.986  -0.160  1.04349E-01  2.56338E-01 -1.51988E-01
    8987.668     -8.943  -0.120  1.07003E-01  2.64407E-01 -1.57404E-01
    8987.698     -8.912  -0.080  1.08975E-01  2.70224E-01 -1.61249E-01
    8987.723     -8.888   0.000  1.10630E-01  2.74900E-01 -1.64270E-01
    8987.778     -8.833   0.120  1.14384E-01  2.85445E-01 -1.71061E-01
    8987.820     -8.791   0.160  1.17344E-01  2.93647E-01 -1.76303E-01
    8987.875     -8.736   0.200  1.21263E-01  3.04138E-01 -1.82874E-01
    8987.942     -8.669   0.240  1.26232E-01  3.16786E-01 -1.90554E-01
    8988.021     -8.589   0.280  1.32314E-01  3.31339E-01 -1.99025E-01
    8988.113     -8.498   0.320  1.39648E-01  3.47465E-01 -2.07818E-01
    8988.217     -8.394   0.360  1.48270E-01  3.64711E-01 -2.16442E-01
    8988.332     -8.278   0.400  1.58188E-01  3.82615E-01 -2.24427E-01
    8988.460     -8.150   0.440  1.69268E-01  4.00751E-01 -2.31482E-01
    8988.601     -8.010   0.480  1.81138E-01  4.18771E-01 -2.37633E-01
    8988.753     -7.858   0.520  1.93357E-01  4.36469E-01 -2.43112E-01
    8988.918     -7.693   0.560  2.05422E-01  4.53729E-01 -2.48308E-01
    8989.094     -7.516   0.600  2.17058E-01  4.70564E-01 -2.53506E-01
    8989.283     -7.327   0.640  2.27978E-01  4.86980E-01 -2.59002E-01
    8989.484     -7.126   0.680  2.37654E-01  5.03077E-01 -2.65423E-01
    8989.698     -6.913   0.720  2.45114E-01  5.18901E-01 -2.73787E-01
    8989.923     -6.687   0.760  2.49790E-01  5.34519E-01 -2.84729E-01
    8990.161     -6.450   0.800  2.52381E-01  5.50032E-01 -2.97651E-01
    8990.411     -6.200   0.840  2.54960E-01  5.65465E-01 -3.10505E-01
    8990.673     -5.938   0.880  2.60493E-01  5.80855E-01 -3.20362E-01
    8990.948     -5.663   0.920  2.71135E-01  5.96225E-01 -3.25090E-01
    8991.234     -5.377   0.960  2.86847E-01  6.11609E-01 -3.24761E-01
    8991.533     -5.078   1.000  3.06454E-01  6.27012E-01 -3.20558E-01
    8991.844     -4.767   1.040  3.30461E-01  6.42411E-01 -3.11950E-01
    8992.167     -4.444   1.080  3.61077E-01  6.57795E-01 -2.96719E-01
    8992.502     -4.109   1.120  4.00014E-01  6.73170E-01 -2.73156E-01
    8992.849     -3.761   1.160  4.45851E-01  6.88494E-01 -2.42643E-01
    8993.209     -3.402   1.200  4.93358E-01  7.03745E-01 -2.10387E-01
    8993.581     -3.030   1.240  5.39360E-01  7.18896E-01 -1.79535E-01
    8993.965     -2.646   1.280  5.88918E-01  7.33916E-01 -1.44998E-01
    8994.361     -2.250   1.320  6.50154E-01  7.48754E-01 -9.86004E-02
    8994.770     -1.841   1.360  7.23599E-01  7.63399E-01 -3.98009E-02
    8995.190     -1.420   1.400  7.94927E-01  7.77818E-01  1.71088E-02
    8995.623     -0.988   1.440  8.37455E-01  7.91956E-01  4.54989E-02
    8996.068     -0.543   1.480  8.41094E-01  8.05801E-01  3.52924E-02
    8996.525     -0.085   1.520  8.28649E-01  8.19299E-01  9.35006E-03
    8996.995      0.384   1.560  8.19978E-01  8.32457E-01 -1.24791E-02
    8997.476      0.866   1.600  8.15830E-01  8.45204E-01 -2.93745E-02
    8997.970      1.359   1.640  8.17630E-01  8.57548E-01 -3.99186E-02
    8998.476      1.865   1.680  8.32921E-01  8.69460E-01 -3.65395E-02
    8998.994      2.383   1.720  8.70535E-01  8.80890E-01 -1.03555E-02
    8999.525      2.914   1.760  9.35938E-01  8.91870E-01  4.40679E-02
    9000.067      3.456   1.800  1.03783E+00  9.02354E-01  1.35474E-01
    9000.622      4.011   1.840  1.18530E+00  9.12317E-01  2.72980E-01
    9001.189      4.578   1.880  1.36718E+00  9.21794E-01  4.45384E-01
    9001.768      5.157   1.920  1.54183E+00  9.30724E-01  6.11110E-01
    9002.359      5.748   1.960  1.64139E+00  9.39167E-01  7.02219E-01
    9002.963      6.352   2.000  1.62027E+00  9.47063E-01  6.73203E-01
    9003.578      6.968   2.040  1.51588E+00  9.54453E-01  5.61431E-01
    9004.206      7.595   2.080  1.39682E+00  9.61340E-01  4.35476E-01
    9004.846      8.236   2.120  1.29007E+00  9.67710E-01  3.22360E-01
    9005.499      8.888   2.160  1.18535E+00  9.73605E-01  2.11743E-01
    9006.163      9.552   2.200  1.07830E+00  9.78991E-01  9.93090E-02
    9006.840     10.229   2.240  9.86932E-01  9.83917E-01  3.01468E-03
    9007.529     10.918   2.280  9.23908E-01  9.88388E-01 -6.44803E-02
    9008.230     11.619   2.320  8.85841E-01  9.92413E-01 -1.06572E-01
    9008.943     12.332   2.360  8.69305E-01  9.96000E-01 -1.26695E-01
    9009.668     13.057   2.400  8.70144E-01  9.99199E-01 -1.29055E-01
    9010.406     13.795   2.440  8.81701E-01  1.00200E+00 -1.20299E-01
    9011.156     14.545   2.480  8.97404E-01  1.00443E+00 -1.07026E-01
    9011.918     15.307   2.520  9.10097E-01  1.00650E+00 -9.64045E-02
    9012.692     16.081   2.560  9.19387E-01  1.00824E+00 -8.88557E-02
    9013.478     16.867   2.600  9.38100E-01  1.00969E+00 -7.15859E-02
    9014.277     17.666   2.640  9.77783E-01  1.01084E+00 -3.30564E-02
    9015.088     18.477   2.680  1.01992E+00  1.01169E+00  8.22929E-03
    9015.911     19.300   2.720  1.05483E+00  1.01232E+00  4.25124E-02
    9016.746     20.135   2.760  1.07742E+00  1.01270E+00  6.47174E-02
    9017.593     20.982   2.800  1.08571E+00  1.01288E+00  7.28334E-02
    9018.453     21.842   2.840  1.07905E+00  1.01286E+00  6.61915E-02
    9019.324     22.713   2.880  1.05921E+00  1.01264E+00  4.65720E-02
    9020.208     23.597   2.920  1.03023E+00  1.01228E+00  1.79497E-02
    9021.104     24.494   2.960  9.97527E-01  1.01176E+00 -1.42357E-02
    9022.013     25.402   3.000  9.65925E-01  1.01112E+00 -4.51966E-02
    9022.933     26.322   3.040  9.38135E-01  1.01036E+00 -7.22268E-02
    9023.866     27.255   3.080  9.15503E-01  1.00951E+00 -9.40090E-02
    9024.811     28.200   3.120  8.98226E-01  1.00858E+00 -1.10352E-01
    9025.768     29.157   3.160  8.85952E-01  1.00757E+00 -1.21615E-01
    9026.737     30.126   3.200  8.78134E-01  1.00650E+00 -1.28371E-01
    9027.718     31.108   3.240  8.74662E-01  1.00540E+00 -1.30735E-01
    9028.712     32.101   3.280  8.75452E-01  1.00423E+00 -1.28778E-01
    9029.718     33.107   3.320  8.80765E-01  1.00305E+00 -1.22283E-01
    9030.736     34.125   3.360  8.90535E-01  1.00186E+00 -1.11323E-01
    9031.766     35.155   3.400  9.04011E-01  1.00067E+00 -9.66536E-02
    9032.809     36.198   3.440  9.19752E-01  9.99471E-01 -7.97189E-02
    9033.863     37.252   3.480  9.35940E-01  9.98279E-01 -6.23392E-02
    9034.930     38.319   3.520  9.50753E-01  9.97096E-01 -4.63426E-02
    9036.009     39.398   3.560  9.62983E-01  9.95942E-01 -3.29597E-02
    9037.100     40.489   3.600  9.72356E-01  9.94824E-01 -2.24675E-02
    9038.203     41.593   3.640  9.79250E-01  9.93742E-01 -1.44921E-02
    9039.319     42.708   3.680  9.84411E-01  9.92700E-01 -8.28911E-03
    9040.447     43.836   3.720  9.88646E-01  9.91700E-01 -3.05391E-03
    9041.587     44.976   3.760  9.92510E-01  9.90741E-01  1.76966E-03
    9042.739     46.128   3.800  9.96219E-01  9.89827E-01  6.39191E-03
    9043.903     47.292   3.840  9.99785E-01  9.88982E-01  1.08027E-02
    9045.080     48.469   3.880  1.00327E+00  9.88206E-01  1.50641E-02
    9046.268     49.658   3.920  1.00696E+00  9.87456E-01  1.95049E-02
    9047.469     50.859   3.960  1.01145E+00  9.86799E-01  2.46523E-02
    9048.682     52.072   4.000  1.01721E+00  9.86192E-01  3.10203E-02
    9049.908     53.297   4.040  1.02444E+00  9.85634E-01  3.88079E-02
    9051.145     54.534   4.080  1.03296E+00  9.85148E-01  4.78113E-02
    9052.395     55.784   4.120  1.04226E+00  9.84733E-01  5.75227E-02
    9053.657     57.046   4.160  1.05158E+00  9.84370E-01  6.72147E-02
    9054.931     58.320   4.200  1.05996E+00  9.84080E-01  7.58772E-02
    9056.217     59.606   4.240  1.06612E+00  9.83861E-01  8.22563E-02
    9057.516     60.905   4.280  1.06907E+00  9.83691E-01  8.53773E-02
    9058.826     62.215   4.320  1.06836E+00  9.83569E-01  8.47934E-02
    9060.149     63.538   4.360  1.06417E+00  9.83514E-01  8.06583E-02
    9061.484     64.873   4.400  1.05711E+00  9.83508E-01  7.36061E-02
    9062.831     66.220   4.440  1.04813E+00  9.83570E-01  6.45557E-02
    9064.191     67.580   4.480  1.03817E+00  9.83678E-01  5.44918E-02
    9065.562     68.951   4.520  1.02814E+00  9.83831E-01  4.43088E-02
    9066.946     70.335   4.560  1.01871E+00  9.84046E-01  3.46672E-02
    9068.342     71.731   4.600  1.01010E+00  9.84283E-01  2.58162E-02
    9069.750     73.139   4.640  1.00235E+00  9.84582E-01  1.77727E-02
    9071.171     74.560   4.680  9.95451E-01  9.84920E-01  1.05312E-02
    9072.603     75.992   4.720  9.89476E-01  9.85271E-01  4.20471E-03
    9074.048     77.437   4.760  9.84673E-01  9.85658E-01 -9.85666E-04
    9075.505     78.894   4.800  9.81107E-01  9.86082E-01 -4.97498E-03
    9076.974     80.363   4.840  9.78480E-01  9.86536E-01 -8.05685E-03
    9078.455     81.844   4.880  9.76168E-01  9.86999E-01 -1.08310E-02
    9079.949     83.338   4.920  9.73568E-01  9.87470E-01 -1.39021E-02
    9081.454     84.844   4.960  9.70428E-01  9.87968E-01 -1.75397E-02
    9082.972     86.362   5.000  9.66862E-01  9.88471E-01 -2.16089E-02
    9084.502     87.892   5.040  9.63191E-01  9.88998E-01 -2.58072E-02
    9086.045     89.434   5.080  9.59720E-01  9.89503E-01 -2.97832E-02
    9087.599     90.988   5.120  9.56772E-01  9.90006E-01 -3.32342E-02
    9089.166     92.555   5.160  9.54528E-01  9.90510E-01 -3.59816E-02
    9090.745     94.134   5.200  9.53085E-01  9.91031E-01 -3.79461E-02
    9092.336     95.725   5.240  9.52406E-01  9.91503E-01 -3.90962E-02
    9093.939     97.328   5.280  9.52623E-01  9.91988E-01 -3.93650E-02
    9095.554     98.944   5.320  9.53665E-01  9.92443E-01 -3.87782E-02
    9097.182    100.571   5.360  9.55336E-01  9.92866E-01 -3.75295E-02
    9098.822    102.211   5.400  9.57334E-01  9.93277E-01 -3.59425E-02
    9100.474    103.863   5.440  9.59394E-01  9.93655E-01 -3.42611E-02
    9102.138    105.527   5.480  9.61384E-01  9.94022E-01 -3.26378E-02
    9103.814    107.204   5.520  9.63102E-01  9.94352E-01 -3.12499E-02
    9105.503    108.892   5.560  9.64196E-01  9.94643E-01 -3.04472E-02
    9107.204    110.593   5.600  9.64260E-01  9.94895E-01 -3.06348E-02
    9108.917    112.306   5.640  9.63030E-01  9.95106E-01 -3.20762E-02
    9110.642    114.031   5.680  9.60673E-01  9.95277E-01 -3.46040E-02
    9112.379    115.769   5.720  9.57914E-01  9.95408E-01 -3.74941E-02
    9114.129    117.518   5.760  9.55860E-01  9.95499E-01 -3.96383E-02
    9115.891    119.280   5.800  9.55610E-01  9.95549E-01 -3.99390E-02
    9117.665    121.054   5.840  9.57970E-01  9.95559E-01 -3.75885E-02
    9119.451    122.840   5.880  9.63298E-01  9.95528E-01 -3.22291E-02
    9121.249    124.638   5.920  9.71398E-01  9.95455E-01 -2.40567E-02
    9123.059    126.449   5.960  9.81480E-01  9.95311E-01 -1.38309E-02
    9124.882    128.271   6.000  9.92791E-01  9.95127E-01 -2.33526E-03
