# # comment:                                                     FEFF 9.9.1  
# # Source:
# # Structure
# # Reduced
# # space
# # abc:
# # angles:
# # sites:
# # POT  SCF 100  7.0000   0, screened core-hole, AFOLP (folp(0)= 1.150)
# # Abs   Z=29 Rmt= 1.217 Rnm= 1.283 K  shell
# # Pot 1 Z=38 Rmt= 1.795 Rnm= 1.840
# # Pot 2 Z=29 Rmt= 1.213 Rnm= 1.294
# # Pot 3 Z= 8 Rmt= 1.036 Rnm= 1.091
# # Gam_ch=1.729E+00 H-L exch Vi= 0.000E+00 Vr= 0.000E+00
# # Mu=-9.304E+00eV kf=2.055E+00 Vint=-1.772E+01eV Rs_int= 1.765
# FMS rfms= 9.0000
# # PATH  Rmax=-1.000,  Keep_limit= 0.00, Heap_limit 0.00  Pwcrit= 2.50%
#  S02=0.950  Temp=   0.00  Debye_temp=   0.00  Global_sig2= 0.00000
#  Energy zero shift, vr, vi    0.00000E+00   0.00000E+00
#  Curved wave amplitude ratio filter   4.000%
#     file         sig2 tot  cw amp ratio   deg  nlegs   reff  inp sig2
#     0/   0 paths used
#  xsedge+ 50, used to normalize mu           2.4433E-04
#  -----------------------------------------------------------------------
#  omega    e    k    mu    mu0     chi     @#
    8985.075    -13.114  -1.000  3.63572E-02  5.60729E-02 -1.97157E-02
    8985.373    -12.815  -0.960  3.82960E-02  6.01849E-02 -2.18889E-02
    8985.660    -12.529  -0.920  4.04138E-02  6.47558E-02 -2.43420E-02
    8985.934    -12.254  -0.880  4.27380E-02  6.98531E-02 -2.71151E-02
    8986.196    -11.992  -0.840  4.53014E-02  7.55555E-02 -3.02541E-02
    8986.446    -11.742  -0.800  4.81427E-02  8.19539E-02 -3.38111E-02
    8986.684    -11.505  -0.760  5.13075E-02  8.91527E-02 -3.78452E-02
    8986.910    -11.279  -0.720  5.48483E-02  9.72701E-02 -4.24218E-02
    8987.123    -11.066  -0.680  5.88242E-02  1.06436E-01 -4.76117E-02
    8987.324    -10.865  -0.640  6.32988E-02  1.16787E-01 -5.34882E-02
    8987.513    -10.676  -0.600  6.83362E-02  1.28458E-01 -6.01221E-02
    8987.690    -10.499  -0.560  7.39924E-02  1.41564E-01 -6.75720E-02
    8987.854    -10.334  -0.520  8.03027E-02  1.56173E-01 -7.58708E-02
    8988.007    -10.182  -0.480  8.72636E-02  1.72270E-01 -8.50068E-02
    8988.147    -10.042  -0.440  9.48121E-02  1.89714E-01 -9.49018E-02
    8988.275     -9.914  -0.400  1.02808E-01  2.08201E-01 -1.05393E-01
    8988.391     -9.798  -0.360  1.11027E-01  2.27254E-01 -1.16227E-01
    8988.495     -9.694  -0.320  1.19182E-01  2.46254E-01 -1.27072E-01
    8988.586     -9.603  -0.280  1.26956E-01  2.64513E-01 -1.37557E-01
    8988.665     -9.523  -0.240  1.34055E-01  2.81369E-01 -1.47314E-01
    8988.732     -9.456  -0.200  1.40248E-01  2.96267E-01 -1.56019E-01
    8988.787     -9.402  -0.160  1.45386E-01  3.08801E-01 -1.63416E-01
    8988.830     -9.359  -0.120  1.49392E-01  3.18711E-01 -1.69319E-01
    8988.860     -9.328  -0.080  1.52246E-01  3.25851E-01 -1.73606E-01
    8988.885     -9.304   0.000  1.54523E-01  3.31589E-01 -1.77066E-01
    8988.940     -9.249   0.120  1.59580E-01  3.44527E-01 -1.84947E-01
    8988.982     -9.206   0.160  1.63388E-01  3.54575E-01 -1.91187E-01
    8989.037     -9.152   0.200  1.68114E-01  3.67427E-01 -1.99313E-01
    8989.104     -9.085   0.240  1.73535E-01  3.82871E-01 -2.09336E-01
    8989.183     -9.005   0.280  1.79383E-01  4.00624E-01 -2.21241E-01
    8989.275     -8.914   0.320  1.85307E-01  4.20220E-01 -2.34913E-01
    8989.378     -8.810   0.360  1.90973E-01  4.41125E-01 -2.50152E-01
    8989.494     -8.694   0.400  1.96027E-01  4.62685E-01 -2.66658E-01
    8989.622     -8.566   0.440  2.00380E-01  4.84402E-01 -2.84021E-01
    8989.762     -8.426   0.480  2.04030E-01  5.05816E-01 -3.01786E-01
    8989.915     -8.274   0.520  2.07078E-01  5.26660E-01 -3.19582E-01
    8990.079     -8.109   0.560  2.09481E-01  5.46788E-01 -3.37307E-01
    8990.256     -7.932   0.600  2.11100E-01  5.66187E-01 -3.55088E-01
    8990.445     -7.743   0.640  2.11701E-01  5.84852E-01 -3.73150E-01
    8990.646     -7.542   0.680  2.11327E-01  6.02917E-01 -3.91591E-01
    8990.860     -7.329   0.720  2.10247E-01  6.20430E-01 -4.10183E-01
    8991.085     -7.103   0.760  2.08817E-01  6.37475E-01 -4.28659E-01
    8991.323     -6.866   0.800  2.07407E-01  6.54150E-01 -4.46743E-01
    8991.573     -6.616   0.840  2.06552E-01  6.70517E-01 -4.63964E-01
    8991.835     -6.354   0.880  2.07005E-01  6.86582E-01 -4.79576E-01
    8992.109     -6.079   0.920  2.09975E-01  7.02421E-01 -4.92446E-01
    8992.396     -5.793   0.960  2.16790E-01  7.18014E-01 -5.01224E-01
    8992.695     -5.494   1.000  2.28882E-01  7.33393E-01 -5.04511E-01
    8993.006     -5.183   1.040  2.47331E-01  7.48518E-01 -5.01187E-01
    8993.329     -4.860   1.080  2.72647E-01  7.63424E-01 -4.90776E-01
    8993.664     -4.525   1.120  3.04099E-01  7.78058E-01 -4.73959E-01
    8994.011     -4.177   1.160  3.39337E-01  7.92423E-01 -4.53086E-01
    8994.371     -3.818   1.200  3.73472E-01  8.06478E-01 -4.33007E-01
    8994.743     -3.446   1.240  3.99475E-01  8.20202E-01 -4.20727E-01
    8995.127     -3.062   1.280  4.15736E-01  8.33566E-01 -4.17830E-01
    8995.523     -2.665   1.320  4.32432E-01  8.46525E-01 -4.14092E-01
    8995.932     -2.257   1.360  4.61314E-01  8.59090E-01 -3.97776E-01
    8996.352     -1.836   1.400  5.04682E-01  8.71216E-01 -3.66534E-01
    8996.785     -1.404   1.440  5.60855E-01  8.82875E-01 -3.22020E-01
    8997.230     -0.959   1.480  6.28334E-01  8.94060E-01 -2.65725E-01
    8997.687     -0.501   1.520  7.00134E-01  9.04744E-01 -2.04610E-01
    8998.157     -0.032   1.560  7.71953E-01  9.14905E-01 -1.42952E-01
    8998.638      0.450   1.600  8.62041E-01  9.24537E-01 -6.24960E-02
    8999.132      0.943   1.640  1.00170E+00  9.33661E-01  6.80397E-02
    8999.638      1.449   1.680  1.20645E+00  9.42234E-01  2.64212E-01
    9000.156      1.967   1.720  1.46866E+00  9.50256E-01  5.18405E-01
    9000.686      2.498   1.760  1.73701E+00  9.57751E-01  7.79257E-01
    9001.229      3.040   1.800  1.87682E+00  9.64701E-01  9.12119E-01
    9001.784      3.595   1.840  1.79881E+00  9.71131E-01  8.27678E-01
    9002.351      4.162   1.880  1.62903E+00  9.77027E-01  6.52004E-01
    9002.930      4.741   1.920  1.49299E+00  9.82435E-01  5.10555E-01
    9003.521      5.332   1.960  1.39960E+00  9.87345E-01  4.12259E-01
    9004.125      5.936   2.000  1.32878E+00  9.91764E-01  3.37011E-01
    9004.740      6.552   2.040  1.27158E+00  9.95743E-01  2.75838E-01
    9005.368      7.180   2.080  1.22506E+00  9.99271E-01  2.25792E-01
    9006.008      7.820   2.120  1.18134E+00  1.00240E+00  1.78941E-01
    9006.661      8.472   2.160  1.14108E+00  1.00510E+00  1.35977E-01
    9007.325      9.136   2.200  1.11241E+00  1.00744E+00  1.04971E-01
    9008.002      9.813   2.240  1.10103E+00  1.00942E+00  9.16190E-02
    9008.690     10.502   2.280  1.10330E+00  1.01106E+00  9.22402E-02
    9009.392     11.203   2.320  1.10567E+00  1.01239E+00  9.32792E-02
    9010.105     11.916   2.360  1.09822E+00  1.01344E+00  8.47815E-02
    9010.830     12.642   2.400  1.08189E+00  1.01421E+00  6.76865E-02
    9011.568     13.379   2.440  1.06032E+00  1.01472E+00  4.56011E-02
    9012.318     14.129   2.480  1.04399E+00  1.01504E+00  2.89447E-02
    9013.080     14.891   2.520  1.03906E+00  1.01514E+00  2.39272E-02
    9013.854     15.665   2.560  1.04399E+00  1.01505E+00  2.89451E-02
    9014.640     16.452   2.600  1.05406E+00  1.01478E+00  3.92853E-02
    9015.439     17.250   2.640  1.06233E+00  1.01439E+00  4.79386E-02
    9016.249     18.061   2.680  1.06130E+00  1.01385E+00  4.74496E-02
    9017.072     18.884   2.720  1.04614E+00  1.01321E+00  3.29271E-02
    9017.908     19.719   2.760  1.01727E+00  1.01246E+00  4.80941E-03
    9018.755     20.566   2.800  9.79333E-01  1.01163E+00 -3.22971E-02
    9019.614     21.426   2.840  9.38352E-01  1.01074E+00 -7.23911E-02
    9020.486     22.298   2.880  8.99949E-01  1.00981E+00 -1.09859E-01
    9021.370     23.181   2.920  8.67904E-01  1.00883E+00 -1.40927E-01
    9022.266     24.078   2.960  8.43768E-01  1.00782E+00 -1.64050E-01
    9023.175     24.986   3.000  8.28191E-01  1.00679E+00 -1.78603E-01
    9024.095     25.906   3.040  8.20619E-01  1.00574E+00 -1.85124E-01
    9025.028     26.839   3.080  8.20146E-01  1.00471E+00 -1.84569E-01
    9025.973     27.784   3.120  8.25528E-01  1.00369E+00 -1.78163E-01
    9026.930     28.741   3.160  8.35187E-01  1.00270E+00 -1.67508E-01
    9027.899     29.710   3.200  8.47679E-01  1.00171E+00 -1.54034E-01
    9028.880     30.692   3.240  8.62096E-01  1.00077E+00 -1.38671E-01
    9029.874     31.685   3.280  8.77766E-01  9.99881E-01 -1.22115E-01
    9030.880     32.691   3.320  8.93914E-01  9.99016E-01 -1.05102E-01
    9031.898     33.709   3.360  9.10307E-01  9.98215E-01 -8.79079E-02
    9032.928     34.739   3.400  9.26660E-01  9.97460E-01 -7.07997E-02
    9033.970     35.782   3.440  9.42323E-01  9.96752E-01 -5.44286E-02
    9035.025     36.836   3.480  9.56511E-01  9.96113E-01 -3.96023E-02
    9036.092     37.903   3.520  9.68791E-01  9.95526E-01 -2.67351E-02
    9037.171     38.982   3.560  9.79225E-01  9.95011E-01 -1.57862E-02
    9038.262     40.073   3.600  9.87983E-01  9.94572E-01 -6.58910E-03
    9039.365     41.177   3.640  9.95300E-01  9.94207E-01  1.09208E-03
    9040.481     42.292   3.680  1.00151E+00  9.93896E-01  7.60990E-03
    9041.609     43.420   3.720  1.00687E+00  9.93657E-01  1.32167E-02
    9042.749     44.560   3.760  1.01154E+00  9.93470E-01  1.80714E-02
    9043.901     45.712   3.800  1.01582E+00  9.93358E-01  2.24670E-02
    9045.065     46.877   3.840  1.02003E+00  9.93322E-01  2.67067E-02
    9046.242     48.053   3.880  1.02434E+00  9.93358E-01  3.09771E-02
    9047.430     49.242   3.920  1.02878E+00  9.93444E-01  3.53367E-02
    9048.631     50.443   3.960  1.03333E+00  9.93583E-01  3.97481E-02
    9049.844     51.656   4.000  1.03789E+00  9.93813E-01  4.40737E-02
    9051.070     52.881   4.040  1.04204E+00  9.94070E-01  4.79719E-02
    9052.307     54.119   4.080  1.04525E+00  9.94395E-01  5.08586E-02
    9053.557     55.368   4.120  1.04689E+00  9.94788E-01  5.21065E-02
    9054.819     56.630   4.160  1.04656E+00  9.95204E-01  5.13581E-02
    9056.093     57.904   4.200  1.04452E+00  9.95683E-01  4.88339E-02
    9057.379     59.190   4.240  1.04171E+00  9.96181E-01  4.55328E-02
    9058.677     60.489   4.280  1.03978E+00  9.96741E-01  4.30356E-02
    9059.988     61.799   4.320  1.04011E+00  9.97339E-01  4.27755E-02
    9061.311     63.122   4.360  1.04322E+00  9.97951E-01  4.52710E-02
    9062.646     64.457   4.400  1.04871E+00  9.98596E-01  5.01145E-02
    9063.993     65.805   4.440  1.05550E+00  9.99274E-01  5.62244E-02
    9065.353     67.164   4.480  1.06206E+00  9.99959E-01  6.20981E-02
    9066.724     68.536   4.520  1.06677E+00  1.00065E+00  6.61227E-02
    9068.108     69.919   4.560  1.06856E+00  1.00137E+00  6.71965E-02
    9069.504     71.315   4.600  1.06727E+00  1.00209E+00  6.51773E-02
    9070.912     72.723   4.640  1.06377E+00  1.00281E+00  6.09542E-02
    9072.332     74.144   4.680  1.05929E+00  1.00353E+00  5.57548E-02
    9073.765     75.576   4.720  1.05448E+00  1.00425E+00  5.02306E-02
    9075.210     77.021   4.760  1.04873E+00  1.00496E+00  4.37633E-02
    9076.667     78.478   4.800  1.04032E+00  1.00565E+00  3.46687E-02
    9078.136     79.947   4.840  1.02748E+00  1.00632E+00  2.11578E-02
    9079.617     81.429   4.880  1.00966E+00  1.00699E+00  2.67393E-03
    9081.111     82.922   4.920  9.88307E-01  1.00762E+00 -1.93151E-02
    9082.616     84.428   4.960  9.66485E-01  1.00822E+00 -4.17326E-02
    9084.134     85.946   5.000  9.47749E-01  1.00878E+00 -6.10271E-02
    9085.664     87.476   5.040  9.34909E-01  1.00932E+00 -7.44106E-02
    9087.207     89.018   5.080  9.29393E-01  1.00983E+00 -8.04323E-02
    9088.761     90.572   5.120  9.31291E-01  1.01029E+00 -7.89997E-02
    9090.328     92.139   5.160  9.39457E-01  1.01071E+00 -7.12563E-02
    9091.907     93.718   5.200  9.51901E-01  1.01109E+00 -5.91910E-02
    9093.498     95.309   5.240  9.66198E-01  1.01140E+00 -4.52058E-02
    9095.101     96.912   5.280  9.79975E-01  1.01169E+00 -3.17184E-02
    9096.716     98.528   5.320  9.91134E-01  1.01192E+00 -2.07834E-02
    9098.344    100.155   5.360  9.98420E-01  1.01210E+00 -1.36765E-02
    9099.984    101.795   5.400  1.00145E+00  1.01223E+00 -1.07808E-02
    9101.636    103.447   5.440  1.00054E+00  1.01232E+00 -1.17844E-02
    9103.300    105.111   5.480  9.96591E-01  1.01236E+00 -1.57739E-02
    9104.976    106.788   5.520  9.91187E-01  1.01234E+00 -2.11525E-02
    9106.665    108.476   5.560  9.86488E-01  1.01227E+00 -2.57782E-02
    9108.366    110.177   5.600  9.84575E-01  1.01212E+00 -2.75500E-02
    9110.079    111.890   5.640  9.86793E-01  1.01196E+00 -2.51681E-02
    9111.804    113.615   5.680  9.92973E-01  1.01173E+00 -1.87588E-02
    9113.541    115.353   5.720  1.00145E+00  1.01146E+00 -1.00116E-02
    9115.291    117.102   5.760  1.00942E+00  1.01114E+00 -1.71860E-03
    9117.053    118.864   5.800  1.01380E+00  1.01079E+00  3.01669E-03
    9118.826    120.638   5.840  1.01242E+00  1.01039E+00  2.02595E-03
    9120.613    122.424   5.880  1.00552E+00  1.00993E+00 -4.41474E-03
    9122.411    124.222   5.920  9.96429E-01  1.00946E+00 -1.30327E-02
    9124.221    126.033   5.960  9.89258E-01  1.00896E+00 -1.97025E-02
    9126.044    127.855   6.000  9.88339E-01  1.00839E+00 -2.00539E-02
