# # comment:                                                     FEFF 9.9.1  
# # Source:
# # Structure
# # Reduced
# # space
# # abc:
# # angles:
# # sites:
# # POT  SCF 100  7.0000   0, screened core-hole, AFOLP (folp(0)= 1.150)
# # Abs   Z=29 Rmt= 1.233 Rnm= 1.296 K  shell
# # Pot 1 Z= 3 Rmt= 1.288 Rnm= 1.339
# # Pot 2 Z=26 Rmt= 1.229 Rnm= 1.352
# # Pot 3 Z=29 Rmt= 1.233 Rnm= 1.296
# # Pot 4 Z= 8 Rmt= 1.075 Rnm= 1.125
# # Gam_ch=1.729E+00 H-L exch Vi= 0.000E+00 Vr= 0.000E+00
# # Mu=-9.404E+00eV kf=2.076E+00 Vint=-1.661E+01eV Rs_int= 1.747
# FMS rfms= 9.0000
# # PATH  Rmax=-1.000,  Keep_limit= 0.00, Heap_limit 0.00  Pwcrit= 2.50%
#  S02=0.950  Temp=   0.00  Debye_temp=   0.00  Global_sig2= 0.00000
#  Energy zero shift, vr, vi    0.00000E+00   0.00000E+00
#  Curved wave amplitude ratio filter   4.000%
#     file         sig2 tot  cw amp ratio   deg  nlegs   reff  inp sig2
#     0/   0 paths used
#  xsedge+ 50, used to normalize mu           2.4512E-04
#  -----------------------------------------------------------------------
#  omega    e    k    mu    mu0     chi     @#
    8984.370    -13.214  -1.000  2.79476E-02  5.09781E-02 -2.30305E-02
    8984.669    -12.915  -0.960  2.89564E-02  5.45616E-02 -2.56052E-02
    8984.955    -12.629  -0.920  3.00078E-02  5.85316E-02 -2.85239E-02
    8985.229    -12.354  -0.880  3.11051E-02  6.29439E-02 -3.18388E-02
    8985.492    -12.092  -0.840  3.22525E-02  6.78630E-02 -3.56105E-02
    8985.741    -11.842  -0.800  3.34548E-02  7.33637E-02 -3.99089E-02
    8985.979    -11.605  -0.760  3.47178E-02  7.95317E-02 -4.48139E-02
    8986.205    -11.379  -0.720  3.60482E-02  8.64635E-02 -5.04153E-02
    8986.418    -11.166  -0.680  3.74535E-02  9.42652E-02 -5.68117E-02
    8986.619    -10.965  -0.640  3.89416E-02  1.03048E-01 -6.41068E-02
    8986.808    -10.776  -0.600  4.05200E-02  1.12922E-01 -7.24023E-02
    8986.985    -10.599  -0.560  4.21945E-02  1.23980E-01 -8.17853E-02
    8987.150    -10.434  -0.520  4.39663E-02  1.36275E-01 -9.23087E-02
    8987.302    -10.282  -0.480  4.58291E-02  1.49793E-01 -1.03964E-01
    8987.442    -10.142  -0.440  4.77651E-02  1.64417E-01 -1.16652E-01
    8987.570    -10.014  -0.400  4.97421E-02  1.79895E-01 -1.30153E-01
    8987.686     -9.898  -0.360  5.17136E-02  1.95834E-01 -1.44120E-01
    8987.790     -9.794  -0.320  5.36227E-02  2.11723E-01 -1.58100E-01
    8987.881     -9.703  -0.280  5.54104E-02  2.26993E-01 -1.71583E-01
    8987.960     -9.624  -0.240  5.70247E-02  2.41096E-01 -1.84072E-01
    8988.027     -9.556  -0.200  5.84273E-02  2.53571E-01 -1.95144E-01
    8988.082     -9.502  -0.160  5.95944E-02  2.64076E-01 -2.04481E-01
    8988.125     -9.459  -0.120  6.05130E-02  2.72389E-01 -2.11876E-01
    8988.156     -9.428  -0.080  6.11769E-02  2.78384E-01 -2.17208E-01
    8988.180     -9.404   0.000  6.17232E-02  2.83207E-01 -2.21484E-01
    8988.235     -9.349   0.120  6.30439E-02  2.94089E-01 -2.31045E-01
    8988.277     -9.307   0.160  6.39838E-02  3.02544E-01 -2.38560E-01
    8988.332     -9.252   0.200  6.51672E-02  3.13386E-01 -2.48219E-01
    8988.399     -9.185   0.240  6.65645E-02  3.26470E-01 -2.59905E-01
    8988.479     -9.105   0.280  6.81113E-02  3.41541E-01 -2.73430E-01
    8988.570     -9.014   0.320  6.97837E-02  3.58255E-01 -2.88471E-01
    8988.674     -8.910   0.360  7.15801E-02  3.76196E-01 -3.04616E-01
    8988.789     -8.794   0.400  7.34472E-02  3.94859E-01 -3.21412E-01
    8988.917     -8.666   0.440  7.54518E-02  4.13839E-01 -3.38387E-01
    8989.058     -8.526   0.480  7.75853E-02  4.32786E-01 -3.55200E-01
    8989.210     -8.374   0.520  7.98735E-02  4.51489E-01 -3.71615E-01
    8989.375     -8.209   0.560  8.23109E-02  4.69810E-01 -3.87499E-01
    8989.551     -8.032   0.600  8.49108E-02  4.87780E-01 -4.02870E-01
    8989.740     -7.843   0.640  8.76132E-02  5.05362E-01 -4.17749E-01
    8989.942     -7.642   0.680  9.04772E-02  5.22671E-01 -4.32194E-01
    8990.155     -7.429   0.720  9.35315E-02  5.39751E-01 -4.46220E-01
    8990.381     -7.203   0.760  9.68473E-02  5.56664E-01 -4.59817E-01
    8990.618     -6.966   0.800  1.00648E-01  5.73462E-01 -4.72814E-01
    8990.868     -6.716   0.840  1.05196E-01  5.90187E-01 -4.84992E-01
    8991.130     -6.454   0.880  1.10787E-01  6.06870E-01 -4.96082E-01
    8991.405     -6.179   0.920  1.17752E-01  6.23526E-01 -5.05774E-01
    8991.691     -5.893   0.960  1.26444E-01  6.40142E-01 -5.13698E-01
    8991.990     -5.594   1.000  1.37308E-01  6.56738E-01 -5.19431E-01
    8992.301     -5.283   1.040  1.50848E-01  6.73262E-01 -5.22414E-01
    8992.624     -4.960   1.080  1.68093E-01  6.89716E-01 -5.21622E-01
    8992.959     -4.625   1.120  1.91012E-01  7.06059E-01 -5.15048E-01
    8993.307     -4.277   1.160  2.22594E-01  7.22265E-01 -4.99671E-01
    8993.666     -3.918   1.200  2.64823E-01  7.38283E-01 -4.73460E-01
    8994.038     -3.546   1.240  3.13475E-01  7.54081E-01 -4.40606E-01
    8994.422     -3.162   1.280  3.56754E-01  7.69603E-01 -4.12849E-01
    8994.818     -2.766   1.320  3.88547E-01  7.84838E-01 -3.96291E-01
    8995.227     -2.357   1.360  4.15192E-01  7.99729E-01 -3.84537E-01
    8995.647     -1.936   1.400  4.45047E-01  8.14238E-01 -3.69191E-01
    8996.080     -1.504   1.440  4.82448E-01  8.28333E-01 -3.45885E-01
    8996.525     -1.059   1.480  5.25884E-01  8.42000E-01 -3.16116E-01
    8996.982     -0.601   1.520  5.71148E-01  8.55164E-01 -2.84016E-01
    8997.452     -0.132   1.560  6.21497E-01  8.67835E-01 -2.46338E-01
    8997.933      0.350   1.600  6.91965E-01  8.79962E-01 -1.87996E-01
    8998.427      0.843   1.640  7.89058E-01  8.91557E-01 -1.02499E-01
    8998.933      1.349   1.680  8.89427E-01  9.02594E-01 -1.31671E-02
    8999.451      1.867   1.720  9.91213E-01  9.13026E-01  7.81876E-02
    8999.982      2.398   1.760  1.12781E+00  9.22892E-01  2.04916E-01
    9000.524      2.940   1.800  1.30680E+00  9.32170E-01  3.74628E-01
    9001.079      3.495   1.840  1.51061E+00  9.40862E-01  5.69743E-01
    9001.646      4.062   1.880  1.68345E+00  9.48970E-01  7.34483E-01
    9002.225      4.641   1.920  1.77173E+00  9.56495E-01  8.15234E-01
    9002.816      5.232   1.960  1.79690E+00  9.63445E-01  8.33454E-01
    9003.420      5.836   2.000  1.81182E+00  9.69847E-01  8.41978E-01
    9004.036      6.452   2.040  1.82469E+00  9.75705E-01  8.48989E-01
    9004.663      7.079   2.080  1.80518E+00  9.81031E-01  8.24153E-01
    9005.303      7.720   2.120  1.69950E+00  9.85854E-01  7.13648E-01
    9005.956      8.372   2.160  1.50332E+00  9.90184E-01  5.13132E-01
    9006.620      9.036   2.200  1.30109E+00  9.94031E-01  3.07061E-01
    9007.297      9.713   2.240  1.15168E+00  9.97448E-01  1.54236E-01
    9007.986     10.402   2.280  1.05123E+00  1.00045E+00  5.07826E-02
    9008.687     11.103   2.320  9.80435E-01  1.00304E+00 -2.26043E-02
    9009.400     11.816   2.360  9.29249E-01  1.00526E+00 -7.60065E-02
    9010.125     12.541   2.400  8.95170E-01  1.00711E+00 -1.11941E-01
    9010.863     13.279   2.440  8.76207E-01  1.00863E+00 -1.32428E-01
    9011.613     14.029   2.480  8.69975E-01  1.00986E+00 -1.39889E-01
    9012.375     14.791   2.520  8.81287E-01  1.01083E+00 -1.29540E-01
    9013.149     15.565   2.560  9.02990E-01  1.01151E+00 -1.08525E-01
    9013.935     16.351   2.600  9.30684E-01  1.01196E+00 -8.12765E-02
    9014.734     17.150   2.640  9.59282E-01  1.01219E+00 -5.29121E-02
    9015.545     17.961   2.680  9.84338E-01  1.01223E+00 -2.78877E-02
    9016.368     18.784   2.720  1.00244E+00  1.01209E+00 -9.65061E-03
    9017.203     19.619   2.760  1.01173E+00  1.01181E+00 -7.48908E-05
    9018.050     20.466   2.800  1.01099E+00  1.01138E+00 -3.94960E-04
    9018.910     21.326   2.840  1.00007E+00  1.01083E+00 -1.07616E-02
    9019.781     22.197   2.880  9.79480E-01  1.01018E+00 -3.07036E-02
    9020.665     23.081   2.920  9.50725E-01  1.00945E+00 -5.87287E-02
    9021.561     23.978   2.960  9.17336E-01  1.00864E+00 -9.13072E-02
    9022.470     24.886   3.000  8.83740E-01  1.00778E+00 -1.24043E-01
    9023.390     25.806   3.040  8.53486E-01  1.00686E+00 -1.53370E-01
    9024.323     26.739   3.080  8.29126E-01  1.00591E+00 -1.76786E-01
    9025.268     27.684   3.120  8.11638E-01  1.00494E+00 -1.93297E-01
    9026.225     28.641   3.160  8.01185E-01  1.00395E+00 -2.02766E-01
    9027.194     29.610   3.200  7.97873E-01  1.00297E+00 -2.05093E-01
    9028.176     30.592   3.240  8.01691E-01  1.00200E+00 -2.00312E-01
    9029.169     31.585   3.280  8.11872E-01  1.00103E+00 -1.89156E-01
    9030.175     32.591   3.320  8.27503E-01  1.00010E+00 -1.72600E-01
    9031.193     33.609   3.360  8.46572E-01  9.99192E-01 -1.52619E-01
    9032.223     34.639   3.400  8.65814E-01  9.98315E-01 -1.32501E-01
    9033.266     35.682   3.440  8.82168E-01  9.97457E-01 -1.15289E-01
    9034.320     36.736   3.480  8.94160E-01  9.96684E-01 -1.02525E-01
    9035.387     37.803   3.520  9.02209E-01  9.95935E-01 -9.37256E-02
    9036.466     38.882   3.560  9.08207E-01  9.95251E-01 -8.70443E-02
    9037.557     39.973   3.600  9.14681E-01  9.94615E-01 -7.99341E-02
    9038.661     41.077   3.640  9.23819E-01  9.94026E-01 -7.02073E-02
    9039.776     42.192   3.680  9.37050E-01  9.93508E-01 -5.64579E-02
    9040.904     43.320   3.720  9.54996E-01  9.93063E-01 -3.80663E-02
    9042.044     44.460   3.760  9.77405E-01  9.92667E-01 -1.52626E-02
    9043.196     45.612   3.800  1.00311E+00  9.92344E-01  1.07649E-02
    9044.360     46.776   3.840  1.03012E+00  9.92074E-01  3.80503E-02
    9045.537     47.953   3.880  1.05653E+00  9.91875E-01  6.46559E-02
    9046.726     49.142   3.920  1.08133E+00  9.91749E-01  8.95818E-02
    9047.927     50.343   3.960  1.10463E+00  9.91674E-01  1.12959E-01
    9049.140     51.556   4.000  1.12723E+00  9.91669E-01  1.35565E-01
    9050.365     52.781   4.040  1.14898E+00  9.91715E-01  1.57263E-01
    9051.602     54.018   4.080  1.16826E+00  9.91830E-01  1.76426E-01
    9052.852     55.268   4.120  1.18249E+00  9.91992E-01  1.90501E-01
    9054.114     56.530   4.160  1.18920E+00  9.92201E-01  1.97002E-01
    9055.388     57.804   4.200  1.18669E+00  9.92475E-01  1.94210E-01
    9056.674     59.090   4.240  1.17444E+00  9.92795E-01  1.81640E-01
    9057.973     60.389   4.280  1.15402E+00  9.93156E-01  1.60864E-01
    9059.283     61.699   4.320  1.12867E+00  9.93559E-01  1.35109E-01
    9060.606     63.022   4.360  1.10237E+00  9.94001E-01  1.08364E-01
    9061.941     64.357   4.400  1.07842E+00  9.94482E-01  8.39384E-02
    9063.288     65.704   4.440  1.05858E+00  9.95000E-01  6.35833E-02
    9064.648     67.064   4.480  1.04292E+00  9.95553E-01  4.73673E-02
    9066.019     68.435   4.520  1.03021E+00  9.96118E-01  3.40910E-02
    9067.403     69.819   4.560  1.01867E+00  9.96715E-01  2.19578E-02
    9068.799     71.215   4.600  1.00668E+00  9.97341E-01  9.33677E-03
    9070.207     72.623   4.640  9.93300E-01  9.97950E-01 -4.65014E-03
    9071.628     74.044   4.680  9.78597E-01  9.98584E-01 -1.99866E-02
    9073.060     75.476   4.720  9.63233E-01  9.99221E-01 -3.59872E-02
    9074.505     76.921   4.760  9.48344E-01  9.99861E-01 -5.15164E-02
    9075.962     78.378   4.800  9.35168E-01  1.00052E+00 -6.53533E-02
    9077.431     79.847   4.840  9.24583E-01  1.00116E+00 -7.65739E-02
    9078.912     81.328   4.880  9.17170E-01  1.00179E+00 -8.46161E-02
    9080.406     82.822   4.920  9.13205E-01  1.00239E+00 -8.91815E-02
    9081.912     84.328   4.960  9.12848E-01  1.00298E+00 -9.01307E-02
    9083.429     85.846   5.000  9.16095E-01  1.00356E+00 -8.74663E-02
    9084.960     87.376   5.040  9.22684E-01  1.00411E+00 -8.14302E-02
    9086.502     88.918   5.080  9.32102E-01  1.00465E+00 -7.25520E-02
    9088.056     90.472   5.120  9.43340E-01  1.00516E+00 -6.18184E-02
    9089.623     92.039   5.160  9.55178E-01  1.00563E+00 -5.04476E-02
    9091.202     93.618   5.200  9.66670E-01  1.00605E+00 -3.93831E-02
    9092.793     95.209   5.240  9.77360E-01  1.00646E+00 -2.91043E-02
    9094.396     96.812   5.280  9.86920E-01  1.00681E+00 -1.98947E-02
    9096.012     98.428   5.320  9.94728E-01  1.00714E+00 -1.24162E-02
    9097.639    100.055   5.360  9.99885E-01  1.00741E+00 -7.52662E-03
    9099.279    101.695   5.400  1.00218E+00  1.00766E+00 -5.47961E-03
    9100.931    103.347   5.440  1.00256E+00  1.00784E+00 -5.28104E-03
    9102.595    105.011   5.480  1.00281E+00  1.00797E+00 -5.16037E-03
    9104.272    106.688   5.520  1.00450E+00  1.00807E+00 -3.56957E-03
    9105.960    108.376   5.560  1.00804E+00  1.00812E+00 -7.93386E-05
    9107.661    110.077   5.600  1.01257E+00  1.00812E+00  4.44866E-03
    9109.374    111.790   5.640  1.01638E+00  1.00806E+00  8.31948E-03
    9111.099    113.515   5.680  1.01759E+00  1.00798E+00  9.60841E-03
    9112.836    115.253   5.720  1.01444E+00  1.00783E+00  6.61198E-03
    9114.586    117.002   5.760  1.00606E+00  1.00764E+00 -1.58438E-03
    9116.348    118.764   5.800  9.92790E-01  1.00741E+00 -1.46208E-02
    9118.122    120.538   5.840  9.76275E-01  1.00714E+00 -3.08642E-02
    9119.908    122.324   5.880  9.59039E-01  1.00683E+00 -4.77883E-02
    9121.706    124.122   5.920  9.44143E-01  1.00645E+00 -6.23094E-02
    9123.517    125.933   5.960  9.34902E-01  1.00607E+00 -7.11630E-02
    9125.339    127.755   6.000  9.34571E-01  1.00561E+00 -7.10441E-02
