# # comment:                                                     FEFF 9.9.1  
# # Source:
# # Structure
# # Reduced
# # space
# # abc:
# # angles:
# # sites:
# # POT  SCF 100  7.0000   0, screened core-hole, AFOLP (folp(0)= 1.150)
# # Abs   Z=29 Rmt= 1.278 Rnm= 1.336 K  shell
# # Pot 1 Z=25 Rmt= 1.305 Rnm= 1.410
# # Pot 2 Z=29 Rmt= 1.282 Rnm= 1.356
# # Pot 3 Z= 8 Rmt= 1.025 Rnm= 1.099
# # Gam_ch=1.729E+00 H-L exch Vi= 0.000E+00 Vr= 0.000E+00
# # Mu=-1.065E+01eV kf=2.170E+00 Vint=-1.805E+01eV Rs_int= 1.671
# FMS rfms= 9.0000
# # PATH  Rmax=-1.000,  Keep_limit= 0.00, Heap_limit 0.00  Pwcrit= 2.50%
#  S02=0.950  Temp=   0.00  Debye_temp=   0.00  Global_sig2= 0.00000
#  Energy zero shift, vr, vi    0.00000E+00   0.00000E+00
#  Curved wave amplitude ratio filter   4.000%
#     file         sig2 tot  cw amp ratio   deg  nlegs   reff  inp sig2
#     0/   0 paths used
#  xsedge+ 50, used to normalize mu           2.4836E-04
#  -----------------------------------------------------------------------
#  omega    e    k    mu    mu0     chi     @#
    8984.667    -14.459  -1.000  3.10830E-02  4.71064E-02 -1.60234E-02
    8984.965    -14.160  -0.960  3.24320E-02  5.03300E-02 -1.78980E-02
    8985.252    -13.874  -0.920  3.38653E-02  5.38958E-02 -2.00305E-02
    8985.526    -13.599  -0.880  3.53927E-02  5.78529E-02 -2.24601E-02
    8985.788    -13.337  -0.840  3.70255E-02  6.22581E-02 -2.52327E-02
    8986.038    -13.087  -0.800  3.87769E-02  6.71775E-02 -2.84006E-02
    8986.276    -12.849  -0.760  4.06625E-02  7.26862E-02 -3.20238E-02
    8986.501    -12.624  -0.720  4.27000E-02  7.88693E-02 -3.61693E-02
    8986.715    -12.411  -0.680  4.49094E-02  8.58201E-02 -4.09108E-02
    8986.916    -12.209  -0.640  4.73117E-02  9.36369E-02 -4.63252E-02
    8987.105    -12.020  -0.600  4.99278E-02  1.02416E-01 -5.24878E-02
    8987.282    -11.844  -0.560  5.27750E-02  1.12238E-01 -5.94628E-02
    8987.446    -11.679  -0.520  5.58625E-02  1.23151E-01 -6.72883E-02
    8987.599    -11.527  -0.480  5.91848E-02  1.35141E-01 -7.59567E-02
    8987.739    -11.386  -0.440  6.27136E-02  1.48105E-01 -8.53916E-02
    8987.867    -11.258  -0.400  6.63916E-02  1.61820E-01 -9.54284E-02
    8987.983    -11.143  -0.360  7.01301E-02  1.75938E-01 -1.05808E-01
    8988.086    -11.039  -0.320  7.38150E-02  1.90009E-01 -1.16194E-01
    8988.178    -10.948  -0.280  7.73202E-02  2.03529E-01 -1.26209E-01
    8988.257    -10.868  -0.240  8.05262E-02  2.16015E-01 -1.35489E-01
    8988.324    -10.801  -0.200  8.33356E-02  2.27059E-01 -1.43724E-01
    8988.379    -10.746  -0.160  8.56810E-02  2.36359E-01 -1.50678E-01
    8988.422    -10.704  -0.120  8.75242E-02  2.43718E-01 -1.56193E-01
    8988.452    -10.673  -0.080  8.88481E-02  2.49025E-01 -1.60176E-01
    8988.476    -10.649   0.000  8.99147E-02  2.53292E-01 -1.63377E-01
    8988.531    -10.594   0.120  9.22566E-02  2.62925E-01 -1.70669E-01
    8988.574    -10.551   0.160  9.40301E-02  2.70430E-01 -1.76400E-01
    8988.629    -10.496   0.200  9.62493E-02  2.80031E-01 -1.83782E-01
    8988.696    -10.429   0.240  9.88274E-02  2.91617E-01 -1.92790E-01
    8988.775    -10.350   0.280  1.01648E-01  3.04964E-01 -2.03316E-01
    8988.867    -10.259   0.320  1.04593E-01  3.19805E-01 -2.15212E-01
    8988.970    -10.155   0.360  1.07488E-01  3.35698E-01 -2.28209E-01
    8989.086    -10.039   0.400  1.10296E-01  3.52294E-01 -2.41997E-01
    8989.214     -9.911   0.440  1.12981E-01  3.69158E-01 -2.56177E-01
    8989.354     -9.771   0.480  1.15742E-01  3.86024E-01 -2.70282E-01
    8989.507     -9.619   0.520  1.18819E-01  4.02705E-01 -2.83886E-01
    8989.671     -9.454   0.560  1.22420E-01  4.19120E-01 -2.96700E-01
    8989.848     -9.277   0.600  1.26524E-01  4.35224E-01 -3.08700E-01
    8990.037     -9.088   0.640  1.30960E-01  4.51077E-01 -3.20117E-01
    8990.238     -8.887   0.680  1.35347E-01  4.66710E-01 -3.31363E-01
    8990.452     -8.674   0.720  1.39459E-01  4.82220E-01 -3.42761E-01
    8990.677     -8.448   0.760  1.43453E-01  4.97666E-01 -3.54214E-01
    8990.915     -8.210   0.800  1.47868E-01  5.13095E-01 -3.65228E-01
    8991.165     -7.960   0.840  1.53537E-01  5.28548E-01 -3.75011E-01
    8991.427     -7.698   0.880  1.61319E-01  5.44072E-01 -3.82753E-01
    8991.701     -7.424   0.920  1.72159E-01  5.59664E-01 -3.87506E-01
    8991.988     -7.138   0.960  1.87305E-01  5.75354E-01 -3.88048E-01
    8992.286     -6.839   1.000  2.08076E-01  5.91140E-01 -3.83063E-01
    8992.597     -6.528   1.040  2.35119E-01  6.07015E-01 -3.71897E-01
    8992.920     -6.205   1.080  2.67551E-01  6.22947E-01 -3.55395E-01
    8993.256     -5.870   1.120  3.02642E-01  6.38934E-01 -3.36292E-01
    8993.603     -5.522   1.160  3.37559E-01  6.54935E-01 -3.17376E-01
    8993.963     -5.162   1.200  3.71717E-01  6.70943E-01 -2.99226E-01
    8994.335     -4.791   1.240  4.06635E-01  6.86886E-01 -2.80251E-01
    8994.719     -4.407   1.280  4.45348E-01  7.02773E-01 -2.57426E-01
    8995.115     -4.010   1.320  4.91216E-01  7.18532E-01 -2.27317E-01
    8995.523     -3.602   1.360  5.45029E-01  7.34147E-01 -1.89118E-01
    8995.944     -3.181   1.400  6.04596E-01  7.49581E-01 -1.44985E-01
    8996.377     -2.748   1.440  6.70280E-01  7.64759E-01 -9.44790E-02
    8996.822     -2.303   1.480  7.40599E-01  7.79683E-01 -3.90838E-02
    8997.279     -1.846   1.520  8.01335E-01  7.94297E-01  7.03828E-03
    8997.748     -1.377   1.560  8.39301E-01  8.08587E-01  3.07145E-02
    8998.230     -0.895   1.600  8.55636E-01  8.22497E-01  3.31397E-02
    8998.724     -0.401   1.640  8.65822E-01  8.35993E-01  2.98289E-02
    8999.230      0.104   1.680  8.98081E-01  8.49061E-01  4.90195E-02
    8999.748      0.623   1.720  9.75888E-01  8.61690E-01  1.14198E-01
    9000.278      1.153   1.760  1.10007E+00  8.73811E-01  2.26259E-01
    9000.821      1.696   1.800  1.24853E+00  8.85453E-01  3.63075E-01
    9001.376      2.250   1.840  1.39499E+00  8.96569E-01  4.98422E-01
    9001.942      2.817   1.880  1.53000E+00  9.07173E-01  6.22822E-01
    9002.522      3.396   1.920  1.66773E+00  9.17221E-01  7.50511E-01
    9003.113      3.988   1.960  1.77730E+00  9.26730E-01  8.50575E-01
    9003.716      4.591   2.000  1.77592E+00  9.35696E-01  8.40227E-01
    9004.332      5.207   2.040  1.65894E+00  9.44102E-01  7.14834E-01
    9004.960      5.835   2.080  1.48816E+00  9.51948E-01  5.36214E-01
    9005.600      6.475   2.120  1.29654E+00  9.59276E-01  3.37267E-01
    9006.252      7.127   2.160  1.12057E+00  9.66051E-01  1.54515E-01
    9006.917      7.792   2.200  9.95595E-01  9.72299E-01  2.32964E-02
    9007.593      8.468   2.240  9.21509E-01  9.78044E-01 -5.65350E-02
    9008.282      9.157   2.280  8.81814E-01  9.83271E-01 -1.01457E-01
    9008.983      9.858   2.320  8.66120E-01  9.88012E-01 -1.21892E-01
    9009.697     10.571   2.360  8.69978E-01  9.92294E-01 -1.22317E-01
    9010.422     11.297   2.400  8.79445E-01  9.96125E-01 -1.16679E-01
    9011.160     12.034   2.440  8.78330E-01  9.99492E-01 -1.21162E-01
    9011.909     12.784   2.480  8.76782E-01  1.00247E+00 -1.25687E-01
    9012.671     13.546   2.520  8.99983E-01  1.00504E+00 -1.05061E-01
    9013.446     14.320   2.560  9.47627E-01  1.00723E+00 -5.96016E-02
    9014.232     15.107   2.600  9.83363E-01  1.00907E+00 -2.57102E-02
    9015.031     15.905   2.640  9.93272E-01  1.01059E+00 -1.73168E-02
    9015.841     16.716   2.680  9.93260E-01  1.01178E+00 -1.85236E-02
    9016.664     17.539   2.720  9.86829E-01  1.01269E+00 -2.58617E-02
    9017.499     18.374   2.760  9.72853E-01  1.01332E+00 -4.04666E-02
    9018.347     19.221   2.800  9.52743E-01  1.01370E+00 -6.09558E-02
    9019.206     20.081   2.840  9.30032E-01  1.01384E+00 -8.38089E-02
    9020.078     20.953   2.880  9.07578E-01  1.01378E+00 -1.06198E-01
    9020.962     21.837   2.920  8.87418E-01  1.01353E+00 -1.26114E-01
    9021.858     22.733   2.960  8.71013E-01  1.01310E+00 -1.42085E-01
    9022.766     23.641   3.000  8.58803E-01  1.01251E+00 -1.53703E-01
    9023.687     24.562   3.040  8.50573E-01  1.01178E+00 -1.61207E-01
    9024.620     25.494   3.080  8.46021E-01  1.01093E+00 -1.64912E-01
    9025.564     26.439   3.120  8.44223E-01  1.00997E+00 -1.65746E-01
    9026.521     27.396   3.160  8.44706E-01  1.00892E+00 -1.64213E-01
    9027.491     28.365   3.200  8.47677E-01  1.00781E+00 -1.60132E-01
    9028.472     29.347   3.240  8.53566E-01  1.00660E+00 -1.53037E-01
    9029.466     30.341   3.280  8.62754E-01  1.00535E+00 -1.42596E-01
    9030.472     31.346   3.320  8.75327E-01  1.00408E+00 -1.28751E-01
    9031.490     32.364   3.360  8.90852E-01  1.00277E+00 -1.11917E-01
    9032.520     33.395   3.400  9.08423E-01  1.00143E+00 -9.30064E-02
    9033.562     34.437   3.440  9.27575E-01  1.00008E+00 -7.25092E-02
    9034.617     35.492   3.480  9.48249E-01  9.98739E-01 -5.04901E-02
    9035.684     36.558   3.520  9.70399E-01  9.97417E-01 -2.70180E-02
    9036.763     37.637   3.560  9.93819E-01  9.96103E-01 -2.28430E-03
    9037.854     38.729   3.600  1.01802E+00  9.94800E-01  2.32209E-02
    9038.957     39.832   3.640  1.04212E+00  9.93552E-01  4.85659E-02
    9040.073     40.948   3.680  1.06485E+00  9.92319E-01  7.25338E-02
    9041.201     42.075   3.720  1.08513E+00  9.91127E-01  9.40063E-02
    9042.341     43.215   3.760  1.10215E+00  9.90000E-01  1.12146E-01
    9043.493     44.367   3.800  1.11543E+00  9.88917E-01  1.26509E-01
    9044.657     45.532   3.840  1.12530E+00  9.87880E-01  1.37419E-01
    9045.834     46.708   3.880  1.13253E+00  9.86911E-01  1.45623E-01
    9047.022     47.897   3.920  1.13772E+00  9.85991E-01  1.51729E-01
    9048.223     49.098   3.960  1.14094E+00  9.85141E-01  1.55796E-01
    9049.436     50.311   4.000  1.14159E+00  9.84343E-01  1.57250E-01
    9050.662     51.536   4.040  1.13847E+00  9.83619E-01  1.54856E-01
    9051.899     52.774   4.080  1.13015E+00  9.82969E-01  1.47185E-01
    9053.149     54.023   4.120  1.11579E+00  9.82393E-01  1.33397E-01
    9054.411     55.285   4.160  1.09563E+00  9.81870E-01  1.13759E-01
    9055.685     56.559   4.200  1.07128E+00  9.81420E-01  8.98580E-02
    9056.971     57.846   4.240  1.04514E+00  9.81045E-01  6.40937E-02
    9058.269     59.144   4.280  1.01955E+00  9.80721E-01  3.88288E-02
    9059.580     60.455   4.320  9.96117E-01  9.80471E-01  1.56465E-02
    9060.903     61.777   4.360  9.75447E-01  9.80293E-01 -4.84666E-03
    9062.238     63.112   4.400  9.57447E-01  9.80167E-01 -2.27197E-02
    9063.585     64.460   4.440  9.41869E-01  9.80113E-01 -3.82444E-02
    9064.944     65.819   4.480  9.28609E-01  9.80130E-01 -5.15211E-02
    9066.316     67.191   4.520  9.17789E-01  9.80194E-01 -6.24051E-02
    9067.700     68.574   4.560  9.09617E-01  9.80302E-01 -7.06853E-02
    9069.096     69.970   4.600  9.04199E-01  9.80455E-01 -7.62561E-02
    9070.504     71.379   4.640  9.01537E-01  9.80674E-01 -7.91367E-02
    9071.924     72.799   4.680  9.01430E-01  9.80936E-01 -7.95057E-02
    9073.357     74.232   4.720  9.03484E-01  9.81239E-01 -7.77555E-02
    9074.802     75.676   4.760  9.07173E-01  9.81582E-01 -7.44090E-02
    9076.259     77.133   4.800  9.11992E-01  9.81963E-01 -6.99704E-02
    9077.728     78.602   4.840  9.17724E-01  9.82378E-01 -6.46540E-02
    9079.209     80.084   4.880  9.24616E-01  9.82807E-01 -5.81912E-02
    9080.702     81.577   4.920  9.33144E-01  9.83269E-01 -5.01249E-02
    9082.208     83.083   4.960  9.43610E-01  9.83762E-01 -4.01518E-02
    9083.726     84.601   5.000  9.55635E-01  9.84262E-01 -2.86273E-02
    9085.256     86.131   5.040  9.67985E-01  9.84768E-01 -1.67832E-02
    9086.798     87.673   5.080  9.79062E-01  9.85301E-01 -6.23856E-03
    9088.353     89.228   5.120  9.87911E-01  9.85836E-01  2.07540E-03
    9089.920     90.794   5.160  9.94982E-01  9.86371E-01  8.61102E-03
    9091.498     92.373   5.200  1.00144E+00  9.86904E-01  1.45316E-02
    9093.090     93.964   5.240  1.00793E+00  9.87412E-01  2.05157E-02
    9094.693     95.567   5.280  1.01423E+00  9.87937E-01  2.62935E-02
    9096.308     97.183   5.320  1.01940E+00  9.88435E-01  3.09647E-02
    9097.936     98.811   5.360  1.02238E+00  9.88925E-01  3.34507E-02
    9099.576    100.450   5.400  1.02211E+00  9.89384E-01  3.27252E-02
    9101.228    102.102   5.440  1.01798E+00  9.89832E-01  2.81447E-02
    9102.892    103.767   5.480  1.01007E+00  9.90245E-01  1.98218E-02
    9104.568    105.443   5.520  9.99252E-01  9.90623E-01  8.62881E-03
    9106.257    107.132   5.560  9.86629E-01  9.90989E-01 -4.35931E-03
    9107.958    108.832   5.600  9.73101E-01  9.91318E-01 -1.82166E-02
    9109.671    110.545   5.640  9.59586E-01  9.91607E-01 -3.20209E-02
    9111.396    112.270   5.680  9.47260E-01  9.91857E-01 -4.45969E-02
    9113.133    114.008   5.720  9.37549E-01  9.92064E-01 -5.45148E-02
    9114.883    115.757   5.760  9.31870E-01  9.92206E-01 -6.03364E-02
    9116.644    117.519   5.800  9.31375E-01  9.92332E-01 -6.09571E-02
    9118.418    119.293   5.840  9.36446E-01  9.92419E-01 -5.59730E-02
    9120.204    121.079   5.880  9.46594E-01  9.92463E-01 -4.58684E-02
    9122.003    122.877   5.920  9.60598E-01  9.92439E-01 -3.18412E-02
    9123.813    124.688   5.960  9.76941E-01  9.92368E-01 -1.54264E-02
    9125.636    126.511   6.000  9.94457E-01  9.92257E-01  2.19948E-03
