# # comment:                                                     FEFF 9.9.1  
# # Source:
# # Structure
# # Reduced
# # space
# # abc:
# # angles:
# # sites:
# # POT  SCF 100  7.0000   0, screened core-hole, AFOLP (folp(0)= 1.150)
# # Abs   Z=29 Rmt= 1.295 Rnm= 1.372 K  shell
# # Pot 1 Z=30 Rmt= 1.368 Rnm= 1.462
# # Pot 2 Z=29 Rmt= 1.295 Rnm= 1.372
# # Pot 3 Z=42 Rmt= 1.158 Rnm= 1.360
# # Pot 4 Z= 8 Rmt= 0.938 Rnm= 1.079
# # Gam_ch=1.729E+00 H-L exch Vi= 0.000E+00 Vr= 0.000E+00
# # Mu=-5.661E+00eV kf=2.297E+00 Vint=-1.587E+01eV Rs_int= 1.579
# FMS rfms= 9.0000
# # PATH  Rmax=-1.000,  Keep_limit= 0.00, Heap_limit 0.00  Pwcrit= 2.50%
#  S02=0.950  Temp=   0.00  Debye_temp=   0.00  Global_sig2= 0.00000
#  Energy zero shift, vr, vi    0.00000E+00   0.00000E+00
#  Curved wave amplitude ratio filter   4.000%
#     file         sig2 tot  cw amp ratio   deg  nlegs   reff  inp sig2
#     0/   0 paths used
#  xsedge+ 50, used to normalize mu           2.4637E-04
#  -----------------------------------------------------------------------
#  omega    e    k    mu    mu0     chi     @#
    8983.529     -9.471  -1.000  4.89917E-02  5.73643E-02 -8.37262E-03
    8983.828     -9.172  -0.960  5.23131E-02  6.16530E-02 -9.33986E-03
    8984.114     -8.886  -0.920  5.60009E-02  6.64297E-02 -1.04288E-02
    8984.389     -8.612  -0.880  6.01123E-02  7.17673E-02 -1.16550E-02
    8984.651     -8.349  -0.840  6.47149E-02  7.77508E-02 -1.30359E-02
    8984.901     -8.099  -0.800  6.98878E-02  8.44787E-02 -1.45908E-02
    8985.138     -7.862  -0.760  7.57232E-02  9.20642E-02 -1.63411E-02
    8985.364     -7.636  -0.720  8.23263E-02  1.00636E-01 -1.83093E-02
    8985.577     -7.423  -0.680  8.98148E-02  1.10334E-01 -2.05193E-02
    8985.778     -7.222  -0.640  9.83142E-02  1.21309E-01 -2.29947E-02
    8985.967     -7.033  -0.600  1.07950E-01  1.33707E-01 -2.57571E-02
    8986.144     -6.856  -0.560  1.18832E-01  1.47655E-01 -2.88230E-02
    8986.309     -6.691  -0.520  1.31028E-01  1.63227E-01 -3.21993E-02
    8986.461     -6.539  -0.480  1.44532E-01  1.80410E-01 -3.58771E-02
    8986.601     -6.399  -0.440  1.59226E-01  1.99051E-01 -3.98250E-02
    8986.729     -6.271  -0.400  1.74840E-01  2.18823E-01 -4.39833E-02
    8986.845     -6.155  -0.360  1.90949E-01  2.39211E-01 -4.82615E-02
    8986.949     -6.051  -0.320  2.07003E-01  2.59545E-01 -5.25422E-02
    8987.040     -5.960  -0.280  2.22391E-01  2.79082E-01 -5.66914E-02
    8987.120     -5.881  -0.240  2.36537E-01  2.97110E-01 -6.05731E-02
    8987.187     -5.813  -0.200  2.48970E-01  3.13033E-01 -6.40625E-02
    8987.242     -5.759  -0.160  2.59364E-01  3.26418E-01 -6.70543E-02
    8987.284     -5.716  -0.120  2.67524E-01  3.36992E-01 -6.94678E-02
    8987.315     -5.685  -0.080  2.73358E-01  3.44605E-01 -7.12476E-02
    8987.339     -5.661   0.000  2.77969E-01  3.50719E-01 -7.27497E-02
    8987.394     -5.606   0.120  2.88284E-01  3.64486E-01 -7.62013E-02
    8987.437     -5.564   0.160  2.96341E-01  3.75181E-01 -7.88393E-02
    8987.491     -5.509   0.200  3.06544E-01  3.88814E-01 -8.22706E-02
    8987.559     -5.442   0.240  3.18656E-01  4.05188E-01 -8.65318E-02
    8987.638     -5.362   0.280  3.32252E-01  4.23931E-01 -9.16786E-02
    8987.729     -5.271   0.320  3.46770E-01  4.44556E-01 -9.77859E-02
    8987.833     -5.167   0.360  3.61427E-01  4.66419E-01 -1.04992E-01
    8987.949     -5.051   0.400  3.75390E-01  4.88856E-01 -1.13465E-01
    8988.077     -4.923   0.440  3.87825E-01  5.11241E-01 -1.23416E-01
    8988.217     -4.783   0.480  3.98057E-01  5.33086E-01 -1.35029E-01
    8988.369     -4.631   0.520  4.05702E-01  5.54094E-01 -1.48391E-01
    8988.534     -4.466   0.560  4.10701E-01  5.74148E-01 -1.63447E-01
    8988.711     -4.289   0.600  4.13263E-01  5.93174E-01 -1.79911E-01
    8988.900     -4.100   0.640  4.13898E-01  6.11236E-01 -1.97339E-01
    8989.101     -3.899   0.680  4.13297E-01  6.28427E-01 -2.15129E-01
    8989.314     -3.686   0.720  4.12417E-01  6.44892E-01 -2.32475E-01
    8989.540     -3.460   0.760  4.12456E-01  6.60697E-01 -2.48241E-01
    8989.777     -3.223   0.800  4.14919E-01  6.75955E-01 -2.61036E-01
    8990.027     -2.973   0.840  4.21246E-01  6.90747E-01 -2.69500E-01
    8990.290     -2.711   0.880  4.32518E-01  7.05159E-01 -2.72641E-01
    8990.564     -2.436   0.920  4.48999E-01  7.19222E-01 -2.70222E-01
    8990.850     -2.150   0.960  4.69112E-01  7.32972E-01 -2.63860E-01
    8991.149     -1.851   1.000  4.89414E-01  7.46453E-01 -2.57039E-01
    8991.460     -1.540   1.040  5.07555E-01  7.59640E-01 -2.52085E-01
    8991.783     -1.217   1.080  5.24918E-01  7.72600E-01 -2.47682E-01
    8992.118     -0.882   1.120  5.44390E-01  7.85293E-01 -2.40903E-01
    8992.466     -0.534   1.160  5.67736E-01  7.97712E-01 -2.29976E-01
    8992.825     -0.175   1.200  5.94823E-01  8.09866E-01 -2.15043E-01
    8993.197      0.197   1.240  6.23761E-01  8.21740E-01 -1.97980E-01
    8993.581      0.581   1.280  6.52333E-01  8.33319E-01 -1.80986E-01
    8993.978      0.977   1.320  6.79776E-01  8.44582E-01 -1.64807E-01
    8994.386      1.386   1.360  7.09051E-01  8.55509E-01 -1.46458E-01
    8994.807      1.807   1.400  7.45509E-01  8.66120E-01 -1.20611E-01
    8995.239      2.239   1.440  7.90963E-01  8.76349E-01 -8.53864E-02
    8995.684      2.684   1.480  8.44238E-01  8.86196E-01 -4.19583E-02
    8996.142      3.142   1.520  9.06381E-01  8.95679E-01  1.07016E-02
    8996.611      3.611   1.560  9.77032E-01  9.04774E-01  7.22576E-02
    8997.093      4.093   1.600  1.04929E+00  9.13440E-01  1.35845E-01
    8997.586      4.586   1.640  1.11939E+00  9.21717E-01  1.97669E-01
    8998.092      5.092   1.680  1.18946E+00  9.29563E-01  2.59895E-01
    8998.611      5.610   1.720  1.25883E+00  9.36978E-01  3.21852E-01
    8999.141      6.141   1.760  1.32519E+00  9.43983E-01  3.81203E-01
    8999.683      6.683   1.800  1.38580E+00  9.50561E-01  4.35240E-01
    9000.238      7.238   1.840  1.43430E+00  9.56715E-01  4.77589E-01
    9000.805      7.805   1.880  1.46280E+00  9.62467E-01  5.00338E-01
    9001.384      8.384   1.920  1.46005E+00  9.67801E-01  4.92245E-01
    9001.975      8.975   1.960  1.41847E+00  9.72743E-01  4.45725E-01
    9002.579      9.579   2.000  1.34772E+00  9.77277E-01  3.70446E-01
    9003.195     10.195   2.040  1.26904E+00  9.81431E-01  2.87607E-01
    9003.823     10.822   2.080  1.20397E+00  9.85232E-01  2.18738E-01
    9004.463     11.463   2.120  1.16382E+00  9.88664E-01  1.75158E-01
    9005.115     12.115   2.160  1.14280E+00  9.91757E-01  1.51042E-01
    9005.779     12.779   2.200  1.12932E+00  9.94518E-01  1.34807E-01
    9006.456     13.456   2.240  1.11641E+00  9.96975E-01  1.19437E-01
    9007.145     14.145   2.280  1.10285E+00  9.99116E-01  1.03735E-01
    9007.846     14.846   2.320  1.08861E+00  1.00099E+00  8.76200E-02
    9008.559     15.559   2.360  1.07362E+00  1.00261E+00  7.10095E-02
    9009.285     16.284   2.400  1.05940E+00  1.00395E+00  5.54493E-02
    9010.022     17.022   2.440  1.04472E+00  1.00507E+00  3.96467E-02
    9010.772     17.772   2.480  1.02824E+00  1.00596E+00  2.22794E-02
    9011.534     18.534   2.520  1.01039E+00  1.00666E+00  3.72328E-03
    9012.308     19.308   2.560  9.89267E-01  1.00717E+00 -1.79020E-02
    9013.095     20.094   2.600  9.60796E-01  1.00753E+00 -4.67303E-02
    9013.893     20.893   2.640  9.24935E-01  1.00770E+00 -8.27667E-02
    9014.704     21.704   2.680  8.91044E-01  1.00774E+00 -1.16698E-01
    9015.527     22.527   2.720  8.75257E-01  1.00766E+00 -1.32400E-01
    9016.362     23.362   2.760  8.70940E-01  1.00747E+00 -1.36532E-01
    9017.209     24.209   2.800  8.72329E-01  1.00717E+00 -1.34845E-01
    9018.069     25.069   2.840  8.76987E-01  1.00679E+00 -1.29802E-01
    9018.941     25.940   2.880  8.82979E-01  1.00632E+00 -1.23344E-01
    9019.825     26.824   2.920  8.88924E-01  1.00578E+00 -1.16856E-01
    9020.721     27.721   2.960  8.94016E-01  1.00521E+00 -1.11194E-01
    9021.629     28.629   3.000  8.97530E-01  1.00457E+00 -1.07045E-01
    9022.549     29.549   3.040  8.99209E-01  1.00390E+00 -1.04690E-01
    9023.482     30.482   3.080  8.99665E-01  1.00321E+00 -1.03545E-01
    9024.427     31.427   3.120  9.00000E-01  1.00251E+00 -1.02510E-01
    9025.384     32.384   3.160  9.01171E-01  1.00178E+00 -1.00613E-01
    9026.353     33.353   3.200  9.03987E-01  1.00105E+00 -9.70669E-02
    9027.335     34.335   3.240  9.08830E-01  1.00035E+00 -9.15164E-02
    9028.328     35.328   3.280  9.15500E-01  9.99621E-01 -8.41215E-02
    9029.334     36.334   3.320  9.23728E-01  9.98943E-01 -7.52155E-02
    9030.352     37.352   3.360  9.32980E-01  9.98255E-01 -6.52753E-02
    9031.382     38.382   3.400  9.42776E-01  9.97618E-01 -5.48418E-02
    9032.425     39.425   3.440  9.52553E-01  9.96994E-01 -4.44409E-02
    9033.479     40.479   3.480  9.61957E-01  9.96406E-01 -3.44483E-02
    9034.546     41.546   3.520  9.70701E-01  9.95852E-01 -2.51513E-02
    9035.625     42.625   3.560  9.78709E-01  9.95316E-01 -1.66079E-02
    9036.716     43.716   3.600  9.86212E-01  9.94841E-01 -8.62901E-03
    9037.820     44.820   3.640  9.93482E-01  9.94408E-01 -9.25896E-04
    9038.935     45.935   3.680  1.00074E+00  9.94017E-01  6.72185E-03
    9040.063     47.063   3.720  1.00812E+00  9.93689E-01  1.44268E-02
    9041.203     48.203   3.760  1.01569E+00  9.93382E-01  2.23129E-02
    9042.355     49.355   3.800  1.02349E+00  9.93137E-01  3.03545E-02
    9043.520     50.519   3.840  1.03130E+00  9.92913E-01  3.83874E-02
    9044.696     51.696   3.880  1.03875E+00  9.92753E-01  4.59962E-02
    9045.885     52.885   3.920  1.04515E+00  9.92637E-01  5.25104E-02
    9047.086     54.086   3.960  1.04987E+00  9.92584E-01  5.72828E-02
    9048.299     55.299   4.000  1.05279E+00  9.92550E-01  6.02400E-02
    9049.524     56.524   4.040  1.05446E+00  9.92557E-01  6.18983E-02
    9050.762     57.761   4.080  1.05563E+00  9.92625E-01  6.30032E-02
    9052.011     59.011   4.120  1.05685E+00  9.92713E-01  6.41348E-02
    9053.273     60.273   4.160  1.05845E+00  9.92860E-01  6.55903E-02
    9054.547     61.547   4.200  1.06030E+00  9.93023E-01  6.72758E-02
    9055.833     62.833   4.240  1.06209E+00  9.93222E-01  6.88676E-02
    9057.132     64.132   4.280  1.06341E+00  9.93458E-01  6.99506E-02
    9058.442     65.442   4.320  1.06379E+00  9.93731E-01  7.00548E-02
    9059.765     66.765   4.360  1.06273E+00  9.94037E-01  6.86923E-02
    9061.100     68.100   4.400  1.05974E+00  9.94351E-01  6.53859E-02
    9062.448     69.447   4.440  1.05445E+00  9.94676E-01  5.97741E-02
    9063.807     70.807   4.480  1.04675E+00  9.95052E-01  5.17004E-02
    9065.179     72.178   4.520  1.03686E+00  9.95413E-01  4.14475E-02
    9066.562     73.562   4.560  1.02550E+00  9.95800E-01  2.96969E-02
    9067.958     74.958   4.600  1.01346E+00  9.96191E-01  1.72727E-02
    9069.366     76.366   4.640  1.00155E+00  9.96585E-01  4.96651E-03
    9070.787     77.787   4.680  9.90471E-01  9.97002E-01 -6.53145E-03
    9072.219     79.219   4.720  9.80795E-01  9.97399E-01 -1.66039E-02
    9073.664     80.664   4.760  9.73149E-01  9.97815E-01 -2.46659E-02
    9075.121     82.121   4.800  9.67920E-01  9.98205E-01 -3.02853E-02
    9076.590     83.590   4.840  9.65209E-01  9.98592E-01 -3.33829E-02
    9078.072     85.071   4.880  9.64700E-01  9.98975E-01 -3.42742E-02
    9079.565     86.565   4.920  9.65745E-01  9.99351E-01 -3.36065E-02
    9081.071     88.071   4.960  9.67467E-01  9.99698E-01 -3.22303E-02
    9082.589     89.589   5.000  9.68954E-01  1.00003E+00 -3.10801E-02
    9084.119     91.119   5.040  9.69312E-01  1.00034E+00 -3.10262E-02
    9085.661     92.661   5.080  9.68053E-01  1.00063E+00 -3.25797E-02
    9087.215     94.215   5.120  9.65214E-01  1.00090E+00 -3.56822E-02
    9088.782     95.782   5.160  9.61373E-01  1.00115E+00 -3.97733E-02
    9090.361     97.361   5.200  9.57366E-01  1.00136E+00 -4.39949E-02
    9091.952     98.952   5.240  9.54052E-01  1.00154E+00 -4.74883E-02
    9093.555    100.555   5.280  9.52171E-01  1.00170E+00 -4.95323E-02
    9095.171    102.171   5.320  9.52185E-01  1.00181E+00 -4.96228E-02
    9096.798    103.798   5.360  9.54412E-01  1.00190E+00 -4.74840E-02
    9098.438    105.438   5.400  9.58783E-01  1.00195E+00 -4.31661E-02
    9100.090    107.090   5.440  9.64886E-01  1.00199E+00 -3.71012E-02
    9101.754    108.754   5.480  9.71925E-01  1.00196E+00 -3.00391E-02
    9103.431    110.431   5.520  9.79091E-01  1.00192E+00 -2.28314E-02
    9105.119    112.119   5.560  9.85603E-01  1.00182E+00 -1.62182E-02
    9106.820    113.820   5.600  9.91081E-01  1.00170E+00 -1.06220E-02
    9108.533    115.533   5.640  9.95427E-01  1.00155E+00 -6.12094E-03
    9110.258    117.258   5.680  9.98759E-01  1.00136E+00 -2.59598E-03
    9111.996    118.996   5.720  1.00121E+00  1.00112E+00  8.44428E-05
    9113.745    120.745   5.760  1.00293E+00  1.00088E+00  2.04763E-03
    9115.507    122.507   5.800  1.00406E+00  1.00058E+00  3.48424E-03
    9117.281    124.281   5.840  1.00500E+00  1.00026E+00  4.74003E-03
    9119.067    126.067   5.880  1.00615E+00  9.99911E-01  6.23656E-03
    9120.865    127.865   5.920  1.00783E+00  9.99531E-01  8.29917E-03
    9122.676    129.676   5.960  1.01021E+00  9.99144E-01  1.10684E-02
    9124.498    131.498   6.000  1.01333E+00  9.98676E-01  1.46591E-02
