# # comment:                                                     FEFF 9.9.1  
# # Source:
# # Structure
# # Reduced
# # space
# # abc:
# # angles:
# # sites:
# # POT  SCF 100  7.0000   0, screened core-hole, AFOLP (folp(0)= 1.150)
# # Abs   Z=29 Rmt= 1.125 Rnm= 1.272 K  shell
# # Pot 1 Z=92 Rmt= 1.299 Rnm= 1.549
# # Pot 2 Z=29 Rmt= 1.125 Rnm= 1.272
# # Pot 3 Z=16 Rmt= 0.845 Rnm= 1.101
# # Pot 4 Z= 8 Rmt= 0.975 Rnm= 1.127
# # Gam_ch=1.729E+00 H-L exch Vi= 0.000E+00 Vr= 0.000E+00
# # Mu=-8.709E+00eV kf=2.209E+00 Vint=-1.390E+01eV Rs_int= 1.642
# FMS rfms= 9.0000
# # PATH  Rmax=-1.000,  Keep_limit= 0.00, Heap_limit 0.00  Pwcrit= 2.50%
#  S02=0.950  Temp=   0.00  Debye_temp=   0.00  Global_sig2= 0.00000
#  Energy zero shift, vr, vi    0.00000E+00   0.00000E+00
#  Curved wave amplitude ratio filter   4.000%
#     file         sig2 tot  cw amp ratio   deg  nlegs   reff  inp sig2
#     0/   0 paths used
#  xsedge+ 50, used to normalize mu           2.4230E-04
#  -----------------------------------------------------------------------
#  omega    e    k    mu    mu0     chi     @#
    8983.385    -12.519  -1.000  2.98296E-02  5.04965E-02 -2.06669E-02
    8983.684    -12.220  -0.960  3.10763E-02  5.38991E-02 -2.28228E-02
    8983.970    -11.934  -0.920  3.23961E-02  5.76499E-02 -2.52537E-02
    8984.244    -11.660  -0.880  3.37961E-02  6.17967E-02 -2.80006E-02
    8984.507    -11.398  -0.840  3.52842E-02  6.63951E-02 -3.11109E-02
    8984.756    -11.148  -0.800  3.68695E-02  7.15090E-02 -3.46395E-02
    8984.994    -10.910  -0.760  3.85621E-02  7.72109E-02 -3.86488E-02
    8985.220    -10.684  -0.720  4.03733E-02  8.35825E-02 -4.32092E-02
    8985.433    -10.471  -0.680  4.23151E-02  9.07131E-02 -4.83979E-02
    8985.634    -10.270  -0.640  4.43998E-02  9.86958E-02 -5.42960E-02
    8985.823    -10.081  -0.600  4.66386E-02  1.07622E-01 -6.09829E-02
    8986.000     -9.904  -0.560  4.90402E-02  1.17566E-01 -6.85259E-02
    8986.165     -9.739  -0.520  5.16076E-02  1.28572E-01 -7.69646E-02
    8986.317     -9.587  -0.480  5.43348E-02  1.40624E-01 -8.62890E-02
    8986.457     -9.447  -0.440  5.72024E-02  1.53617E-01 -9.64147E-02
    8986.585     -9.319  -0.400  6.01736E-02  1.67335E-01 -1.07161E-01
    8986.701     -9.203  -0.360  6.31934E-02  1.81440E-01 -1.18247E-01
    8986.805     -9.099  -0.320  6.61897E-02  1.95493E-01 -1.29303E-01
    8986.896     -9.008  -0.280  6.90806E-02  2.09004E-01 -1.39924E-01
    8986.975     -8.929  -0.240  7.17818E-02  2.21498E-01 -1.49717E-01
    8987.042     -8.862  -0.200  7.42147E-02  2.32570E-01 -1.58355E-01
    8987.097     -8.807  -0.160  7.63098E-02  2.41912E-01 -1.65602E-01
    8987.140     -8.764  -0.120  7.80105E-02  2.49322E-01 -1.71311E-01
    8987.170     -8.734  -0.080  7.92758E-02  2.54676E-01 -1.75400E-01
    8987.195     -8.709   0.000  8.03726E-02  2.58991E-01 -1.78618E-01
    8987.250     -8.654   0.120  8.31011E-02  2.68743E-01 -1.85642E-01
    8987.292     -8.612   0.160  8.50767E-02  2.76363E-01 -1.91286E-01
    8987.347     -8.557   0.200  8.75768E-02  2.86149E-01 -1.98572E-01
    8987.414     -8.490   0.240  9.05970E-02  2.98030E-01 -2.07433E-01
    8987.494     -8.411   0.280  9.40930E-02  3.11825E-01 -2.17732E-01
    8987.585     -8.319   0.320  9.79920E-02  3.27274E-01 -2.29282E-01
    8987.689     -8.215   0.360  1.02257E-01  3.44091E-01 -2.41834E-01
    8987.804     -8.100   0.400  1.06701E-01  3.61882E-01 -2.55181E-01
    8987.932     -7.972   0.440  1.11103E-01  3.80323E-01 -2.69220E-01
    8988.073     -7.831   0.480  1.15230E-01  3.99158E-01 -2.83928E-01
    8988.225     -7.679   0.520  1.18857E-01  4.18205E-01 -2.99348E-01
    8988.390     -7.514   0.560  1.21898E-01  4.37412E-01 -3.15514E-01
    8988.566     -7.338   0.600  1.24324E-01  4.56726E-01 -3.32402E-01
    8988.755     -7.149   0.640  1.26467E-01  4.76180E-01 -3.49714E-01
    8988.957     -6.947   0.680  1.28880E-01  4.95806E-01 -3.66926E-01
    8989.170     -6.734   0.720  1.32169E-01  5.15621E-01 -3.83452E-01
    8989.395     -6.509   0.760  1.37004E-01  5.35678E-01 -3.98674E-01
    8989.633     -6.271   0.800  1.44056E-01  5.56002E-01 -4.11946E-01
    8989.883     -6.021   0.840  1.53921E-01  5.76564E-01 -4.22642E-01
    8990.145     -5.759   0.880  1.67026E-01  5.97364E-01 -4.30338E-01
    8990.420     -5.484   0.920  1.83198E-01  6.18391E-01 -4.35192E-01
    8990.706     -5.198   0.960  2.01632E-01  6.39581E-01 -4.37948E-01
    8991.005     -4.899   1.000  2.21830E-01  6.60885E-01 -4.39055E-01
    8991.316     -4.588   1.040  2.45071E-01  6.82224E-01 -4.37153E-01
    8991.639     -4.265   1.080  2.74240E-01  7.03573E-01 -4.29332E-01
    8991.974     -3.930   1.120  3.10982E-01  7.24822E-01 -4.13840E-01
    8992.322     -3.583   1.160  3.54084E-01  7.45898E-01 -3.91814E-01
    8992.681     -3.223   1.200  4.01738E-01  7.66705E-01 -3.64967E-01
    8993.053     -2.851   1.240  4.52375E-01  7.87207E-01 -3.34832E-01
    8993.437     -2.467   1.280  5.00508E-01  8.07265E-01 -3.06757E-01
    8993.833     -2.071   1.320  5.42965E-01  8.26821E-01 -2.83856E-01
    8994.242     -1.662   1.360  5.85622E-01  8.45821E-01 -2.60199E-01
    8994.662     -1.242   1.400  6.29894E-01  8.64172E-01 -2.34278E-01
    8995.095     -0.809   1.440  6.64466E-01  8.81802E-01 -2.17336E-01
    8995.540     -0.364   1.480  6.83715E-01  8.98686E-01 -2.14971E-01
    8995.997      0.093   1.520  6.94643E-01  9.14758E-01 -2.20115E-01
    8996.467      0.563   1.560  7.00980E-01  9.29959E-01 -2.28979E-01
    8996.948      1.044   1.600  7.03158E-01  9.44294E-01 -2.41137E-01
    8997.442      1.538   1.640  7.04254E-01  9.57693E-01 -2.53439E-01
    8997.948      2.044   1.680  7.09549E-01  9.70186E-01 -2.60637E-01
    8998.466      2.562   1.720  7.22608E-01  9.81752E-01 -2.59143E-01
    8998.997      3.093   1.760  7.46381E-01  9.92371E-01 -2.45990E-01
    8999.539      3.635   1.800  7.80879E-01  1.00207E+00 -2.21189E-01
    9000.094      4.190   1.840  8.20667E-01  1.01085E+00 -1.90182E-01
    9000.661      4.757   1.880  8.63177E-01  1.01875E+00 -1.55571E-01
    9001.240      5.336   1.920  9.08152E-01  1.02578E+00 -1.17623E-01
    9001.831      5.927   1.960  9.53649E-01  1.03197E+00 -7.83203E-02
    9002.435      6.531   2.000  9.96431E-01  1.03737E+00 -4.09346E-02
    9003.050      7.146   2.040  1.03655E+00  1.04198E+00 -5.43693E-03
    9003.678      7.774   2.080  1.07758E+00  1.04588E+00  3.16935E-02
    9004.318      8.414   2.120  1.12705E+00  1.04909E+00  7.79631E-02
    9004.971      9.067   2.160  1.19443E+00  1.05166E+00  1.42775E-01
    9005.635      9.731   2.200  1.27651E+00  1.05363E+00  2.22882E-01
    9006.312     10.408   2.240  1.35232E+00  1.05504E+00  2.97284E-01
    9007.001     11.097   2.280  1.40615E+00  1.05592E+00  3.50235E-01
    9007.702     11.798   2.320  1.44146E+00  1.05635E+00  3.85110E-01
    9008.415     12.511   2.360  1.46245E+00  1.05634E+00  4.06104E-01
    9009.140     13.236   2.400  1.46695E+00  1.05592E+00  4.11026E-01
    9009.878     13.974   2.440  1.45571E+00  1.05516E+00  4.00547E-01
    9010.628     14.724   2.480  1.42822E+00  1.05410E+00  3.74120E-01
    9011.390     15.486   2.520  1.38421E+00  1.05273E+00  3.31486E-01
    9012.164     16.260   2.560  1.33018E+00  1.05113E+00  2.79046E-01
    9012.950     17.046   2.600  1.27543E+00  1.04932E+00  2.26114E-01
    9013.749     17.845   2.640  1.23166E+00  1.04732E+00  1.84343E-01
    9014.560     18.656   2.680  1.20115E+00  1.04517E+00  1.55981E-01
    9015.383     19.479   2.720  1.17632E+00  1.04290E+00  1.33427E-01
    9016.218     20.314   2.760  1.15230E+00  1.04051E+00  1.11791E-01
    9017.065     21.161   2.800  1.12700E+00  1.03804E+00  8.89602E-02
    9017.925     22.021   2.840  1.10021E+00  1.03552E+00  6.46900E-02
    9018.796     22.892   2.880  1.07263E+00  1.03298E+00  3.96525E-02
    9019.680     23.776   2.920  1.04590E+00  1.03039E+00  1.55136E-02
    9020.576     24.672   2.960  1.02166E+00  1.02782E+00 -6.15762E-03
    9021.485     25.581   3.000  1.00042E+00  1.02525E+00 -2.48276E-02
    9022.405     26.501   3.040  9.82209E-01  1.02272E+00 -4.05111E-02
    9023.338     27.434   3.080  9.66790E-01  1.02023E+00 -5.34413E-02
    9024.283     28.379   3.120  9.53861E-01  1.01781E+00 -6.39484E-02
    9025.240     29.336   3.160  9.43090E-01  1.01544E+00 -7.23476E-02
    9026.209     30.305   3.200  9.34299E-01  1.01312E+00 -7.88247E-02
    9027.191     31.286   3.240  9.27044E-01  1.01091E+00 -8.38674E-02
    9028.184     32.280   3.280  9.20901E-01  1.00879E+00 -8.78844E-02
    9029.190     33.286   3.320  9.15579E-01  1.00677E+00 -9.11915E-02
    9030.208     34.304   3.360  9.10754E-01  1.00485E+00 -9.40923E-02
    9031.238     35.334   3.400  9.06203E-01  1.00302E+00 -9.68127E-02
    9032.281     36.377   3.440  9.01997E-01  1.00133E+00 -9.93284E-02
    9033.335     37.431   3.480  8.98392E-01  9.99733E-01 -1.01341E-01
    9034.402     38.498   3.520  8.95587E-01  9.98260E-01 -1.02674E-01
    9035.481     39.577   3.560  8.93662E-01  9.96910E-01 -1.03248E-01
    9036.572     40.668   3.600  8.92703E-01  9.95706E-01 -1.03003E-01
    9037.676     41.772   3.640  8.92732E-01  9.94603E-01 -1.01871E-01
    9038.791     42.887   3.680  8.93750E-01  9.93623E-01 -9.98730E-02
    9039.919     44.015   3.720  8.95814E-01  9.92766E-01 -9.69521E-02
    9041.059     45.155   3.760  8.98933E-01  9.92054E-01 -9.31211E-02
    9042.211     46.307   3.800  9.02930E-01  9.91447E-01 -8.85174E-02
    9043.375     47.471   3.840  9.07657E-01  9.90983E-01 -8.33257E-02
    9044.552     48.648   3.880  9.13000E-01  9.90618E-01 -7.76183E-02
    9045.741     49.837   3.920  9.18943E-01  9.90373E-01 -7.14301E-02
    9046.941     51.037   3.960  9.25447E-01  9.90249E-01 -6.48021E-02
    9048.155     52.251   4.000  9.32501E-01  9.90244E-01 -5.77435E-02
    9049.380     53.476   4.040  9.40111E-01  9.90358E-01 -5.02464E-02
    9050.617     54.713   4.080  9.48212E-01  9.90565E-01 -4.23531E-02
    9051.867     55.963   4.120  9.56732E-01  9.90885E-01 -3.41533E-02
    9053.129     57.225   4.160  9.65578E-01  9.91297E-01 -2.57195E-02
    9054.403     58.499   4.200  9.74695E-01  9.91820E-01 -1.71251E-02
    9055.689     59.785   4.240  9.84020E-01  9.92428E-01 -8.40788E-03
    9056.988     61.084   4.280  9.93586E-01  9.93121E-01  4.65090E-04
    9058.298     62.394   4.320  1.00345E+00  9.93895E-01  9.55556E-03
    9059.621     63.717   4.360  1.01367E+00  9.94747E-01  1.89231E-02
    9060.956     65.052   4.400  1.02432E+00  9.95652E-01  2.86716E-02
    9062.303     66.399   4.440  1.03550E+00  9.96632E-01  3.88693E-02
    9063.663     67.759   4.480  1.04709E+00  9.97686E-01  4.94080E-02
    9065.034     69.130   4.520  1.05877E+00  9.98785E-01  5.99846E-02
    9066.418     70.514   4.560  1.07005E+00  9.99928E-01  7.01217E-02
    9067.814     71.910   4.600  1.08031E+00  1.00111E+00  7.91972E-02
    9069.222     73.318   4.640  1.08893E+00  1.00236E+00  8.65711E-02
    9070.643     74.739   4.680  1.09531E+00  1.00360E+00  9.17173E-02
    9072.075     76.171   4.720  1.09917E+00  1.00489E+00  9.42857E-02
    9073.520     77.616   4.760  1.10036E+00  1.00616E+00  9.42043E-02
    9074.977     79.073   4.800  1.09919E+00  1.00746E+00  9.17327E-02
    9076.446     80.542   4.840  1.09603E+00  1.00877E+00  8.72660E-02
    9077.927     82.023   4.880  1.09135E+00  1.01009E+00  8.12595E-02
    9079.421     83.517   4.920  1.08549E+00  1.01137E+00  7.41282E-02
    9080.927     85.022   4.960  1.07883E+00  1.01265E+00  6.61748E-02
    9082.444     86.540   5.000  1.07154E+00  1.01391E+00  5.76291E-02
    9083.975     88.070   5.040  1.06377E+00  1.01514E+00  4.86302E-02
    9085.517     89.613   5.080  1.05560E+00  1.01634E+00  3.92641E-02
    9087.071     91.167   5.120  1.04712E+00  1.01748E+00  2.96365E-02
    9088.638     92.734   5.160  1.03853E+00  1.01861E+00  1.99215E-02
    9090.217     94.313   5.200  1.03007E+00  1.01966E+00  1.04085E-02
    9091.808     95.904   5.240  1.02211E+00  1.02067E+00  1.43869E-03
    9093.411     97.507   5.280  1.01496E+00  1.02163E+00 -6.66851E-03
    9095.027     99.122   5.320  1.00881E+00  1.02252E+00 -1.37111E-02
    9096.654    100.750   5.360  1.00370E+00  1.02335E+00 -1.96489E-02
    9098.294    102.390   5.400  9.99553E-01  1.02411E+00 -2.45551E-02
    9099.946    104.042   5.440  9.96289E-01  1.02478E+00 -2.84953E-02
    9101.610    105.706   5.480  9.93906E-01  1.02538E+00 -3.14749E-02
    9103.287    107.383   5.520  9.92387E-01  1.02590E+00 -3.35094E-02
    9104.975    109.071   5.560  9.91663E-01  1.02635E+00 -3.46910E-02
    9106.676    110.772   5.600  9.91510E-01  1.02671E+00 -3.51982E-02
    9108.389    112.485   5.640  9.91721E-01  1.02700E+00 -3.52804E-02
    9110.114    114.210   5.680  9.91986E-01  1.02719E+00 -3.52020E-02
    9111.851    115.947   5.720  9.92141E-01  1.02729E+00 -3.51523E-02
    9113.601    117.697   5.760  9.92203E-01  1.02734E+00 -3.51355E-02
    9115.363    119.459   5.800  9.92339E-01  1.02728E+00 -3.49391E-02
    9117.137    121.233   5.840  9.92948E-01  1.02714E+00 -3.41878E-02
    9118.923    123.019   5.880  9.94367E-01  1.02691E+00 -3.25437E-02
    9120.721    124.817   5.920  9.96701E-01  1.02661E+00 -2.99063E-02
    9122.532    126.628   5.960  9.99749E-01  1.02624E+00 -2.64895E-02
    9124.354    128.450   6.000  1.00304E+00  1.02570E+00 -2.26611E-02
