# # comment:                                                     FEFF 9.9.1  
# # Source:
# # Structure
# # Reduced
# # space
# # abc:
# # angles:116.132200
# # sites:
# # POT  SCF 100  7.0000   0, screened core-hole, AFOLP (folp(0)= 1.150)
# # Abs   Z=29 Rmt= 1.287 Rnm= 1.358 K  shell
# # Pot 1 Z=11 Rmt= 1.538 Rnm= 1.588
# # Pot 2 Z=29 Rmt= 1.260 Rnm= 1.328
# # Pot 3 Z=15 Rmt= 0.942 Rnm= 1.157
# # Pot 4 Z= 8 Rmt= 0.924 Rnm= 1.045
# # Gam_ch=1.729E+00 H-L exch Vi= 0.000E+00 Vr= 0.000E+00
# # Mu=-7.218E+00eV kf=2.387E+00 Vint=-1.721E+01eV Rs_int= 1.519
# FMS rfms= 9.0000
# # PATH  Rmax=-1.000,  Keep_limit= 0.00, Heap_limit 0.00  Pwcrit= 2.50%
#  S02=0.950  Temp=   0.00  Debye_temp=   0.00  Global_sig2= 0.00000
#  Energy zero shift, vr, vi    0.00000E+00   0.00000E+00
#  Curved wave amplitude ratio filter   4.000%
#     file         sig2 tot  cw amp ratio   deg  nlegs   reff  inp sig2
#     0/   0 paths used
#  xsedge+ 50, used to normalize mu           2.4897E-04
#  -----------------------------------------------------------------------
#  omega    e    k    mu    mu0     chi     @#
    8983.494    -11.028  -1.000  4.07602E-02  5.04644E-02 -9.70417E-03
    8983.792    -10.730  -0.960  4.31765E-02  5.40723E-02 -1.08958E-02
    8984.079    -10.443  -0.920  4.58124E-02  5.80791E-02 -1.22666E-02
    8984.353    -10.169  -0.880  4.86957E-02  6.25436E-02 -1.38479E-02
    8984.615     -9.907  -0.840  5.18579E-02  6.75343E-02 -1.56764E-02
    8984.865     -9.657  -0.800  5.53351E-02  7.31305E-02 -1.77955E-02
    8985.103     -9.419  -0.760  5.91679E-02  7.94233E-02 -2.02555E-02
    8985.329     -9.194  -0.720  6.34014E-02  8.65157E-02 -2.31143E-02
    8985.542     -8.980  -0.680  6.80842E-02  9.45210E-02 -2.64368E-02
    8985.743     -8.779  -0.640  7.32663E-02  1.03559E-01 -3.02928E-02
    8985.932     -8.590  -0.600  7.89948E-02  1.13748E-01 -3.47528E-02
    8986.109     -8.413  -0.560  8.53067E-02  1.25187E-01 -3.98802E-02
    8986.273     -8.249  -0.520  9.22173E-02  1.37937E-01 -4.57195E-02
    8986.426     -8.096  -0.480  9.97053E-02  1.51984E-01 -5.22788E-02
    8986.566     -7.956  -0.440  1.07695E-01  1.67205E-01 -5.95099E-02
    8986.694     -7.828  -0.400  1.16044E-01  1.83335E-01 -6.72906E-02
    8986.810     -7.712  -0.360  1.24540E-01  1.99956E-01 -7.54161E-02
    8986.914     -7.609  -0.320  1.32918E-01  2.16528E-01 -8.36098E-02
    8987.005     -7.517  -0.280  1.40895E-01  2.32449E-01 -9.15541E-02
    8987.084     -7.438  -0.240  1.48206E-01  2.47141E-01 -9.89346E-02
    8987.151     -7.371  -0.200  1.54640E-01  2.60122E-01 -1.05482E-01
    8987.206     -7.316  -0.160  1.60042E-01  2.71038E-01 -1.10996E-01
    8987.249     -7.273  -0.120  1.64310E-01  2.79666E-01 -1.15356E-01
    8987.279     -7.243  -0.080  1.67379E-01  2.85880E-01 -1.18501E-01
    8987.304     -7.218   0.000  1.69817E-01  2.90872E-01 -1.21055E-01
    8987.359     -7.164   0.120  1.75580E-01  3.02135E-01 -1.26555E-01
    8987.401     -7.121   0.160  1.80082E-01  3.10873E-01 -1.30791E-01
    8987.456     -7.066   0.200  1.85908E-01  3.22021E-01 -1.36113E-01
    8987.523     -6.999   0.240  1.93119E-01  3.35447E-01 -1.42328E-01
    8987.602     -6.920   0.280  2.01689E-01  3.50833E-01 -1.49144E-01
    8987.694     -6.828   0.320  2.11709E-01  3.67822E-01 -1.56113E-01
    8987.797     -6.725   0.360  2.23238E-01  3.85880E-01 -1.62641E-01
    8987.913     -6.609   0.400  2.36443E-01  4.04479E-01 -1.68036E-01
    8988.041     -6.481   0.440  2.51534E-01  4.23165E-01 -1.71631E-01
    8988.181     -6.341   0.480  2.68611E-01  4.41528E-01 -1.72917E-01
    8988.334     -6.188   0.520  2.87677E-01  4.59372E-01 -1.71695E-01
    8988.498     -6.024   0.560  3.08477E-01  4.76531E-01 -1.68054E-01
    8988.675     -5.847   0.600  3.30762E-01  4.93018E-01 -1.62256E-01
    8988.864     -5.658   0.640  3.54336E-01  5.08889E-01 -1.54552E-01
    8989.065     -5.457   0.680  3.78949E-01  5.24215E-01 -1.45267E-01
    8989.279     -5.243   0.720  4.04049E-01  5.39102E-01 -1.35053E-01
    8989.504     -5.018   0.760  4.28242E-01  5.53607E-01 -1.25365E-01
    8989.742     -4.780   0.800  4.49168E-01  5.67868E-01 -1.18700E-01
    8989.992     -4.530   0.840  4.64159E-01  5.81907E-01 -1.17749E-01
    8990.254     -4.268   0.880  4.72434E-01  5.95793E-01 -1.23360E-01
    8990.528     -3.994   0.920  4.75622E-01  6.09585E-01 -1.33962E-01
    8990.815     -3.707   0.960  4.76167E-01  6.23308E-01 -1.47141E-01
    8991.114     -3.408   1.000  4.75725E-01  6.36981E-01 -1.61256E-01
    8991.425     -3.098   1.040  4.74899E-01  6.50608E-01 -1.75709E-01
    8991.748     -2.774   1.080  4.75047E-01  6.64212E-01 -1.89165E-01
    8992.083     -2.439   1.120  4.79552E-01  6.77788E-01 -1.98236E-01
    8992.430     -2.092   1.160  4.90502E-01  6.91326E-01 -2.00824E-01
    8992.790     -1.732   1.200  5.04484E-01  7.04810E-01 -2.00325E-01
    8993.162     -1.360   1.240  5.16068E-01  7.18241E-01 -2.02174E-01
    8993.546     -0.976   1.280  5.24968E-01  7.31580E-01 -2.06612E-01
    8993.942     -0.580   1.320  5.34456E-01  7.44820E-01 -2.10365E-01
    8994.351     -0.171   1.360  5.48640E-01  7.57919E-01 -2.09279E-01
    8994.771      0.249   1.400  5.72005E-01  7.70890E-01 -1.98885E-01
    8995.204      0.682   1.440  6.04908E-01  7.83662E-01 -1.78754E-01
    8995.649      1.127   1.480  6.46732E-01  7.96248E-01 -1.49516E-01
    8996.106      1.584   1.520  7.00009E-01  8.08620E-01 -1.08611E-01
    8996.576      2.054   1.560  7.64575E-01  8.20747E-01 -5.61721E-02
    8997.057      2.535   1.600  8.30509E-01  8.32580E-01 -2.07081E-03
    8997.551      3.029   1.640  8.82004E-01  8.44150E-01  3.78535E-02
    8998.057      3.535   1.680  9.16722E-01  8.55388E-01  6.13343E-02
    8998.575      4.053   1.720  9.51706E-01  8.66284E-01  8.54220E-02
    8999.105      4.583   1.760  1.00322E+00  8.76850E-01  1.26366E-01
    8999.648      5.126   1.800  1.06725E+00  8.87022E-01  1.80229E-01
    9000.203      5.681   1.840  1.12598E+00  8.96830E-01  2.29149E-01
    9000.770      6.248   1.880  1.17400E+00  9.06229E-01  2.67769E-01
    9001.349      6.827   1.920  1.21192E+00  9.15215E-01  2.96709E-01
    9001.940      7.418   1.960  1.23620E+00  9.23784E-01  3.12419E-01
    9002.544      8.022   2.000  1.24778E+00  9.31934E-01  3.15846E-01
    9003.159      8.637   2.040  1.25151E+00  9.39640E-01  3.11869E-01
    9003.787      9.265   2.080  1.24860E+00  9.46924E-01  3.01674E-01
    9004.427      9.905   2.120  1.23936E+00  9.53784E-01  2.85575E-01
    9005.080     10.557   2.160  1.22574E+00  9.60183E-01  2.65558E-01
    9005.744     11.222   2.200  1.21040E+00  9.66180E-01  2.44223E-01
    9006.421     11.899   2.240  1.19486E+00  9.71717E-01  2.23147E-01
    9007.110     12.587   2.280  1.17798E+00  9.76859E-01  2.01117E-01
    9007.811     13.288   2.320  1.15737E+00  9.81571E-01  1.75797E-01
    9008.524     14.002   2.360  1.13275E+00  9.85896E-01  1.46859E-01
    9009.249     14.727   2.400  1.10511E+00  9.89799E-01  1.15313E-01
    9009.987     15.465   2.440  1.07792E+00  9.93346E-01  8.45771E-02
    9010.737     16.215   2.480  1.05641E+00  9.96504E-01  5.99047E-02
    9011.499     16.977   2.520  1.04261E+00  9.99300E-01  4.33069E-02
    9012.273     17.751   2.560  1.03326E+00  1.00176E+00  3.14962E-02
    9013.059     18.537   2.600  1.02477E+00  1.00389E+00  2.08763E-02
    9013.858     19.336   2.640  1.01665E+00  1.00570E+00  1.09514E-02
    9014.669     20.146   2.680  1.00859E+00  1.00722E+00  1.37035E-03
    9015.491     20.969   2.720  1.00010E+00  1.00846E+00 -8.35384E-03
    9016.327     21.805   2.760  9.92116E-01  1.00942E+00 -1.73010E-02
    9017.174     22.652   2.800  9.82572E-01  1.01013E+00 -2.75540E-02
    9018.033     23.511   2.840  9.68862E-01  1.01060E+00 -4.17342E-02
    9018.905     24.383   2.880  9.50564E-01  1.01086E+00 -6.02920E-02
    9019.789     25.267   2.920  9.28298E-01  1.01091E+00 -8.26135E-02
    9020.685     26.163   2.960  9.04003E-01  1.01077E+00 -1.06768E-01
    9021.594     27.071   3.000  8.80957E-01  1.01048E+00 -1.29528E-01
    9022.514     27.992   3.040  8.62233E-01  1.01002E+00 -1.47784E-01
    9023.447     28.925   3.080  8.49532E-01  1.00942E+00 -1.59886E-01
    9024.392     29.870   3.120  8.43063E-01  1.00869E+00 -1.65631E-01
    9025.349     30.827   3.160  8.42110E-01  1.00785E+00 -1.65742E-01
    9026.318     31.796   3.200  8.45184E-01  1.00692E+00 -1.61733E-01
    9027.299     32.777   3.240  8.51433E-01  1.00588E+00 -1.54445E-01
    9028.293     33.771   3.280  8.60737E-01  1.00478E+00 -1.44045E-01
    9029.299     34.777   3.320  8.72968E-01  1.00361E+00 -1.30645E-01
    9030.317     35.795   3.360  8.87771E-01  1.00242E+00 -1.14649E-01
    9031.347     36.825   3.400  9.04412E-01  1.00116E+00 -9.67509E-02
    9032.390     37.867   3.440  9.21852E-01  9.99871E-01 -7.80186E-02
    9033.444     38.922   3.480  9.39074E-01  9.98589E-01 -5.95142E-02
    9034.511     39.989   3.520  9.55297E-01  9.97259E-01 -4.19620E-02
    9035.590     41.068   3.560  9.69857E-01  9.95947E-01 -2.60900E-02
    9036.681     42.159   3.600  9.82194E-01  9.94639E-01 -1.24446E-02
    9037.784     43.262   3.640  9.92329E-01  9.93358E-01 -1.02874E-03
    9038.900     44.378   3.680  1.00079E+00  9.92087E-01  8.70236E-03
    9040.028     45.506   3.720  1.00834E+00  9.90846E-01  1.74926E-02
    9041.168     46.646   3.760  1.01558E+00  9.89622E-01  2.59554E-02
    9042.320     47.798   3.800  1.02280E+00  9.88457E-01  3.43446E-02
    9043.484     48.962   3.840  1.02984E+00  9.87334E-01  4.25040E-02
    9044.661     50.139   3.880  1.03644E+00  9.86253E-01  5.01826E-02
    9045.849     51.327   3.920  1.04239E+00  9.85216E-01  5.71692E-02
    9047.050     52.528   3.960  1.04747E+00  9.84247E-01  6.32278E-02
    9048.263     53.741   4.000  1.05128E+00  9.83327E-01  6.79521E-02
    9049.489     54.967   4.040  1.05347E+00  9.82477E-01  7.09952E-02
    9050.726     56.204   4.080  1.05383E+00  9.81677E-01  7.21526E-02
    9051.976     57.454   4.120  1.05246E+00  9.80950E-01  7.15125E-02
    9053.238     58.716   4.160  1.04974E+00  9.80298E-01  6.94429E-02
    9054.512     59.990   4.200  1.04612E+00  9.79719E-01  6.64022E-02
    9055.798     61.276   4.240  1.04186E+00  9.79193E-01  6.26690E-02
    9057.096     62.574   4.280  1.03712E+00  9.78739E-01  5.83794E-02
    9058.407     63.885   4.320  1.03198E+00  9.78338E-01  5.36431E-02
    9059.730     65.208   4.360  1.02658E+00  9.78032E-01  4.85463E-02
    9061.065     66.543   4.400  1.02095E+00  9.77779E-01  4.31751E-02
    9062.412     67.890   4.440  1.01523E+00  9.77576E-01  3.76568E-02
    9063.772     69.249   4.480  1.00959E+00  9.77466E-01  3.21204E-02
    9065.143     70.621   4.520  1.00402E+00  9.77386E-01  2.66328E-02
    9066.527     72.005   4.560  9.98562E-01  9.77399E-01  2.11630E-02
    9067.923     73.401   4.600  9.93068E-01  9.77460E-01  1.56077E-02
    9069.331     74.809   4.640  9.87468E-01  9.77568E-01  9.90019E-03
    9070.751     76.229   4.680  9.81872E-01  9.77744E-01  4.12810E-03
    9072.184     77.662   4.720  9.76460E-01  9.77965E-01 -1.50414E-03
    9073.629     79.107   4.760  9.71462E-01  9.78227E-01 -6.76496E-03
    9075.086     80.564   4.800  9.67150E-01  9.78533E-01 -1.13833E-02
    9076.555     82.033   4.840  9.63754E-01  9.78900E-01 -1.51456E-02
    9078.036     83.514   4.880  9.61309E-01  9.79284E-01 -1.79750E-02
    9079.530     85.008   4.920  9.59787E-01  9.79705E-01 -1.99176E-02
    9081.035     86.513   4.960  9.59081E-01  9.80162E-01 -2.10815E-02
    9082.553     88.031   5.000  9.59139E-01  9.80653E-01 -2.15138E-02
    9084.083     89.561   5.040  9.59907E-01  9.81154E-01 -2.12464E-02
    9085.626     91.104   5.080  9.61260E-01  9.81685E-01 -2.04246E-02
    9087.180     92.658   5.120  9.62886E-01  9.82221E-01 -1.93342E-02
    9088.747     94.225   5.160  9.64363E-01  9.82762E-01 -1.83986E-02
    9090.326     95.804   5.200  9.65283E-01  9.83327E-01 -1.80435E-02
    9091.917     97.395   5.240  9.65225E-01  9.83871E-01 -1.86468E-02
    9093.520     98.998   5.280  9.64006E-01  9.84436E-01 -2.04308E-02
    9095.135    100.613   5.320  9.61679E-01  9.84978E-01 -2.32994E-02
    9096.763    102.241   5.360  9.58729E-01  9.85538E-01 -2.68092E-02
    9098.403    103.881   5.400  9.55754E-01  9.86068E-01 -3.03148E-02
    9100.055    105.533   5.440  9.53350E-01  9.86567E-01 -3.32169E-02
    9101.719    107.197   5.480  9.52040E-01  9.87055E-01 -3.50153E-02
    9103.395    108.873   5.520  9.52209E-01  9.87512E-01 -3.53025E-02
    9105.084    110.562   5.560  9.54126E-01  9.87956E-01 -3.38308E-02
    9106.785    112.263   5.600  9.57709E-01  9.88366E-01 -3.06576E-02
    9108.498    113.976   5.640  9.62519E-01  9.88740E-01 -2.62215E-02
    9110.223    115.701   5.680  9.67826E-01  9.89096E-01 -2.12705E-02
    9111.960    117.438   5.720  9.72763E-01  9.89390E-01 -1.66270E-02
    9113.710    119.188   5.760  9.76774E-01  9.89642E-01 -1.28675E-02
    9115.472    120.949   5.800  9.79717E-01  9.89852E-01 -1.01351E-02
    9117.245    122.723   5.840  9.81834E-01  9.90020E-01 -8.18626E-03
    9119.032    124.510   5.880  9.83574E-01  9.90147E-01 -6.57313E-03
    9120.830    126.308   5.920  9.85405E-01  9.90229E-01 -4.82377E-03
    9122.640    128.118   5.960  9.87653E-01  9.90236E-01 -2.58326E-03
    9124.463    129.941   6.000  9.90577E-01  9.90198E-01  3.78925E-04
