# # comment:                                                     FEFF 9.9.1  
# # Source:
# # Structure
# # Reduced
# # space
# # abc:
# # angles:
# # sites:
# # POT  SCF 100  7.0000   0, screened core-hole, AFOLP (folp(0)= 1.150)
# # Abs   Z=29 Rmt= 1.225 Rnm= 1.347 K  shell
# # Pot 1 Z=29 Rmt= 1.246 Rnm= 1.359
# # Pot 2 Z= 8 Rmt= 0.994 Rnm= 1.128
# # Pot 3 Z= 9 Rmt= 1.044 Rnm= 1.130
# # Gam_ch=1.729E+00 H-L exch Vi= 0.000E+00 Vr= 0.000E+00
# # Mu=-6.679E+00eV kf=1.971E+00 Vint=-1.244E+01eV Rs_int= 1.840
# FMS rfms= 9.0000
# # PATH  Rmax=-1.000,  Keep_limit= 0.00, Heap_limit 0.00  Pwcrit= 2.50%
#  S02=0.950  Temp=   0.00  Debye_temp=   0.00  Global_sig2= 0.00000
#  Energy zero shift, vr, vi    0.00000E+00   0.00000E+00
#  Curved wave amplitude ratio filter   4.000%
#     file         sig2 tot  cw amp ratio   deg  nlegs   reff  inp sig2
#     0/   0 paths used
#  xsedge+ 50, used to normalize mu           2.4071E-04
#  -----------------------------------------------------------------------
#  omega    e    k    mu    mu0     chi     @#
    8983.276    -10.489  -1.000  3.45448E-02  5.65578E-02 -2.20130E-02
    8983.575    -10.190  -0.960  3.59721E-02  6.05840E-02 -2.46118E-02
    8983.861     -9.904  -0.920  3.74655E-02  6.50415E-02 -2.75761E-02
    8984.136     -9.629  -0.880  3.90283E-02  6.99916E-02 -3.09633E-02
    8984.398     -9.367  -0.840  4.06646E-02  7.55051E-02 -3.48405E-02
    8984.648     -9.117  -0.800  4.23788E-02  8.16639E-02 -3.92851E-02
    8984.885     -8.879  -0.760  4.41758E-02  8.85614E-02 -4.43856E-02
    8985.111     -8.654  -0.720  4.60608E-02  9.63027E-02 -5.02419E-02
    8985.324     -8.441  -0.680  4.80393E-02  1.05003E-01 -5.69636E-02
    8985.525     -8.239  -0.640  5.01166E-02  1.14783E-01 -6.46665E-02
    8985.714     -8.050  -0.600  5.22969E-02  1.25761E-01 -7.34643E-02
    8985.891     -7.874  -0.560  5.45819E-02  1.38037E-01 -8.34550E-02
    8986.056     -7.709  -0.520  5.69685E-02  1.51668E-01 -9.46992E-02
    8986.208     -7.557  -0.480  5.94456E-02  1.66636E-01 -1.07191E-01
    8986.348     -7.416  -0.440  6.19909E-02  1.82813E-01 -1.20822E-01
    8986.476     -7.288  -0.400  6.45679E-02  1.99922E-01 -1.35354E-01
    8986.592     -7.173  -0.360  6.71259E-02  2.17536E-01 -1.50410E-01
    8986.696     -7.069  -0.320  6.96027E-02  2.35097E-01 -1.65494E-01
    8986.787     -6.977  -0.280  7.19325E-02  2.51982E-01 -1.80049E-01
    8986.867     -6.898  -0.240  7.40539E-02  2.67590E-01 -1.93536E-01
    8986.934     -6.831  -0.200  7.59165E-02  2.81410E-01 -2.05494E-01
    8986.988     -6.776  -0.160  7.74829E-02  2.93062E-01 -2.15579E-01
    8987.031     -6.734  -0.120  7.87276E-02  3.02293E-01 -2.23566E-01
    8987.062     -6.703  -0.080  7.96334E-02  3.08958E-01 -2.29324E-01
    8987.086     -6.679   0.000  8.03822E-02  3.14323E-01 -2.33941E-01
    8987.141     -6.624   0.120  8.21170E-02  3.26436E-01 -2.44319E-01
    8987.184     -6.581   0.160  8.34095E-02  3.35883E-01 -2.52474E-01
    8987.238     -6.526   0.200  8.50577E-02  3.48005E-01 -2.62947E-01
    8987.305     -6.459   0.240  8.70260E-02  3.62660E-01 -2.75634E-01
    8987.385     -6.380   0.280  8.93155E-02  3.79619E-01 -2.90304E-01
    8987.476     -6.289   0.320  9.18917E-02  3.98534E-01 -3.06642E-01
    8987.580     -6.185   0.360  9.47991E-02  4.18961E-01 -3.24162E-01
    8987.696     -6.069   0.400  9.80024E-02  4.40401E-01 -3.42399E-01
    8987.824     -5.941   0.440  1.01572E-01  4.62392E-01 -3.60820E-01
    8987.964     -5.801   0.480  1.05577E-01  4.84569E-01 -3.78992E-01
    8988.116     -5.649   0.520  1.10172E-01  5.06731E-01 -3.96559E-01
    8988.281     -5.484   0.560  1.15501E-01  5.28728E-01 -4.13227E-01
    8988.458     -5.307   0.600  1.21723E-01  5.50522E-01 -4.28799E-01
    8988.647     -5.118   0.640  1.29055E-01  5.72105E-01 -4.43050E-01
    8988.848     -4.917   0.680  1.37673E-01  5.93523E-01 -4.55850E-01
    8989.061     -4.704   0.720  1.47750E-01  6.14827E-01 -4.67077E-01
    8989.287     -4.478   0.760  1.59334E-01  6.36045E-01 -4.76710E-01
    8989.524     -4.240   0.800  1.72520E-01  6.57192E-01 -4.84672E-01
    8989.774     -3.990   0.840  1.87617E-01  6.78272E-01 -4.90655E-01
    8990.036     -3.728   0.880  2.05453E-01  6.99271E-01 -4.93818E-01
    8990.311     -3.454   0.920  2.27470E-01  7.20145E-01 -4.92675E-01
    8990.597     -3.167   0.960  2.55386E-01  7.40859E-01 -4.85473E-01
    8990.896     -2.869   1.000  2.90662E-01  7.61387E-01 -4.70725E-01
    8991.207     -2.558   1.040  3.33571E-01  7.81614E-01 -4.48043E-01
    8991.530     -2.235   1.080  3.82706E-01  8.01521E-01 -4.18815E-01
    8991.865     -1.900   1.120  4.36183E-01  8.21024E-01 -3.84840E-01
    8992.213     -1.552   1.160  4.94466E-01  8.40036E-01 -3.45569E-01
    8992.572     -1.192   1.200  5.58930E-01  8.58510E-01 -2.99580E-01
    8992.944     -0.821   1.240  6.25117E-01  8.76336E-01 -2.51219E-01
    8993.328     -0.436   1.280  6.82021E-01  8.93490E-01 -2.11469E-01
    8993.725     -0.040   1.320  7.19412E-01  9.09927E-01 -1.90515E-01
    8994.133      0.368   1.360  7.33982E-01  9.25542E-01 -1.91560E-01
    8994.554      0.789   1.400  7.34993E-01  9.40317E-01 -2.05325E-01
    8994.986      1.222   1.440  7.44365E-01  9.54238E-01 -2.09874E-01
    8995.431      1.667   1.480  7.81711E-01  9.67254E-01 -1.85542E-01
    8995.889      2.124   1.520  8.51411E-01  9.79335E-01 -1.27924E-01
    8996.358      2.593   1.560  9.40845E-01  9.90499E-01 -4.96536E-02
    8996.840      3.075   1.600  1.03148E+00  1.00073E+00  3.07569E-02
    8997.333      3.569   1.640  1.12139E+00  1.01004E+00  1.11347E-01
    8997.839      4.075   1.680  1.22646E+00  1.01843E+00  2.08020E-01
    8998.357      4.593   1.720  1.35341E+00  1.02593E+00  3.27480E-01
    8998.888      5.123   1.760  1.48612E+00  1.03255E+00  4.53571E-01
    8999.430      5.666   1.800  1.59569E+00  1.03833E+00  5.57363E-01
    8999.985      6.220   1.840  1.65853E+00  1.04332E+00  6.15215E-01
    9000.552      6.787   1.880  1.67020E+00  1.04752E+00  6.22681E-01
    9001.131      7.366   1.920  1.64481E+00  1.05101E+00  5.93804E-01
    9001.722      7.958   1.960  1.60126E+00  1.05381E+00  5.47451E-01
    9002.326      8.561   2.000  1.55000E+00  1.05596E+00  4.94040E-01
    9002.942      9.177   2.040  1.48991E+00  1.05753E+00  4.32379E-01
    9003.570      9.805   2.080  1.41199E+00  1.05854E+00  3.53454E-01
    9004.210     10.445   2.120  1.32963E+00  1.05906E+00  2.70573E-01
    9004.862     11.097   2.160  1.27346E+00  1.05909E+00  2.14368E-01
    9005.526     11.762   2.200  1.23399E+00  1.05873E+00  1.75261E-01
    9006.203     12.438   2.240  1.17365E+00  1.05797E+00  1.15689E-01
    9006.892     13.127   2.280  1.08759E+00  1.05689E+00  3.07026E-02
    9007.593     13.828   2.320  1.01251E+00  1.05551E+00 -4.30023E-02
    9008.306     14.541   2.360  9.75345E-01  1.05386E+00 -7.85143E-02
    9009.031     15.267   2.400  9.77937E-01  1.05199E+00 -7.40515E-02
    9009.769     16.004   2.440  9.93631E-01  1.04994E+00 -5.63061E-02
    9010.519     16.754   2.480  1.01073E+00  1.04772E+00 -3.69938E-02
    9011.281     17.516   2.520  1.02459E+00  1.04537E+00 -2.07857E-02
    9012.055     18.290   2.560  1.03268E+00  1.04291E+00 -1.02289E-02
    9012.841     19.077   2.600  1.03455E+00  1.04039E+00 -5.83677E-03
    9013.640     19.875   2.640  1.03068E+00  1.03779E+00 -7.11276E-03
    9014.451     20.686   2.680  1.02213E+00  1.03518E+00 -1.30514E-02
    9015.274     21.509   2.720  1.01056E+00  1.03254E+00 -2.19797E-02
    9016.109     22.344   2.760  9.97560E-01  1.02993E+00 -3.23664E-02
    9016.956     23.192   2.800  9.84688E-01  1.02732E+00 -4.26319E-02
    9017.816     24.051   2.840  9.73133E-01  1.02477E+00 -5.16399E-02
    9018.688     24.923   2.880  9.63200E-01  1.02225E+00 -5.90500E-02
    9019.571     25.807   2.920  9.54411E-01  1.01980E+00 -6.53898E-02
    9020.468     26.703   2.960  9.45824E-01  1.01743E+00 -7.16060E-02
    9021.376     27.611   3.000  9.36820E-01  1.01517E+00 -7.83457E-02
    9022.296     28.532   3.040  9.27139E-01  1.01297E+00 -8.58276E-02
    9023.229     29.464   3.080  9.17047E-01  1.01088E+00 -9.38333E-02
    9024.174     30.409   3.120  9.07014E-01  1.00891E+00 -1.01897E-01
    9025.131     31.366   3.160  8.97414E-01  1.00704E+00 -1.09624E-01
    9026.100     32.335   3.200  8.88714E-01  1.00531E+00 -1.16596E-01
    9027.082     33.317   3.240  8.81545E-01  1.00368E+00 -1.22139E-01
    9028.075     34.311   3.280  8.76848E-01  1.00220E+00 -1.25356E-01
    9029.081     35.316   3.320  8.75584E-01  1.00085E+00 -1.25268E-01
    9030.099     36.334   3.360  8.78093E-01  9.99626E-01 -1.21534E-01
    9031.129     37.365   3.400  8.84372E-01  9.98528E-01 -1.14156E-01
    9032.172     38.407   3.440  8.93879E-01  9.97557E-01 -1.03678E-01
    9033.226     39.462   3.480  9.05666E-01  9.96737E-01 -9.10707E-02
    9034.293     40.528   3.520  9.18437E-01  9.96047E-01 -7.76096E-02
    9035.372     41.607   3.560  9.31271E-01  9.95506E-01 -6.42354E-02
    9036.463     42.699   3.600  9.43805E-01  9.95070E-01 -5.12655E-02
    9037.567     43.802   3.640  9.56237E-01  9.94760E-01 -3.85225E-02
    9038.682     44.918   3.680  9.68836E-01  9.94596E-01 -2.57607E-02
    9039.810     46.045   3.720  9.81652E-01  9.94556E-01 -1.29042E-02
    9040.950     47.185   3.760  9.94394E-01  9.94618E-01 -2.23663E-04
    9042.102     48.337   3.800  1.00652E+00  9.94821E-01  1.16970E-02
    9043.266     49.502   3.840  1.01733E+00  9.95121E-01  2.22121E-02
    9044.443     50.678   3.880  1.02656E+00  9.95536E-01  3.10226E-02
    9045.632     51.867   3.920  1.03434E+00  9.96044E-01  3.82925E-02
    9046.833     53.068   3.960  1.04120E+00  9.96664E-01  4.45376E-02
    9048.046     54.281   4.000  1.04775E+00  9.97372E-01  5.03752E-02
    9049.271     55.506   4.040  1.05442E+00  9.98164E-01  5.62566E-02
    9050.509     56.744   4.080  1.06125E+00  9.99037E-01  6.22175E-02
    9051.758     57.993   4.120  1.06779E+00  9.99990E-01  6.77982E-02
    9053.020     59.255   4.160  1.07318E+00  1.00102E+00  7.21626E-02
    9054.294     60.529   4.200  1.07647E+00  1.00210E+00  7.43645E-02
    9055.580     61.816   4.240  1.07698E+00  1.00326E+00  7.37271E-02
    9056.879     63.114   4.280  1.07437E+00  1.00445E+00  6.99190E-02
    9058.189     64.425   4.320  1.06877E+00  1.00569E+00  6.30738E-02
    9059.512     65.748   4.360  1.06087E+00  1.00697E+00  5.39027E-02
    9060.847     67.083   4.400  1.05194E+00  1.00826E+00  4.36841E-02
    9062.194     68.430   4.440  1.04354E+00  1.00958E+00  3.39528E-02
    9063.554     69.789   4.480  1.03707E+00  1.01094E+00  2.61359E-02
    9064.925     71.161   4.520  1.03354E+00  1.01229E+00  2.12481E-02
    9066.309     72.545   4.560  1.03340E+00  1.01365E+00  1.97429E-02
    9067.705     73.940   4.600  1.03640E+00  1.01501E+00  2.13895E-02
    9069.113     75.349   4.640  1.04165E+00  1.01633E+00  2.53188E-02
    9070.534     76.769   4.680  1.04795E+00  1.01765E+00  3.03039E-02
    9071.966     78.202   4.720  1.05415E+00  1.01896E+00  3.51897E-02
    9073.411     79.646   4.760  1.05945E+00  1.02023E+00  3.92206E-02
    9074.868     81.103   4.800  1.06353E+00  1.02146E+00  4.20749E-02
    9076.337     82.572   4.840  1.06632E+00  1.02264E+00  4.36752E-02
    9077.818     84.054   4.880  1.06769E+00  1.02376E+00  4.39353E-02
    9079.312     85.547   4.920  1.06746E+00  1.02485E+00  4.26103E-02
    9080.818     87.053   4.960  1.06519E+00  1.02587E+00  3.93209E-02
    9082.336     88.571   5.000  1.06055E+00  1.02684E+00  3.37025E-02
    9083.866     90.101   5.040  1.05336E+00  1.02774E+00  2.56245E-02
    9085.408     91.643   5.080  1.04393E+00  1.02855E+00  1.53799E-02
    9086.962     93.198   5.120  1.03294E+00  1.02931E+00  3.63372E-03
    9088.529     94.764   5.160  1.02110E+00  1.02996E+00 -8.85981E-03
    9090.108     96.343   5.200  1.00911E+00  1.03056E+00 -2.14516E-02
    9091.699     97.934   5.240  9.97474E-01  1.03107E+00 -3.35996E-02
    9093.302     99.537   5.280  9.86756E-01  1.03151E+00 -4.47498E-02
    9094.918    101.153   5.320  9.77471E-01  1.03185E+00 -5.43816E-02
    9096.545    102.781   5.360  9.69959E-01  1.03212E+00 -6.21567E-02
    9098.185    104.420   5.400  9.64303E-01  1.03229E+00 -6.79901E-02
    9099.837    106.072   5.440  9.60385E-01  1.03236E+00 -7.19776E-02
    9101.501    107.737   5.480  9.58155E-01  1.03237E+00 -7.42181E-02
    9103.178    109.413   5.520  9.57634E-01  1.03230E+00 -7.46678E-02
    9104.866    111.102   5.560  9.59095E-01  1.03215E+00 -7.30535E-02
    9106.567    112.802   5.600  9.62733E-01  1.03191E+00 -6.91790E-02
    9108.280    114.515   5.640  9.68247E-01  1.03159E+00 -6.33476E-02
    9110.005    116.240   5.680  9.74871E-01  1.03120E+00 -5.63254E-02
    9111.743    117.978   5.720  9.81895E-01  1.03072E+00 -4.88269E-02
    9113.492    119.727   5.760  9.89178E-01  1.03020E+00 -4.10173E-02
    9115.254    121.489   5.800  9.97131E-01  1.02960E+00 -3.24652E-02
    9117.028    123.263   5.840  1.00635E+00  1.02895E+00 -2.26066E-02
    9118.814    125.049   5.880  1.01689E+00  1.02824E+00 -1.13460E-02
    9120.612    126.847   5.920  1.02809E+00  1.02749E+00  6.03221E-04
    9122.423    128.658   5.960  1.03849E+00  1.02670E+00  1.17830E-02
    9124.245    130.481   6.000  1.04638E+00  1.02584E+00  2.05364E-02
