# # comment:                                                     FEFF 9.9.1  
# # Source:
# # Structure
# # Reduced
# # space
# # abc:
# # angles:
# # sites:
# # POT  SCF 100  7.0000   0, screened core-hole, AFOLP (folp(0)= 1.150)
# # Abs   Z=29 Rmt= 1.279 Rnm= 1.356 K  shell
# # Pot 1 Z=26 Rmt= 1.339 Rnm= 1.439
# # Pot 2 Z=29 Rmt= 1.271 Rnm= 1.352
# # Pot 3 Z=34 Rmt= 1.123 Rnm= 1.341
# # Pot 4 Z= 8 Rmt= 0.964 Rnm= 1.075
# # Gam_ch=1.729E+00 H-L exch Vi= 0.000E+00 Vr= 0.000E+00
# # Mu=-6.021E+00eV kf=2.291E+00 Vint=-1.600E+01eV Rs_int= 1.583
# FMS rfms= 9.0000
# # PATH  Rmax=-1.000,  Keep_limit= 0.00, Heap_limit 0.00  Pwcrit= 2.50%
#  S02=0.950  Temp=   0.00  Debye_temp=   0.00  Global_sig2= 0.00000
#  Energy zero shift, vr, vi    0.00000E+00   0.00000E+00
#  Curved wave amplitude ratio filter   4.000%
#     file         sig2 tot  cw amp ratio   deg  nlegs   reff  inp sig2
#     0/   0 paths used
#  xsedge+ 50, used to normalize mu           2.4694E-04
#  -----------------------------------------------------------------------
#  omega    e    k    mu    mu0     chi     @#
    8983.369     -9.831  -1.000  4.33340E-02  5.52813E-02 -1.19473E-02
    8983.667     -9.533  -0.960  4.59591E-02  5.93547E-02 -1.33956E-02
    8983.954     -9.246  -0.920  4.88424E-02  6.38869E-02 -1.50445E-02
    8984.228     -8.972  -0.880  5.20223E-02  6.89462E-02 -1.69239E-02
    8984.490     -8.710  -0.840  5.55438E-02  7.46118E-02 -1.90680E-02
    8984.740     -8.460  -0.800  5.94601E-02  8.09759E-02 -2.15159E-02
    8984.978     -8.222  -0.760  6.38327E-02  8.81443E-02 -2.43115E-02
    8985.203     -7.997  -0.720  6.87326E-02  9.62365E-02 -2.75038E-02
    8985.417     -7.783  -0.680  7.42388E-02  1.05384E-01 -3.11455E-02
    8985.618     -7.582  -0.640  8.04360E-02  1.15727E-01 -3.52912E-02
    8985.807     -7.393  -0.600  8.74083E-02  1.27402E-01 -3.99936E-02
    8985.984     -7.216  -0.560  9.52287E-02  1.40526E-01 -4.52970E-02
    8986.148     -7.052  -0.520  1.03941E-01  1.55169E-01 -5.12273E-02
    8986.301     -6.899  -0.480  1.13537E-01  1.71316E-01 -5.77789E-02
    8986.441     -6.759  -0.440  1.23927E-01  1.88826E-01 -6.48993E-02
    8986.569     -6.631  -0.400  1.34917E-01  2.07393E-01 -7.24761E-02
    8986.685     -6.515  -0.360  1.46202E-01  2.26533E-01 -8.03311E-02
    8986.788     -6.412  -0.320  1.57390E-01  2.45620E-01 -8.82297E-02
    8986.880     -6.320  -0.280  1.68055E-01  2.63959E-01 -9.59036E-02
    8986.959     -6.241  -0.240  1.77800E-01  2.80882E-01 -1.03082E-01
    8987.026     -6.174  -0.200  1.86310E-01  2.95832E-01 -1.09521E-01
    8987.081     -6.119  -0.160  1.93380E-01  3.08401E-01 -1.15021E-01
    8987.124     -6.076  -0.120  1.98900E-01  3.18333E-01 -1.19433E-01
    8987.154     -6.046  -0.080  2.02830E-01  3.25485E-01 -1.22655E-01
    8987.179     -6.021   0.000  2.05936E-01  3.31229E-01 -1.25292E-01
    8987.233     -5.967   0.120  2.12856E-01  3.44180E-01 -1.31324E-01
    8987.276     -5.924   0.160  2.18169E-01  3.54232E-01 -1.36062E-01
    8987.331     -5.869   0.200  2.24816E-01  3.67050E-01 -1.42234E-01
    8987.398     -5.802   0.240  2.32616E-01  3.82470E-01 -1.49854E-01
    8987.477     -5.723   0.280  2.41226E-01  4.00130E-01 -1.58904E-01
    8987.569     -5.631   0.320  2.50247E-01  4.19583E-01 -1.69337E-01
    8987.672     -5.528   0.360  2.59186E-01  4.40230E-01 -1.81045E-01
    8987.788     -5.412   0.400  2.67600E-01  4.61458E-01 -1.93857E-01
    8987.916     -5.284   0.440  2.75105E-01  4.82682E-01 -2.07576E-01
    8988.056     -5.144   0.480  2.81533E-01  5.03491E-01 -2.21958E-01
    8988.209     -4.991   0.520  2.86972E-01  5.23591E-01 -2.36619E-01
    8988.373     -4.827   0.560  2.91759E-01  5.42814E-01 -2.51055E-01
    8988.550     -4.650   0.600  2.96627E-01  5.61168E-01 -2.64541E-01
    8988.739     -4.461   0.640  3.02401E-01  5.78695E-01 -2.76294E-01
    8988.940     -4.260   0.680  3.09846E-01  5.95499E-01 -2.85653E-01
    8989.154     -4.046   0.720  3.19211E-01  6.11656E-01 -2.92446E-01
    8989.379     -3.821   0.760  3.30093E-01  6.27285E-01 -2.97192E-01
    8989.617     -3.583   0.800  3.41555E-01  6.42471E-01 -3.00916E-01
    8989.867     -3.333   0.840  3.52974E-01  6.57288E-01 -3.04313E-01
    8990.129     -3.071   0.880  3.65096E-01  6.71814E-01 -3.06719E-01
    8990.403     -2.797   0.920  3.79576E-01  6.86075E-01 -3.06499E-01
    8990.690     -2.510   0.960  3.97795E-01  7.00124E-01 -3.02329E-01
    8990.988     -2.211   1.000  4.20503E-01  7.13959E-01 -2.93456E-01
    8991.299     -1.901   1.040  4.47924E-01  7.27613E-01 -2.79689E-01
    8991.622     -1.577   1.080  4.79273E-01  7.41089E-01 -2.61817E-01
    8991.958     -1.242   1.120  5.13752E-01  7.54384E-01 -2.40632E-01
    8992.305     -0.895   1.160  5.51904E-01  7.67487E-01 -2.15583E-01
    8992.665     -0.535   1.200  5.94268E-01  7.80366E-01 -1.86097E-01
    8993.037     -0.163   1.240  6.39121E-01  7.93045E-01 -1.53924E-01
    8993.421      0.221   1.280  6.82136E-01  8.05461E-01 -1.23325E-01
    8993.817      0.617   1.320  7.17274E-01  8.17635E-01 -1.00361E-01
    8994.225      1.026   1.360  7.39298E-01  8.29543E-01 -9.02452E-02
    8994.646      1.446   1.400  7.51207E-01  8.41141E-01 -8.99338E-02
    8995.079      1.879   1.440  7.63575E-01  8.52423E-01 -8.88483E-02
    8995.524      2.324   1.480  7.83236E-01  8.63364E-01 -8.01285E-02
    8995.981      2.781   1.520  8.14609E-01  8.73958E-01 -5.93492E-02
    8996.450      3.251   1.560  8.66336E-01  8.84159E-01 -1.78237E-02
    8996.932      3.732   1.600  9.43346E-01  8.94005E-01  4.93410E-02
    8997.426      4.226   1.640  1.04392E+00  9.03429E-01  1.40488E-01
    8997.932      4.732   1.680  1.16334E+00  9.12470E-01  2.50873E-01
    8998.450      5.250   1.720  1.28946E+00  9.21062E-01  3.68402E-01
    8998.980      5.780   1.760  1.40452E+00  9.29246E-01  4.75276E-01
    8999.523      6.323   1.800  1.49637E+00  9.36999E-01  5.59368E-01
    9000.078      6.878   1.840  1.56149E+00  9.44323E-01  6.17165E-01
    9000.645      7.445   1.880  1.59085E+00  9.51197E-01  6.39655E-01
    9001.224      8.024   1.920  1.57122E+00  9.57643E-01  6.13573E-01
    9001.815      8.615   1.960  1.50121E+00  9.63663E-01  5.37551E-01
    9002.418      9.219   2.000  1.39447E+00  9.69263E-01  4.25210E-01
    9003.034      9.834   2.040  1.28063E+00  9.74466E-01  3.06167E-01
    9003.662     10.462   2.080  1.18494E+00  9.79234E-01  2.05709E-01
    9004.302     11.102   2.120  1.11194E+00  9.83615E-01  1.28329E-01
    9004.954     11.754   2.160  1.05676E+00  9.87594E-01  6.91703E-02
    9005.619     12.419   2.200  1.01686E+00  9.91198E-01  2.56573E-02
    9006.295     13.096   2.240  9.91868E-01  9.94456E-01 -2.58794E-03
    9006.984     13.784   2.280  9.80047E-01  9.97353E-01 -1.73061E-02
    9007.685     14.485   2.320  9.77031E-01  9.99937E-01 -2.29060E-02
    9008.399     15.199   2.360  9.78104E-01  1.00218E+00 -2.40737E-02
    9009.124     15.924   2.400  9.82345E-01  1.00414E+00 -2.17994E-02
    9009.862     16.662   2.440  9.90721E-01  1.00580E+00 -1.50795E-02
    9010.611     17.412   2.480  1.00114E+00  1.00720E+00 -6.05713E-03
    9011.373     18.174   2.520  1.01125E+00  1.00835E+00  2.90236E-03
    9012.148     18.948   2.560  1.02002E+00  1.00925E+00  1.07717E-02
    9012.934     19.734   2.600  1.02329E+00  1.00994E+00  1.33456E-02
    9013.733     20.533   2.640  1.01565E+00  1.01043E+00  5.22416E-03
    9014.543     21.343   2.680  9.96283E-01  1.01074E+00 -1.44559E-02
    9015.366     22.166   2.720  9.71127E-01  1.01086E+00 -3.97297E-02
    9016.201     23.002   2.760  9.49631E-01  1.01081E+00 -6.11821E-02
    9017.049     23.849   2.800  9.32802E-01  1.01064E+00 -7.78330E-02
    9017.908     24.708   2.840  9.20352E-01  1.01033E+00 -8.99790E-02
    9018.780     25.580   2.880  9.11608E-01  1.00991E+00 -9.82983E-02
    9019.664     26.464   2.920  9.05907E-01  1.00939E+00 -1.03483E-01
    9020.560     27.360   2.960  9.02833E-01  1.00879E+00 -1.05953E-01
    9021.468     28.268   3.000  9.01665E-01  1.00808E+00 -1.06415E-01
    9022.389     29.189   3.040  9.01431E-01  1.00734E+00 -1.05909E-01
    9023.322     30.122   3.080  9.01219E-01  1.00651E+00 -1.05290E-01
    9024.266     31.066   3.120  9.00649E-01  1.00566E+00 -1.05006E-01
    9025.223     32.024   3.160  8.99842E-01  1.00476E+00 -1.04921E-01
    9026.193     32.993   3.200  8.99590E-01  1.00386E+00 -1.04267E-01
    9027.174     33.974   3.240  9.00829E-01  1.00292E+00 -1.02092E-01
    9028.168     34.968   3.280  9.03912E-01  1.00198E+00 -9.80676E-02
    9029.174     35.974   3.320  9.08906E-01  1.00104E+00 -9.21298E-02
    9030.192     36.992   3.360  9.15657E-01  1.00009E+00 -8.44355E-02
    9031.222     38.022   3.400  9.23783E-01  9.99153E-01 -7.53697E-02
    9032.264     39.064   3.440  9.32746E-01  9.98243E-01 -6.54969E-02
    9033.319     40.119   3.480  9.42022E-01  9.97365E-01 -5.53425E-02
    9034.386     41.186   3.520  9.51245E-01  9.96499E-01 -4.52541E-02
    9035.465     42.265   3.560  9.60289E-01  9.95669E-01 -3.53796E-02
    9036.556     43.356   3.600  9.69388E-01  9.94898E-01 -2.55104E-02
    9037.659     44.459   3.640  9.78845E-01  9.94146E-01 -1.53010E-02
    9038.775     45.575   3.680  9.88870E-01  9.93432E-01 -4.56255E-03
    9039.903     46.703   3.720  9.99396E-01  9.92760E-01  6.63592E-03
    9041.043     47.843   3.760  1.01014E+00  9.92153E-01  1.79889E-02
    9042.195     48.995   3.800  1.02056E+00  9.91589E-01  2.89669E-02
    9043.359     50.159   3.840  1.03009E+00  9.91069E-01  3.90211E-02
    9044.536     51.336   3.880  1.03843E+00  9.90595E-01  4.78368E-02
    9045.724     52.524   3.920  1.04553E+00  9.90186E-01  5.53400E-02
    9046.925     53.725   3.960  1.05134E+00  9.89823E-01  6.15156E-02
    9048.138     54.938   4.000  1.05592E+00  9.89506E-01  6.64146E-02
    9049.364     56.164   4.040  1.05927E+00  9.89256E-01  7.00161E-02
    9050.601     57.401   4.080  1.06127E+00  9.89051E-01  7.22185E-02
    9051.851     58.651   4.120  1.06182E+00  9.88892E-01  7.29279E-02
    9053.113     59.913   4.160  1.06095E+00  9.88799E-01  7.21507E-02
    9054.387     61.187   4.200  1.05871E+00  9.88751E-01  6.99575E-02
    9055.673     62.473   4.240  1.05518E+00  9.88745E-01  6.64339E-02
    9056.971     63.771   4.280  1.05050E+00  9.88783E-01  6.17201E-02
    9058.282     65.082   4.320  1.04488E+00  9.88883E-01  5.59920E-02
    9059.605     66.405   4.360  1.03856E+00  9.89004E-01  4.95527E-02
    9060.940     67.740   4.400  1.03208E+00  9.89185E-01  4.28964E-02
    9062.287     69.087   4.440  1.02596E+00  9.89385E-01  3.65782E-02
    9063.646     70.446   4.480  1.02060E+00  9.89642E-01  3.09571E-02
    9065.018     71.818   4.520  1.01602E+00  9.89915E-01  2.61045E-02
    9066.402     73.202   4.560  1.01205E+00  9.90220E-01  2.18340E-02
    9067.798     74.598   4.600  1.00840E+00  9.90539E-01  1.78635E-02
    9069.206     76.006   4.640  1.00496E+00  9.90912E-01  1.40517E-02
    9070.626     77.426   4.680  1.00172E+00  9.91273E-01  1.04476E-02
    9072.059     78.859   4.720  9.98861E-01  9.91683E-01  7.17748E-03
    9073.504     80.304   4.760  9.96381E-01  9.92080E-01  4.30041E-03
    9074.961     81.761   4.800  9.94169E-01  9.92503E-01  1.66647E-03
    9076.430     83.230   4.840  9.91833E-01  9.92930E-01 -1.09720E-03
    9077.911     84.711   4.880  9.88944E-01  9.93382E-01 -4.43787E-03
    9079.405     86.205   4.920  9.85144E-01  9.93813E-01 -8.66913E-03
    9080.910     87.710   4.960  9.80457E-01  9.94264E-01 -1.38061E-02
    9082.428     89.228   5.000  9.75158E-01  9.94689E-01 -1.95310E-02
    9083.958     90.758   5.040  9.69753E-01  9.95112E-01 -2.53593E-02
    9085.500     92.301   5.080  9.64749E-01  9.95531E-01 -3.07815E-02
    9087.055     93.855   5.120  9.60497E-01  9.95944E-01 -3.54466E-02
    9088.622     95.422   5.160  9.57069E-01  9.96327E-01 -3.92581E-02
    9090.200     97.001   5.200  9.54451E-01  9.96700E-01 -4.22484E-02
    9091.792     98.592   5.240  9.52648E-01  9.97040E-01 -4.43919E-02
    9093.395    100.195   5.280  9.51958E-01  9.97370E-01 -4.54118E-02
    9095.010    101.810   5.320  9.52745E-01  9.97666E-01 -4.49209E-02
    9096.638    103.438   5.360  9.55234E-01  9.97926E-01 -4.26919E-02
    9098.278    105.078   5.400  9.59322E-01  9.98174E-01 -3.88526E-02
    9099.930    106.730   5.440  9.64534E-01  9.98386E-01 -3.38517E-02
    9101.594    108.394   5.480  9.70244E-01  9.98561E-01 -2.83169E-02
    9103.270    110.070   5.520  9.75901E-01  9.98721E-01 -2.28203E-02
    9104.959    111.759   5.560  9.81021E-01  9.98820E-01 -1.77983E-02
    9106.660    113.460   5.600  9.85317E-01  9.98900E-01 -1.35838E-02
    9108.373    115.173   5.640  9.88383E-01  9.98920E-01 -1.05375E-02
    9110.098    116.898   5.680  9.90010E-01  9.98924E-01 -8.91400E-03
    9111.835    118.635   5.720  9.90234E-01  9.98889E-01 -8.65518E-03
    9113.585    120.385   5.760  9.89575E-01  9.98813E-01 -9.23794E-03
    9115.346    122.146   5.800  9.88838E-01  9.98675E-01 -9.83707E-03
    9117.120    123.920   5.840  9.88878E-01  9.98520E-01 -9.64210E-03
    9118.906    125.707   5.880  9.90110E-01  9.98330E-01 -8.21949E-03
    9120.705    127.505   5.920  9.92390E-01  9.98103E-01 -5.71302E-03
    9122.515    129.315   5.960  9.95063E-01  9.97838E-01 -2.77455E-03
    9124.338    131.138   6.000  9.97347E-01  9.97509E-01 -1.61826E-04
