# # comment:                                                     FEFF 9.9.1  
# # Source:
# # Structure
# # Reduced
# # space
# # abc:
# # angles:
# # sites:
# # POT  SCF 100  7.0000   0, screened core-hole, AFOLP (folp(0)= 1.150)
# # Abs   Z=29 Rmt= 1.214 Rnm= 1.292 K  shell
# # Pot 1 Z=56 Rmt= 1.942 Rnm= 1.998
# # Pot 2 Z=69 Rmt= 1.601 Rnm= 1.672
# # Pot 3 Z=29 Rmt= 1.214 Rnm= 1.292
# # Pot 4 Z= 8 Rmt= 1.050 Rnm= 1.104
# # Gam_ch=1.729E+00 H-L exch Vi= 0.000E+00 Vr= 0.000E+00
# # Mu=-8.065E+00eV kf=2.043E+00 Vint=-1.739E+01eV Rs_int= 1.775
# FMS rfms= 9.0000
# # PATH  Rmax=-1.000,  Keep_limit= 0.00, Heap_limit 0.00  Pwcrit= 2.50%
#  S02=0.950  Temp=   0.00  Debye_temp=   0.00  Global_sig2= 0.00000
#  Energy zero shift, vr, vi    0.00000E+00   0.00000E+00
#  Curved wave amplitude ratio filter   4.000%
#     file         sig2 tot  cw amp ratio   deg  nlegs   reff  inp sig2
#     0/   0 paths used
#  xsedge+ 50, used to normalize mu           2.4402E-04
#  -----------------------------------------------------------------------
#  omega    e    k    mu    mu0     chi     @#
    8984.871    -11.875  -1.000  4.11033E-02  5.89346E-02 -1.78313E-02
    8985.169    -11.576  -0.960  4.33280E-02  6.33523E-02 -2.00243E-02
    8985.456    -11.290  -0.920  4.57314E-02  6.82720E-02 -2.25406E-02
    8985.730    -11.015  -0.880  4.83343E-02  7.37683E-02 -2.54340E-02
    8985.992    -10.753  -0.840  5.11608E-02  7.99283E-02 -2.87675E-02
    8986.242    -10.503  -0.800  5.42380E-02  8.68529E-02 -3.26149E-02
    8986.480    -10.265  -0.760  5.75969E-02  9.46581E-02 -3.70612E-02
    8986.705    -10.040  -0.720  6.12715E-02  1.03475E-01 -4.22034E-02
    8986.919     -9.827  -0.680  6.52987E-02  1.13448E-01 -4.81491E-02
    8987.120     -9.625  -0.640  6.97164E-02  1.24730E-01 -5.50132E-02
    8987.309     -9.436  -0.600  7.45602E-02  1.37471E-01 -6.29103E-02
    8987.486     -9.260  -0.560  7.98577E-02  1.51799E-01 -7.19412E-02
    8987.650     -9.095  -0.520  8.56196E-02  1.67792E-01 -8.21721E-02
    8987.803     -8.943  -0.480  9.18284E-02  1.85434E-01 -9.36052E-02
    8987.943     -8.802  -0.440  9.84240E-02  2.04569E-01 -1.06145E-01
    8988.071     -8.674  -0.400  1.05294E-01  2.24863E-01 -1.19569E-01
    8988.187     -8.559  -0.360  1.12271E-01  2.45788E-01 -1.33516E-01
    8988.290     -8.455  -0.320  1.19147E-01  2.66657E-01 -1.47511E-01
    8988.382     -8.364  -0.280  1.25695E-01  2.86711E-01 -1.61016E-01
    8988.461     -8.284  -0.240  1.31705E-01  3.05219E-01 -1.73514E-01
    8988.528     -8.217  -0.200  1.37003E-01  3.21569E-01 -1.84566E-01
    8988.583     -8.162  -0.160  1.41461E-01  3.35317E-01 -1.93856E-01
    8988.626     -8.120  -0.120  1.44995E-01  3.46180E-01 -2.01185E-01
    8988.656     -8.089  -0.080  1.47547E-01  3.54003E-01 -2.06456E-01
    8988.681     -8.065   0.000  1.49598E-01  3.60285E-01 -2.10687E-01
    8988.735     -8.010   0.120  1.54379E-01  3.74450E-01 -2.20071E-01
    8988.778     -7.967   0.160  1.58088E-01  3.85441E-01 -2.27353E-01
    8988.833     -7.912   0.200  1.62910E-01  3.99486E-01 -2.36577E-01
    8988.900     -7.845   0.240  1.68797E-01  4.16325E-01 -2.47528E-01
    8988.979     -7.766   0.280  1.75843E-01  4.35668E-01 -2.59824E-01
    8989.071     -7.675   0.320  1.84009E-01  4.56943E-01 -2.72933E-01
    8989.174     -7.571   0.360  1.93406E-01  4.79518E-01 -2.86112E-01
    8989.290     -7.455   0.400  2.04159E-01  5.02742E-01 -2.98583E-01
    8989.418     -7.327   0.440  2.16402E-01  5.25961E-01 -3.09559E-01
    8989.558     -7.187   0.480  2.30235E-01  5.48699E-01 -3.18464E-01
    8989.711     -7.035   0.520  2.45520E-01  5.70655E-01 -3.25135E-01
    8989.875     -6.870   0.560  2.61685E-01  5.91645E-01 -3.29961E-01
    8990.052     -6.693   0.600  2.77772E-01  6.11634E-01 -3.33862E-01
    8990.241     -6.504   0.640  2.92849E-01  6.30706E-01 -3.37857E-01
    8990.442     -6.303   0.680  3.06600E-01  6.48909E-01 -3.42309E-01
    8990.656     -6.090   0.720  3.19738E-01  6.66367E-01 -3.46629E-01
    8990.881     -5.864   0.760  3.33435E-01  6.83183E-01 -3.49748E-01
    8991.119     -5.626   0.800  3.49166E-01  6.99448E-01 -3.50283E-01
    8991.369     -5.377   0.840  3.68654E-01  7.15241E-01 -3.46587E-01
    8991.631     -5.114   0.880  3.93246E-01  7.30623E-01 -3.37377E-01
    8991.905     -4.840   0.920  4.21635E-01  7.45619E-01 -3.23984E-01
    8992.192     -4.554   0.960  4.48260E-01  7.60263E-01 -3.12002E-01
    8992.491     -4.255   1.000  4.65927E-01  7.74595E-01 -3.08668E-01
    8992.801     -3.944   1.040  4.72023E-01  7.88586E-01 -3.16563E-01
    8993.125     -3.621   1.080  4.71204E-01  8.02279E-01 -3.31075E-01
    8993.460     -3.286   1.120  4.71355E-01  8.15628E-01 -3.44273E-01
    8993.807     -2.938   1.160  4.78205E-01  8.28644E-01 -3.50439E-01
    8994.167     -2.578   1.200  4.92433E-01  8.41314E-01 -3.48881E-01
    8994.539     -2.207   1.240  5.11676E-01  8.53599E-01 -3.41924E-01
    8994.923     -1.823   1.280  5.35059E-01  8.65501E-01 -3.30443E-01
    8995.319     -1.426   1.320  5.62991E-01  8.76979E-01 -3.13988E-01
    8995.728     -1.018   1.360  5.97390E-01  8.88050E-01 -2.90660E-01
    8996.148     -0.597   1.400  6.44099E-01  8.98673E-01 -2.54573E-01
    8996.581     -0.164   1.440  7.09262E-01  9.08845E-01 -1.99583E-01
    8997.026      0.281   1.480  7.93367E-01  9.18543E-01 -1.25176E-01
    8997.483      0.738   1.520  8.98373E-01  9.27766E-01 -2.93934E-02
    8997.953      1.207   1.560  1.03512E+00  9.36493E-01  9.86299E-02
    8998.434      1.689   1.600  1.20727E+00  9.44724E-01  2.62546E-01
    8998.928      2.182   1.640  1.37473E+00  9.52459E-01  4.22273E-01
    8999.434      2.688   1.680  1.47073E+00  9.59700E-01  5.11030E-01
    8999.952      3.207   1.720  1.52577E+00  9.66432E-01  5.59338E-01
    9000.482      3.737   1.760  1.60961E+00  9.72678E-01  6.36935E-01
    9001.025      4.280   1.800  1.68298E+00  9.78441E-01  7.04535E-01
    9001.580      4.834   1.840  1.67814E+00  9.83729E-01  6.94415E-01
    9002.147      5.401   1.880  1.58798E+00  9.88548E-01  5.99435E-01
    9002.726      5.980   1.920  1.46187E+00  9.92927E-01  4.68948E-01
    9003.317      6.572   1.960  1.35029E+00  9.96851E-01  3.53440E-01
    9003.921      7.175   2.000  1.25619E+00  1.00035E+00  2.55836E-01
    9004.536      7.791   2.040  1.17509E+00  1.00346E+00  1.71637E-01
    9005.164      8.419   2.080  1.12139E+00  1.00616E+00  1.15235E-01
    9005.804      9.059   2.120  1.10586E+00  1.00851E+00  9.73530E-02
    9006.456      9.711   2.160  1.11636E+00  1.01051E+00  1.05844E-01
    9007.121     10.375   2.200  1.12213E+00  1.01218E+00  1.09949E-01
    9007.798     11.052   2.240  1.09493E+00  1.01356E+00  8.13742E-02
    9008.486     11.741   2.280  1.03674E+00  1.01464E+00  2.21044E-02
    9009.187     12.442   2.320  9.77324E-01  1.01545E+00 -3.81310E-02
    9009.901     13.155   2.360  9.43329E-01  1.01602E+00 -7.26950E-02
    9010.626     13.881   2.400  9.41985E-01  1.01635E+00 -7.43679E-02
    9011.364     14.618   2.440  9.66452E-01  1.01649E+00 -5.00411E-02
    9012.114     15.368   2.480  1.00986E+00  1.01643E+00 -6.57443E-03
    9012.875     16.130   2.520  1.04999E+00  1.01620E+00  3.37833E-02
    9013.650     16.904   2.560  1.08049E+00  1.01584E+00  6.46562E-02
    9014.436     17.691   2.600  1.09430E+00  1.01532E+00  7.89867E-02
    9015.235     18.489   2.640  1.09028E+00  1.01469E+00  7.55891E-02
    9016.045     19.300   2.680  1.07296E+00  1.01396E+00  5.90027E-02
    9016.868     20.123   2.720  1.04952E+00  1.01315E+00  3.63696E-02
    9017.704     20.958   2.760  1.02590E+00  1.01225E+00  1.36537E-02
    9018.551     21.805   2.800  1.00496E+00  1.01130E+00 -6.33855E-03
    9019.410     22.665   2.840  9.87151E-01  1.01032E+00 -2.31677E-02
    9020.282     23.537   2.880  9.71623E-01  1.00928E+00 -3.76571E-02
    9021.166     24.421   2.920  9.57031E-01  1.00823E+00 -5.11973E-02
    9022.062     25.317   2.960  9.42165E-01  1.00717E+00 -6.50050E-02
    9022.970     26.225   3.000  9.26229E-01  1.00611E+00 -7.98806E-02
    9023.891     27.146   3.040  9.09192E-01  1.00505E+00 -9.58596E-02
    9024.824     28.078   3.080  8.91975E-01  1.00402E+00 -1.12046E-01
    9025.768     29.023   3.120  8.76538E-01  1.00300E+00 -1.26462E-01
    9026.726     29.980   3.160  8.64592E-01  1.00201E+00 -1.37421E-01
    9027.695     30.949   3.200  8.56820E-01  1.00106E+00 -1.44243E-01
    9028.676     31.931   3.240  8.53087E-01  1.00015E+00 -1.47066E-01
    9029.670     32.924   3.280  8.52712E-01  9.99287E-01 -1.46574E-01
    9030.676     33.930   3.320  8.55031E-01  9.98485E-01 -1.43454E-01
    9031.694     34.948   3.360  8.59695E-01  9.97709E-01 -1.38014E-01
    9032.724     35.979   3.400  8.66886E-01  9.97024E-01 -1.30138E-01
    9033.766     37.021   3.440  8.76546E-01  9.96390E-01 -1.19844E-01
    9034.821     38.076   3.480  8.88910E-01  9.95805E-01 -1.06894E-01
    9035.888     39.142   3.520  9.04192E-01  9.95293E-01 -9.11015E-02
    9036.967     40.221   3.560  9.22371E-01  9.94858E-01 -7.24870E-02
    9038.058     41.313   3.600  9.43255E-01  9.94496E-01 -5.12417E-02
    9039.161     42.416   3.640  9.66257E-01  9.94188E-01 -2.79309E-02
    9040.277     43.531   3.680  9.90165E-01  9.93955E-01 -3.78998E-03
    9041.405     44.659   3.720  1.01312E+00  9.93797E-01  1.93249E-02
    9042.545     45.799   3.760  1.03325E+00  9.93692E-01  3.95594E-02
    9043.697     46.951   3.800  1.04908E+00  9.93661E-01  5.54197E-02
    9044.861     48.116   3.840  1.05951E+00  9.93706E-01  6.58057E-02
    9046.038     49.292   3.880  1.06429E+00  9.93824E-01  7.04643E-02
    9047.226     50.481   3.920  1.06395E+00  9.93991E-01  6.99553E-02
    9048.427     51.682   3.960  1.05980E+00  9.94207E-01  6.55926E-02
    9049.640     52.895   4.000  1.05369E+00  9.94492E-01  5.91956E-02
    9050.866     54.120   4.040  1.04733E+00  9.94826E-01  5.25084E-02
    9052.103     55.358   4.080  1.04201E+00  9.95228E-01  4.67795E-02
    9053.353     56.607   4.120  1.03829E+00  9.95675E-01  4.26145E-02
    9054.615     57.869   4.160  1.03630E+00  9.96164E-01  4.01369E-02
    9055.889     59.143   4.200  1.03556E+00  9.96694E-01  3.88691E-02
    9057.175     60.430   4.240  1.03508E+00  9.97264E-01  3.78110E-02
    9058.473     61.728   4.280  1.03374E+00  9.97873E-01  3.58702E-02
    9059.784     63.039   4.320  1.03114E+00  9.98519E-01  3.26189E-02
    9061.107     64.361   4.360  1.02779E+00  9.99198E-01  2.85934E-02
    9062.442     65.696   4.400  1.02476E+00  9.99888E-01  2.48703E-02
    9063.789     67.044   4.440  1.02307E+00  1.00059E+00  2.24825E-02
    9065.148     68.403   4.480  1.02339E+00  1.00134E+00  2.20547E-02
    9066.520     69.775   4.520  1.02613E+00  1.00207E+00  2.40633E-02
    9067.904     71.158   4.560  1.03178E+00  1.00283E+00  2.89579E-02
    9069.300     72.554   4.600  1.04036E+00  1.00356E+00  3.67992E-02
    9070.708     73.963   4.640  1.05107E+00  1.00432E+00  4.67474E-02
    9072.128     75.383   4.680  1.06195E+00  1.00507E+00  5.68720E-02
    9073.561     76.816   4.720  1.07033E+00  1.00580E+00  6.45347E-02
    9075.006     78.260   4.760  1.07389E+00  1.00652E+00  6.73718E-02
    9076.463     79.717   4.800  1.07153E+00  1.00723E+00  6.43001E-02
    9077.932     81.186   4.840  1.06377E+00  1.00792E+00  5.58585E-02
    9079.413     82.668   4.880  1.05236E+00  1.00859E+00  4.37772E-02
    9080.907     84.161   4.920  1.03941E+00  1.00922E+00  3.01867E-02
    9082.412     85.667   4.960  1.02674E+00  1.00982E+00  1.69205E-02
    9083.930     87.185   5.000  1.01548E+00  1.01040E+00  5.08537E-03
    9085.460     88.715   5.040  1.00585E+00  1.01092E+00 -5.06644E-03
    9087.003     90.257   5.080  9.97571E-01  1.01142E+00 -1.38472E-02
    9088.557     91.812   5.120  9.90236E-01  1.01186E+00 -2.16189E-02
    9090.124     93.378   5.160  9.83786E-01  1.01227E+00 -2.84849E-02
    9091.703     94.957   5.200  9.78313E-01  1.01262E+00 -3.43086E-02
    9093.294     96.548   5.240  9.73906E-01  1.01295E+00 -3.90455E-02
    9094.897     98.151   5.280  9.70269E-01  1.01322E+00 -4.29466E-02
    9096.512     99.767   5.320  9.66877E-01  1.01343E+00 -4.65549E-02
    9098.140    101.394   5.360  9.63159E-01  1.01360E+00 -5.04430E-02
    9099.780    103.034   5.400  9.59002E-01  1.01370E+00 -5.47009E-02
    9101.432    104.686   5.440  9.55121E-01  1.01376E+00 -5.86363E-02
    9103.096    106.351   5.480  9.52672E-01  1.01377E+00 -6.10944E-02
    9104.772    108.027   5.520  9.52612E-01  1.01373E+00 -6.11168E-02
    9106.461    109.715   5.560  9.55197E-01  1.01362E+00 -5.84256E-02
    9108.162    111.416   5.600  9.60085E-01  1.01347E+00 -5.33845E-02
    9109.875    113.129   5.640  9.66500E-01  1.01327E+00 -4.67712E-02
    9111.600    114.854   5.680  9.73677E-01  1.01301E+00 -3.93300E-02
    9113.337    116.592   5.720  9.80820E-01  1.01272E+00 -3.19012E-02
    9115.087    118.341   5.760  9.87070E-01  1.01237E+00 -2.52995E-02
    9116.848    120.103   5.800  9.91751E-01  1.01198E+00 -2.02292E-02
    9118.622    121.877   5.840  9.94385E-01  1.01157E+00 -1.71898E-02
    9120.408    123.663   5.880  9.94811E-01  1.01111E+00 -1.62971E-02
    9122.207    125.461   5.920  9.93558E-01  1.01061E+00 -1.70472E-02
    9124.017    127.272   5.960  9.92169E-01  1.01007E+00 -1.78994E-02
    9125.840    129.095   6.000  9.92497E-01  1.00950E+00 -1.69986E-02
