# # comment:                                                     FEFF 9.9.1  
# # Source:
# # Structure
# # Reduced
# # space
# # abc:
# # angles:
# # sites:
# # POT  SCF 100  7.0000   0, screened core-hole, AFOLP (folp(0)= 1.150)
# # Abs   Z=29 Rmt= 1.213 Rnm= 1.294 K  shell
# # Pot 1 Z=56 Rmt= 1.923 Rnm= 1.985
# # Pot 2 Z=68 Rmt= 1.609 Rnm= 1.679
# # Pot 3 Z=29 Rmt= 1.217 Rnm= 1.295
# # Pot 4 Z= 8 Rmt= 1.048 Rnm= 1.103
# # Gam_ch=1.729E+00 H-L exch Vi= 0.000E+00 Vr= 0.000E+00
# # Mu=-8.066E+00eV kf=2.019E+00 Vint=-1.725E+01eV Rs_int= 1.796
# FMS rfms= 9.0000
# # PATH  Rmax=-1.000,  Keep_limit= 0.00, Heap_limit 0.00  Pwcrit= 2.50%
#  S02=0.950  Temp=   0.00  Debye_temp=   0.00  Global_sig2= 0.00000
#  Energy zero shift, vr, vi    0.00000E+00   0.00000E+00
#  Curved wave amplitude ratio filter   4.000%
#     file         sig2 tot  cw amp ratio   deg  nlegs   reff  inp sig2
#     0/   0 paths used
#  xsedge+ 50, used to normalize mu           2.4390E-04
#  -----------------------------------------------------------------------
#  omega    e    k    mu    mu0     chi     @#
    8984.846    -11.875  -1.000  4.26230E-02  5.90208E-02 -1.63977E-02
    8985.145    -11.577  -0.960  4.50415E-02  6.34419E-02 -1.84004E-02
    8985.431    -11.290  -0.920  4.76657E-02  6.83649E-02 -2.06992E-02
    8985.706    -11.016  -0.880  5.05200E-02  7.38642E-02 -2.33442E-02
    8985.968    -10.754  -0.840  5.36324E-02  8.00267E-02 -2.63943E-02
    8986.218    -10.504  -0.800  5.70347E-02  8.69534E-02 -2.99187E-02
    8986.455    -10.266  -0.760  6.07621E-02  9.47599E-02 -3.39978E-02
    8986.681    -10.041  -0.720  6.48536E-02  1.03577E-01 -3.87235E-02
    8986.894     -9.827  -0.680  6.93507E-02  1.13549E-01 -4.41986E-02
    8987.096     -9.626  -0.640  7.42957E-02  1.24829E-01 -5.05331E-02
    8987.284     -9.437  -0.600  7.97284E-02  1.37565E-01 -5.78371E-02
    8987.461     -9.260  -0.560  8.56797E-02  1.51888E-01 -6.62078E-02
    8987.626     -9.096  -0.520  9.21636E-02  1.67872E-01 -7.57081E-02
    8987.778     -8.943  -0.480  9.91649E-02  1.85502E-01 -8.63374E-02
    8987.918     -8.803  -0.440  1.06626E-01  2.04624E-01 -9.79980E-02
    8988.046     -8.675  -0.400  1.14436E-01  2.24903E-01 -1.10467E-01
    8988.162     -8.559  -0.360  1.22425E-01  2.45811E-01 -1.23386E-01
    8988.266     -8.456  -0.320  1.30375E-01  2.66664E-01 -1.36289E-01
    8988.357     -8.364  -0.280  1.38039E-01  2.86703E-01 -1.48664E-01
    8988.437     -8.285  -0.240  1.45170E-01  3.05197E-01 -1.60027E-01
    8988.504     -8.218  -0.200  1.51547E-01  3.21536E-01 -1.69989E-01
    8988.559     -8.163  -0.160  1.56989E-01  3.35275E-01 -1.78286E-01
    8988.601     -8.120  -0.120  1.61356E-01  3.46132E-01 -1.84776E-01
    8988.632     -8.090  -0.080  1.64549E-01  3.53950E-01 -1.89401E-01
    8988.656     -8.066   0.000  1.67163E-01  3.60229E-01 -1.93066E-01
    8988.711     -8.011   0.120  1.73150E-01  3.74398E-01 -2.01247E-01
    8988.754     -7.968   0.160  1.77837E-01  3.85382E-01 -2.07545E-01
    8988.808     -7.913   0.200  1.83975E-01  3.99415E-01 -2.15440E-01
    8988.876     -7.846   0.240  1.91568E-01  4.16258E-01 -2.24689E-01
    8988.955     -7.767   0.280  2.00721E-01  4.35602E-01 -2.34881E-01
    8989.046     -7.675   0.320  2.11429E-01  4.56879E-01 -2.45449E-01
    8989.150     -7.572   0.360  2.23753E-01  4.79480E-01 -2.55727E-01
    8989.266     -7.456   0.400  2.37710E-01  5.02735E-01 -2.65026E-01
    8989.394     -7.328   0.440  2.53201E-01  5.26015E-01 -2.72814E-01
    8989.534     -7.188   0.480  2.69935E-01  5.48804E-01 -2.78869E-01
    8989.686     -7.035   0.520  2.87369E-01  5.70821E-01 -2.83452E-01
    8989.851     -6.871   0.560  3.04666E-01  5.91906E-01 -2.87240E-01
    8990.028     -6.694   0.600  3.21120E-01  6.12021E-01 -2.90901E-01
    8990.217     -6.505   0.640  3.36577E-01  6.31210E-01 -2.94633E-01
    8990.418     -6.304   0.680  3.51590E-01  6.49559E-01 -2.97969E-01
    8990.631     -6.090   0.720  3.67001E-01  6.67173E-01 -3.00172E-01
    8990.857     -5.865   0.760  3.83504E-01  6.84151E-01 -3.00647E-01
    8991.094     -5.627   0.800  4.01822E-01  7.00586E-01 -2.98764E-01
    8991.344     -5.377   0.840  4.22472E-01  7.16553E-01 -2.94080E-01
    8991.607     -5.115   0.880  4.43963E-01  7.32092E-01 -2.88129E-01
    8991.881     -4.841   0.920  4.61437E-01  7.47270E-01 -2.85833E-01
    8992.167     -4.554   0.960  4.69383E-01  7.62096E-01 -2.92713E-01
    8992.466     -4.256   1.000  4.67726E-01  7.76611E-01 -3.08885E-01
    8992.777     -3.945   1.040  4.62613E-01  7.90784E-01 -3.28171E-01
    8993.100     -3.622   1.080  4.61166E-01  8.04638E-01 -3.43471E-01
    8993.435     -3.286   1.120  4.67118E-01  8.18145E-01 -3.51027E-01
    8993.783     -2.939   1.160  4.80126E-01  8.31317E-01 -3.51192E-01
    8994.142     -2.579   1.200  4.96824E-01  8.44140E-01 -3.47315E-01
    8994.514     -2.207   1.240  5.14010E-01  8.56552E-01 -3.42542E-01
    8994.898     -1.823   1.280  5.32210E-01  8.68576E-01 -3.36365E-01
    8995.295     -1.427   1.320  5.55086E-01  8.80190E-01 -3.25104E-01
    8995.703     -1.019   1.360  5.88232E-01  8.91352E-01 -3.03120E-01
    8996.124     -0.598   1.400  6.37708E-01  9.02079E-01 -2.64371E-01
    8996.556     -0.165   1.440  7.08695E-01  9.12327E-01 -2.03633E-01
    8997.001      0.280   1.480  8.02582E-01  9.22076E-01 -1.19494E-01
    8997.459      0.737   1.520  9.16999E-01  9.31342E-01 -1.43422E-02
    8997.928      1.206   1.560  1.05405E+00  9.40103E-01  1.13945E-01
    8998.410      1.688   1.600  1.20989E+00  9.48363E-01  2.61524E-01
    8998.903      2.182   1.640  1.33876E+00  9.56099E-01  3.82663E-01
    8999.409      2.688   1.680  1.39554E+00  9.63314E-01  4.32223E-01
    8999.928      3.206   1.720  1.43598E+00  9.70033E-01  4.65942E-01
    9000.458      3.736   1.760  1.51845E+00  9.76241E-01  5.42212E-01
    9001.000      4.279   1.800  1.60589E+00  9.81960E-01  6.23934E-01
    9001.555      4.834   1.840  1.62101E+00  9.87200E-01  6.33807E-01
    9002.122      5.401   1.880  1.54967E+00  9.91944E-01  5.57729E-01
    9002.701      5.980   1.920  1.44130E+00  9.96244E-01  4.45052E-01
    9003.293      6.571   1.960  1.33830E+00  1.00009E+00  3.38211E-01
    9003.896      7.174   2.000  1.25080E+00  1.00350E+00  2.47294E-01
    9004.512      7.790   2.040  1.17919E+00  1.00652E+00  1.72667E-01
    9005.140      8.418   2.080  1.13489E+00  1.00913E+00  1.25761E-01
    9005.780      9.058   2.120  1.12486E+00  1.01136E+00  1.13498E-01
    9006.432      9.710   2.160  1.13304E+00  1.01325E+00  1.19787E-01
    9007.096     10.375   2.200  1.12684E+00  1.01483E+00  1.12009E-01
    9007.773     11.051   2.240  1.08572E+00  1.01608E+00  6.96408E-02
    9008.462     11.740   2.280  1.02346E+00  1.01704E+00  6.42057E-03
    9009.163     12.441   2.320  9.71545E-01  1.01773E+00 -4.61889E-02
    9009.876     13.155   2.360  9.51625E-01  1.01818E+00 -6.65594E-02
    9010.602     13.880   2.400  9.65770E-01  1.01842E+00 -5.26459E-02
    9011.339     14.618   2.440  1.00705E+00  1.01844E+00 -1.13848E-02
    9012.089     15.367   2.480  1.05271E+00  1.01826E+00  3.44489E-02
    9012.851     16.129   2.520  1.08751E+00  1.01793E+00  6.95820E-02
    9013.625     16.904   2.560  1.10669E+00  1.01745E+00  8.92444E-02
    9014.412     17.690   2.600  1.10939E+00  1.01681E+00  9.25814E-02
    9015.210     18.489   2.640  1.09875E+00  1.01610E+00  8.26561E-02
    9016.021     19.299   2.680  1.08001E+00  1.01527E+00  6.47421E-02
    9016.844     20.122   2.720  1.05857E+00  1.01435E+00  4.42106E-02
    9017.679     20.957   2.760  1.03790E+00  1.01336E+00  2.45382E-02
    9018.526     21.805   2.800  1.01909E+00  1.01232E+00  6.76952E-03
    9019.386     22.664   2.840  1.00191E+00  1.01126E+00 -9.34879E-03
    9020.258     23.536   2.880  9.85565E-01  1.01014E+00 -2.45745E-02
    9021.142     24.420   2.920  9.69252E-01  1.00901E+00 -3.97550E-02
    9022.038     25.316   2.960  9.52390E-01  1.00787E+00 -5.54811E-02
    9022.946     26.224   3.000  9.34723E-01  1.00675E+00 -7.20322E-02
    9023.866     27.145   3.040  9.16459E-01  1.00562E+00 -8.91623E-02
    9024.799     28.078   3.080  8.98621E-01  1.00452E+00 -1.05897E-01
    9025.744     29.022   3.120  8.83014E-01  1.00345E+00 -1.20433E-01
    9026.701     29.979   3.160  8.70903E-01  1.00241E+00 -1.31509E-01
    9027.670     30.949   3.200  8.62687E-01  1.00142E+00 -1.38730E-01
    9028.652     31.930   3.240  8.58030E-01  1.00044E+00 -1.42411E-01
    9029.645     32.924   3.280  8.56213E-01  9.99553E-01 -1.43340E-01
    9030.651     33.930   3.320  8.56396E-01  9.98690E-01 -1.42294E-01
    9031.669     34.948   3.360  8.58271E-01  9.97897E-01 -1.39626E-01
    9032.700     35.978   3.400  8.62220E-01  9.97176E-01 -1.34956E-01
    9033.742     37.020   3.440  8.68614E-01  9.96506E-01 -1.27892E-01
    9034.797     38.075   3.480  8.78089E-01  9.95910E-01 -1.17821E-01
    9035.863     39.142   3.520  8.91131E-01  9.95389E-01 -1.04257E-01
    9036.942     40.221   3.560  9.07832E-01  9.94922E-01 -8.70897E-02
    9038.033     41.312   3.600  9.27888E-01  9.94531E-01 -6.66427E-02
    9039.137     42.415   3.640  9.50410E-01  9.94216E-01 -4.38058E-02
    9040.252     43.531   3.680  9.73905E-01  9.93979E-01 -2.00740E-02
    9041.380     44.659   3.720  9.96467E-01  9.93818E-01  2.64813E-03
    9042.520     45.799   3.760  1.01631E+00  9.93711E-01  2.25944E-02
    9043.672     46.951   3.800  1.03208E+00  9.93679E-01  3.84034E-02
    9044.837     48.115   3.840  1.04292E+00  9.93721E-01  4.92028E-02
    9046.013     49.292   3.880  1.04879E+00  9.93817E-01  5.49766E-02
    9047.202     50.480   3.920  1.05051E+00  9.93985E-01  5.65205E-02
    9048.403     51.681   3.960  1.04925E+00  9.94227E-01  5.50234E-02
    9049.616     52.894   4.000  1.04637E+00  9.94520E-01  5.18491E-02
    9050.841     54.120   4.040  1.04313E+00  9.94880E-01  4.82521E-02
    9052.079     55.357   4.080  1.04049E+00  9.95288E-01  4.51982E-02
    9053.328     56.607   4.120  1.03892E+00  9.95740E-01  4.31795E-02
    9054.590     57.869   4.160  1.03853E+00  9.96235E-01  4.22957E-02
    9055.864     59.143   4.200  1.03892E+00  9.96795E-01  4.21197E-02
    9057.150     60.429   4.240  1.03922E+00  9.97374E-01  4.18468E-02
    9058.449     61.727   4.280  1.03880E+00  9.98012E-01  4.07885E-02
    9059.760     63.038   4.320  1.03764E+00  9.98667E-01  3.89683E-02
    9061.082     64.361   4.360  1.03649E+00  9.99355E-01  3.71379E-02
    9062.417     65.696   4.400  1.03623E+00  1.00008E+00  3.61528E-02
    9063.765     67.043   4.440  1.03738E+00  1.00081E+00  3.65726E-02
    9065.124     68.402   4.480  1.04011E+00  1.00157E+00  3.85415E-02
    9066.496     69.774   4.520  1.04450E+00  1.00234E+00  4.21679E-02
    9067.879     71.158   4.560  1.05078E+00  1.00310E+00  4.76813E-02
    9069.275     72.554   4.600  1.05892E+00  1.00387E+00  5.50468E-02
    9070.684     73.962   4.640  1.06805E+00  1.00464E+00  6.34144E-02
    9072.104     75.382   4.680  1.07639E+00  1.00543E+00  7.09604E-02
    9073.536     76.815   4.720  1.08154E+00  1.00619E+00  7.53569E-02
    9074.981     78.260   4.760  1.08162E+00  1.00692E+00  7.46997E-02
    9076.438     79.717   4.800  1.07594E+00  1.00764E+00  6.83051E-02
    9077.907     81.186   4.840  1.06524E+00  1.00835E+00  5.68843E-02
    9079.389     82.667   4.880  1.05122E+00  1.00903E+00  4.21821E-02
    9080.882     84.160   4.920  1.03609E+00  1.00970E+00  2.63859E-02
    9082.388     85.666   4.960  1.02177E+00  1.01033E+00  1.14335E-02
    9083.906     87.184   5.000  1.00942E+00  1.01092E+00 -1.50415E-03
    9085.436     88.714   5.040  9.99344E-01  1.01147E+00 -1.21298E-02
    9086.978     90.256   5.080  9.91275E-01  1.01198E+00 -2.07089E-02
    9088.533     91.811   5.120  9.84749E-01  1.01245E+00 -2.77008E-02
    9090.099     93.378   5.160  9.79253E-01  1.01287E+00 -3.36191E-02
    9091.678     94.956   5.200  9.74319E-01  1.01323E+00 -3.89089E-02
    9093.269     96.548   5.240  9.69637E-01  1.01356E+00 -4.39231E-02
    9094.872     98.151   5.280  9.64990E-01  1.01383E+00 -4.88374E-02
    9096.488     99.766   5.320  9.60428E-01  1.01407E+00 -5.36418E-02
    9098.115    101.394   5.360  9.56132E-01  1.01422E+00 -5.80886E-02
    9099.755    103.034   5.400  9.52631E-01  1.01435E+00 -6.17152E-02
    9101.407    104.686   5.440  9.50429E-01  1.01440E+00 -6.39749E-02
    9103.071    106.350   5.480  9.49955E-01  1.01442E+00 -6.44608E-02
    9104.748    108.026   5.520  9.51330E-01  1.01438E+00 -6.30505E-02
    9106.436    109.715   5.560  9.54365E-01  1.01428E+00 -5.99126E-02
    9108.137    111.416   5.600  9.58841E-01  1.01415E+00 -5.53071E-02
    9109.850    113.129   5.640  9.64357E-01  1.01393E+00 -4.95728E-02
    9111.575    114.854   5.680  9.70633E-01  1.01369E+00 -4.30566E-02
    9113.313    116.591   5.720  9.77032E-01  1.01341E+00 -3.63739E-02
    9115.062    118.341   5.760  9.82865E-01  1.01306E+00 -3.01899E-02
    9116.824    120.102   5.800  9.87522E-01  1.01266E+00 -2.51401E-02
    9118.598    121.876   5.840  9.90454E-01  1.01223E+00 -2.17749E-02
    9120.384    123.662   5.880  9.91469E-01  1.01176E+00 -2.02896E-02
    9122.182    125.461   5.920  9.91136E-01  1.01125E+00 -2.01178E-02
    9123.993    127.271   5.960  9.91004E-01  1.01071E+00 -1.97106E-02
    9125.816    129.094   6.000  9.92940E-01  1.01014E+00 -1.72005E-02
