# # comment:                                                     FEFF 9.9.1  
# # Source:
# # Structure
# # Reduced
# # space
# # abc:
# # angles:107.586138
# # sites:
# # POT  SCF 100  7.0000   0, screened core-hole, AFOLP (folp(0)= 1.150)
# # Abs   Z=29 Rmt= 1.115 Rnm= 1.255 K  shell
# # Pot 1 Z=56 Rmt= 1.927 Rnm= 1.991
# # Pot 2 Z=38 Rmt= 1.822 Rnm= 1.889
# # Pot 3 Z=29 Rmt= 1.115 Rnm= 1.255
# # Pot 4 Z= 8 Rmt= 1.088 Rnm= 1.145
# # Gam_ch=1.729E+00 H-L exch Vi= 0.000E+00 Vr= 0.000E+00
# # Mu=-9.551E+00eV kf=1.985E+00 Vint=-1.650E+01eV Rs_int= 1.827
# FMS rfms= 9.0000
# # PATH  Rmax=-1.000,  Keep_limit= 0.00, Heap_limit 0.00  Pwcrit= 2.50%
#  S02=0.950  Temp=   0.00  Debye_temp=   0.00  Global_sig2= 0.00000
#  Energy zero shift, vr, vi    0.00000E+00   0.00000E+00
#  Curved wave amplitude ratio filter   4.000%
#     file         sig2 tot  cw amp ratio   deg  nlegs   reff  inp sig2
#     0/   0 paths used
#  xsedge+ 50, used to normalize mu           2.4557E-04
#  -----------------------------------------------------------------------
#  omega    e    k    mu    mu0     chi     @#
    8984.702    -13.361  -1.000  2.89520E-02  5.18860E-02 -2.29340E-02
    8985.001    -13.062  -0.960  3.01348E-02  5.55008E-02 -2.53660E-02
    8985.287    -12.776  -0.920  3.13896E-02  5.95011E-02 -2.81115E-02
    8985.561    -12.501  -0.880  3.27245E-02  6.39419E-02 -3.12174E-02
    8985.824    -12.239  -0.840  3.41487E-02  6.88871E-02 -3.47385E-02
    8986.073    -11.989  -0.800  3.56732E-02  7.44106E-02 -3.87374E-02
    8986.311    -11.751  -0.760  3.73107E-02  8.05969E-02 -4.32862E-02
    8986.537    -11.526  -0.720  3.90753E-02  8.75411E-02 -4.84657E-02
    8986.750    -11.313  -0.680  4.09830E-02  9.53476E-02 -5.43646E-02
    8986.951    -11.111  -0.640  4.30502E-02  1.04126E-01 -6.10763E-02
    8987.140    -10.922  -0.600  4.52927E-02  1.13985E-01 -6.86924E-02
    8987.317    -10.746  -0.560  4.77228E-02  1.25014E-01 -7.72915E-02
    8987.482    -10.581  -0.520  5.03450E-02  1.37267E-01 -8.69221E-02
    8987.634    -10.429  -0.480  5.31504E-02  1.50728E-01 -9.75778E-02
    8987.774    -10.288  -0.440  5.61099E-02  1.65280E-01 -1.09171E-01
    8987.902    -10.160  -0.400  5.91691E-02  1.80675E-01 -1.21506E-01
    8988.018    -10.045  -0.360  6.22484E-02  1.96523E-01 -1.34275E-01
    8988.122     -9.941  -0.320  6.52500E-02  2.12320E-01 -1.47070E-01
    8988.213     -9.849  -0.280  6.80720E-02  2.27501E-01 -1.59429E-01
    8988.292     -9.770  -0.240  7.06249E-02  2.41525E-01 -1.70900E-01
    8988.359     -9.703  -0.200  7.28420E-02  2.53932E-01 -1.81090E-01
    8988.414     -9.648  -0.160  7.46788E-02  2.64383E-01 -1.89705E-01
    8988.457     -9.606  -0.120  7.61052E-02  2.72657E-01 -1.96552E-01
    8988.487     -9.575  -0.080  7.71032E-02  2.78625E-01 -2.01522E-01
    8988.512     -9.551   0.000  7.78505E-02  2.83427E-01 -2.05576E-01
    8988.567     -9.496   0.120  8.02687E-02  2.94264E-01 -2.13995E-01
    8988.609     -9.453   0.160  8.20451E-02  3.02711E-01 -2.20666E-01
    8988.664     -9.398   0.200  8.42671E-02  3.13523E-01 -2.29255E-01
    8988.731     -9.331   0.240  8.68785E-02  3.26576E-01 -2.39698E-01
    8988.811     -9.252   0.280  8.98202E-02  3.41628E-01 -2.51808E-01
    8988.902     -9.161   0.320  9.30750E-02  3.58384E-01 -2.65309E-01
    8989.006     -9.057   0.360  9.65417E-02  3.76383E-01 -2.79841E-01
    8989.121     -8.941   0.400  1.00233E-01  3.95172E-01 -2.94939E-01
    8989.249     -8.813   0.440  1.04117E-01  4.14339E-01 -3.10222E-01
    8989.390     -8.673   0.480  1.08182E-01  4.33562E-01 -3.25380E-01
    8989.542     -8.521   0.520  1.12294E-01  4.52618E-01 -3.40324E-01
    8989.707     -8.356   0.560  1.16274E-01  4.71392E-01 -3.55118E-01
    8989.883     -8.179   0.600  1.19942E-01  4.89896E-01 -3.69954E-01
    8990.072     -7.990   0.640  1.23173E-01  5.08133E-01 -3.84960E-01
    8990.274     -7.789   0.680  1.26100E-01  5.26177E-01 -4.00077E-01
    8990.487     -7.576   0.720  1.29110E-01  5.44090E-01 -4.14979E-01
    8990.713     -7.350   0.760  1.32861E-01  5.61910E-01 -4.29049E-01
    8990.950     -7.112   0.800  1.38143E-01  5.79731E-01 -4.41587E-01
    8991.200     -6.862   0.840  1.45565E-01  5.97549E-01 -4.51985E-01
    8991.462     -6.600   0.880  1.55628E-01  6.15434E-01 -4.59806E-01
    8991.737     -6.326   0.920  1.68383E-01  6.33338E-01 -4.64956E-01
    8992.023     -6.040   0.960  1.83492E-01  6.51307E-01 -4.67815E-01
    8992.322     -5.741   1.000  2.00214E-01  6.69294E-01 -4.69080E-01
    8992.633     -5.430   1.040  2.17924E-01  6.87305E-01 -4.69381E-01
    8992.956     -5.107   1.080  2.36623E-01  7.05301E-01 -4.68678E-01
    8993.291     -4.772   1.120  2.57031E-01  7.23214E-01 -4.66183E-01
    8993.639     -4.424   1.160  2.79826E-01  7.41055E-01 -4.61229E-01
    8993.998     -4.064   1.200  3.04332E-01  7.58728E-01 -4.54395E-01
    8994.370     -3.693   1.240  3.30076E-01  7.76216E-01 -4.46140E-01
    8994.754     -3.309   1.280  3.58559E-01  7.93461E-01 -4.34902E-01
    8995.150     -2.912   1.320  3.92156E-01  8.10402E-01 -4.18246E-01
    8995.559     -2.504   1.360  4.30974E-01  8.27018E-01 -3.96045E-01
    8995.979     -2.083   1.400  4.70067E-01  8.43228E-01 -3.73161E-01
    8996.412     -1.650   1.440  5.02734E-01  8.58992E-01 -3.56257E-01
    8996.857     -1.205   1.480  5.27693E-01  8.74290E-01 -3.46597E-01
    8997.314     -0.748   1.520  5.51962E-01  8.89043E-01 -3.37082E-01
    8997.784     -0.279   1.560  5.83590E-01  9.03234E-01 -3.19644E-01
    8998.265      0.203   1.600  6.20807E-01  9.16851E-01 -2.96043E-01
    8998.759      0.697   1.640  6.65445E-01  9.29838E-01 -2.64393E-01
    8999.265      1.203   1.680  7.26290E-01  9.42164E-01 -2.15873E-01
    8999.783      1.721   1.720  8.02801E-01  9.53841E-01 -1.51040E-01
    9000.314      2.251   1.760  8.78115E-01  9.64823E-01 -8.67072E-02
    9000.856      2.794   1.800  9.45019E-01  9.75104E-01 -3.00851E-02
    9001.411      3.348   1.840  1.02679E+00  9.84704E-01  4.20878E-02
    9001.978      3.915   1.880  1.14471E+00  9.93600E-01  1.51107E-01
    9002.557      4.494   1.920  1.27810E+00  1.00180E+00  2.76301E-01
    9003.148      5.086   1.960  1.36115E+00  1.00930E+00  3.51845E-01
    9003.752      5.689   2.000  1.35820E+00  1.01615E+00  3.42051E-01
    9004.367      6.305   2.040  1.29585E+00  1.02230E+00  2.73551E-01
    9004.995      6.933   2.080  1.22468E+00  1.02784E+00  1.96841E-01
    9005.635      7.573   2.120  1.17790E+00  1.03273E+00  1.45173E-01
    9006.288      8.225   2.160  1.16444E+00  1.03701E+00  1.27433E-01
    9006.952      8.890   2.200  1.18035E+00  1.04071E+00  1.39646E-01
    9007.629      9.566   2.240  1.21612E+00  1.04386E+00  1.72258E-01
    9008.318     10.255   2.280  1.26227E+00  1.04646E+00  2.15813E-01
    9009.019     10.956   2.320  1.31021E+00  1.04858E+00  2.61629E-01
    9009.732     11.669   2.360  1.35182E+00  1.05022E+00  3.01602E-01
    9010.457     12.395   2.400  1.37697E+00  1.05140E+00  3.25570E-01
    9011.195     13.132   2.440  1.37958E+00  1.05217E+00  3.27407E-01
    9011.945     13.882   2.480  1.36445E+00  1.05254E+00  3.11910E-01
    9012.707     14.644   2.520  1.33304E+00  1.05254E+00  2.80493E-01
    9013.481     15.418   2.560  1.29002E+00  1.05223E+00  2.37784E-01
    9014.267     16.205   2.600  1.24330E+00  1.05161E+00  1.91694E-01
    9015.066     17.003   2.640  1.19907E+00  1.05070E+00  1.48374E-01
    9015.877     17.814   2.680  1.16071E+00  1.04953E+00  1.11172E-01
    9016.700     18.637   2.720  1.12958E+00  1.04815E+00  8.14306E-02
    9017.535     19.472   2.760  1.10508E+00  1.04655E+00  5.85284E-02
    9018.382     20.319   2.800  1.08608E+00  1.04477E+00  4.13096E-02
    9019.242     21.179   2.840  1.07178E+00  1.04285E+00  2.89312E-02
    9020.113     22.051   2.880  1.06155E+00  1.04077E+00  2.07756E-02
    9020.997     22.935   2.920  1.05424E+00  1.03858E+00  1.56616E-02
    9021.893     23.831   2.960  1.04799E+00  1.03629E+00  1.17003E-02
    9022.802     24.739   3.000  1.04073E+00  1.03393E+00  6.80276E-03
    9023.722     25.660   3.040  1.03055E+00  1.03149E+00 -9.40885E-04
    9024.655     26.592   3.080  1.01679E+00  1.02902E+00 -1.22349E-02
    9025.600     27.537   3.120  9.99852E-01  1.02650E+00 -2.66471E-02
    9026.557     28.494   3.160  9.80737E-01  1.02399E+00 -4.32513E-02
    9027.526     29.463   3.200  9.60351E-01  1.02145E+00 -6.11019E-02
    9028.508     30.445   3.240  9.39784E-01  1.01892E+00 -7.91342E-02
    9029.501     31.439   3.280  9.19954E-01  1.01644E+00 -9.64829E-02
    9030.507     32.444   3.320  9.01566E-01  1.01395E+00 -1.12385E-01
    9031.525     33.462   3.360  8.85427E-01  1.01152E+00 -1.26093E-01
    9032.555     34.493   3.400  8.71929E-01  1.00914E+00 -1.37207E-01
    9033.598     35.535   3.440  8.61221E-01  1.00682E+00 -1.45602E-01
    9034.652     36.590   3.480  8.53397E-01  1.00455E+00 -1.51153E-01
    9035.719     37.656   3.520  8.48740E-01  1.00236E+00 -1.53622E-01
    9036.798     38.735   3.560  8.47167E-01  1.00023E+00 -1.53065E-01
    9037.889     39.827   3.600  8.48687E-01  9.98195E-01 -1.49509E-01
    9038.993     40.930   3.640  8.53335E-01  9.96245E-01 -1.42910E-01
    9040.108     42.046   3.680  8.61068E-01  9.94404E-01 -1.33337E-01
    9041.236     43.173   3.720  8.71401E-01  9.92628E-01 -1.21227E-01
    9042.376     44.313   3.760  8.83666E-01  9.90961E-01 -1.07295E-01
    9043.528     45.465   3.800  8.96851E-01  9.89410E-01 -9.25586E-02
    9044.692     46.630   3.840  9.09832E-01  9.87947E-01 -7.81149E-02
    9045.869     47.806   3.880  9.21943E-01  9.86597E-01 -6.46541E-02
    9047.058     48.995   3.920  9.33120E-01  9.85338E-01 -5.22182E-02
    9048.259     50.196   3.960  9.43712E-01  9.84194E-01 -4.04821E-02
    9049.472     51.409   4.000  9.54079E-01  9.83165E-01 -2.90862E-02
    9050.697     52.634   4.040  9.64398E-01  9.82229E-01 -1.78304E-02
    9051.934     53.872   4.080  9.74541E-01  9.81407E-01 -6.86632E-03
    9053.184     55.121   4.120  9.84066E-01  9.80700E-01  3.36579E-03
    9054.446     56.383   4.160  9.92467E-01  9.80087E-01  1.23801E-02
    9055.720     57.657   4.200  9.99441E-01  9.79587E-01  1.98541E-02
    9057.006     58.944   4.240  1.00492E+00  9.79200E-01  2.57199E-02
    9058.305     60.242   4.280  1.00922E+00  9.78903E-01  3.03148E-02
    9059.615     61.553   4.320  1.01288E+00  9.78694E-01  3.41884E-02
    9060.938     62.875   4.360  1.01642E+00  9.78594E-01  3.78226E-02
    9062.273     64.211   4.400  1.01999E+00  9.78582E-01  4.14120E-02
    9063.620     65.558   4.440  1.02359E+00  9.78678E-01  4.49098E-02
    9064.980     66.917   4.480  1.02704E+00  9.78836E-01  4.81997E-02
    9066.351     68.289   4.520  1.03033E+00  9.79099E-01  5.12341E-02
    9067.735     69.673   4.560  1.03364E+00  9.79444E-01  5.41978E-02
    9069.131     71.068   4.600  1.03716E+00  9.79867E-01  5.72903E-02
    9070.539     72.477   4.640  1.04101E+00  9.80344E-01  6.06636E-02
    9071.960     73.897   4.680  1.04528E+00  9.80898E-01  6.43845E-02
    9073.392     75.330   4.720  1.04989E+00  9.81527E-01  6.83590E-02
    9074.837     76.774   4.760  1.05444E+00  9.82228E-01  7.22072E-02
    9076.294     78.231   4.800  1.05827E+00  9.82977E-01  7.52947E-02
    9077.763     79.700   4.840  1.06057E+00  9.83769E-01  7.68009E-02
    9079.244     81.182   4.880  1.06061E+00  9.84602E-01  7.60064E-02
    9080.738     82.675   4.920  1.05813E+00  9.85476E-01  7.26583E-02
    9082.244     84.181   4.960  1.05351E+00  9.86389E-01  6.71164E-02
    9083.761     85.699   5.000  1.04750E+00  9.87341E-01  6.01545E-02
    9085.292     87.229   5.040  1.04093E+00  9.88325E-01  5.26057E-02
    9086.834     88.771   5.080  1.03437E+00  9.89320E-01  4.50532E-02
    9088.388     90.326   5.120  1.02817E+00  9.90341E-01  3.78319E-02
    9089.955     91.892   5.160  1.02237E+00  9.91344E-01  3.10293E-02
    9091.534     93.471   5.200  1.01689E+00  9.92373E-01  2.45206E-02
    9093.125     95.062   5.240  1.01146E+00  9.93402E-01  1.80609E-02
    9094.728     96.665   5.280  1.00587E+00  9.94430E-01  1.14381E-02
    9096.344     98.281   5.320  1.00010E+00  9.95452E-01  4.64525E-03
    9097.971     99.909   5.360  9.94331E-01  9.96445E-01 -2.11458E-03
    9099.611    101.548   5.400  9.88960E-01  9.97429E-01 -8.46912E-03
    9101.263    103.200   5.440  9.84363E-01  9.98380E-01 -1.40167E-02
    9102.927    104.865   5.480  9.80759E-01  9.99316E-01 -1.85564E-02
    9104.604    106.541   5.520  9.77900E-01  1.00019E+00 -2.22910E-02
    9106.292    108.230   5.560  9.75267E-01  1.00105E+00 -2.57826E-02
    9107.993    109.930   5.600  9.72236E-01  1.00187E+00 -2.96298E-02
    9109.706    111.643   5.640  9.68453E-01  1.00262E+00 -3.41647E-02
    9111.431    113.368   5.680  9.63977E-01  1.00335E+00 -3.93693E-02
    9113.168    115.106   5.720  9.59186E-01  1.00400E+00 -4.48184E-02
    9114.918    116.855   5.760  9.54601E-01  1.00459E+00 -4.99914E-02
    9116.680    118.617   5.800  9.50676E-01  1.00515E+00 -5.44772E-02
    9118.454    120.391   5.840  9.47734E-01  1.00562E+00 -5.78818E-02
    9120.240    122.177   5.880  9.46342E-01  1.00603E+00 -5.96842E-02
    9122.038    123.975   5.920  9.47070E-01  1.00638E+00 -5.93120E-02
    9123.849    125.786   5.960  9.50174E-01  1.00664E+00 -5.64697E-02
    9125.671    127.609   6.000  9.55595E-01  1.00678E+00 -5.11870E-02
