# # comment:                                                     FEFF 9.9.1  
# # Source:
# # Structure
# # Reduced
# # space
# # abc:
# # angles:
# # sites:
# # POT  SCF 100  7.0000   0, screened core-hole, AFOLP (folp(0)= 1.150)
# # Abs   Z=29 Rmt= 1.183 Rnm= 1.274 K  shell
# # Pot 1 Z=38 Rmt= 1.797 Rnm= 1.867
# # Pot 2 Z=29 Rmt= 1.173 Rnm= 1.270
# # Pot 3 Z=83 Rmt= 1.511 Rnm= 1.689
# # Pot 4 Z= 8 Rmt= 1.051 Rnm= 1.102
# # Gam_ch=1.729E+00 H-L exch Vi= 0.000E+00 Vr= 0.000E+00
# # Mu=-8.301E+00eV kf=1.937E+00 Vint=-1.711E+01eV Rs_int= 1.873
# FMS rfms= 9.0000
# # PATH  Rmax=-1.000,  Keep_limit= 0.00, Heap_limit 0.00  Pwcrit= 2.50%
#  S02=0.950  Temp=   0.00  Debye_temp=   0.00  Global_sig2= 0.00000
#  Energy zero shift, vr, vi    0.00000E+00   0.00000E+00
#  Curved wave amplitude ratio filter   4.000%
#     file         sig2 tot  cw amp ratio   deg  nlegs   reff  inp sig2
#     0/   0 paths used
#  xsedge+ 50, used to normalize mu           2.4345E-04
#  -----------------------------------------------------------------------
#  omega    e    k    mu    mu0     chi     @#
    8985.086    -12.111  -1.000  4.08809E-02  5.88120E-02 -1.79310E-02
    8985.384    -11.813  -0.960  4.31420E-02  6.32014E-02 -2.00595E-02
    8985.671    -11.526  -0.920  4.55961E-02  6.80871E-02 -2.24911E-02
    8985.945    -11.252  -0.880  4.82688E-02  7.35426E-02 -2.52738E-02
    8986.207    -10.990  -0.840  5.11901E-02  7.96536E-02 -2.84635E-02
    8986.457    -10.740  -0.800  5.43952E-02  8.65194E-02 -3.21242E-02
    8986.695    -10.502  -0.760  5.79249E-02  9.42539E-02 -3.63290E-02
    8986.920    -10.277  -0.720  6.18259E-02  1.02986E-01 -4.11603E-02
    8987.134    -10.063  -0.680  6.61503E-02  1.12858E-01 -4.67077E-02
    8987.335     -9.862  -0.640  7.09539E-02  1.24020E-01 -5.30657E-02
    8987.524     -9.673  -0.600  7.62914E-02  1.36618E-01 -6.03266E-02
    8987.701     -9.496  -0.560  8.22095E-02  1.50779E-01 -6.85699E-02
    8987.865     -9.332  -0.520  8.87337E-02  1.66579E-01 -7.78453E-02
    8988.018     -9.179  -0.480  9.58514E-02  1.84001E-01 -8.81496E-02
    8988.158     -9.039  -0.440  1.03492E-01  2.02892E-01 -9.94003E-02
    8988.286     -8.911  -0.400  1.11510E-01  2.22923E-01 -1.11412E-01
    8988.402     -8.795  -0.360  1.19684E-01  2.43574E-01 -1.23890E-01
    8988.505     -8.692  -0.320  1.27728E-01  2.64169E-01 -1.36442E-01
    8988.597     -8.600  -0.280  1.35338E-01  2.83962E-01 -1.48623E-01
    8988.676     -8.521  -0.240  1.42238E-01  3.02230E-01 -1.59992E-01
    8988.743     -8.454  -0.200  1.48218E-01  3.18373E-01 -1.70155E-01
    8988.798     -8.399  -0.160  1.53148E-01  3.31950E-01 -1.78801E-01
    8988.841     -8.356  -0.120  1.56975E-01  3.42680E-01 -1.85705E-01
    8988.871     -8.326  -0.080  1.59691E-01  3.50409E-01 -1.90717E-01
    8988.896     -8.301   0.000  1.61845E-01  3.56617E-01 -1.94772E-01
    8988.950     -8.247   0.120  1.66474E-01  3.70602E-01 -2.04129E-01
    8988.993     -8.204   0.160  1.69999E-01  3.81477E-01 -2.11478E-01
    8989.048     -8.149   0.200  1.74345E-01  3.95357E-01 -2.21011E-01
    8989.115     -8.082   0.240  1.79359E-01  4.12050E-01 -2.32691E-01
    8989.194     -8.003   0.280  1.84768E-01  4.31196E-01 -2.46428E-01
    8989.286     -7.911   0.320  1.90267E-01  4.52281E-01 -2.62013E-01
    8989.389     -7.808   0.360  1.95664E-01  4.74730E-01 -2.79066E-01
    8989.505     -7.692   0.400  2.00768E-01  4.97828E-01 -2.97060E-01
    8989.633     -7.564   0.440  2.05620E-01  5.20998E-01 -3.15379E-01
    8989.773     -7.424   0.480  2.10501E-01  5.43757E-01 -3.33256E-01
    8989.926     -7.271   0.520  2.15770E-01  5.65768E-01 -3.49998E-01
    8990.090     -7.107   0.560  2.21955E-01  5.86934E-01 -3.64979E-01
    8990.267     -6.930   0.600  2.29477E-01  6.07155E-01 -3.77678E-01
    8990.456     -6.741   0.640  2.38843E-01  6.26514E-01 -3.87672E-01
    8990.657     -6.540   0.680  2.50573E-01  6.45075E-01 -3.94503E-01
    8990.871     -6.326   0.720  2.65425E-01  6.62977E-01 -3.97552E-01
    8991.096     -6.101   0.760  2.84238E-01  6.80256E-01 -3.96018E-01
    8991.334     -5.863   0.800  3.08166E-01  6.97038E-01 -3.88872E-01
    8991.584     -5.613   0.840  3.38320E-01  7.13356E-01 -3.75036E-01
    8991.846     -5.351   0.880  3.75557E-01  7.29308E-01 -3.53751E-01
    8992.120     -5.077   0.920  4.19901E-01  7.44892E-01 -3.24992E-01
    8992.407     -4.790   0.960  4.69978E-01  7.60138E-01 -2.90160E-01
    8992.706     -4.492   1.000  5.22102E-01  7.75083E-01 -2.52982E-01
    8993.016     -4.181   1.040  5.69590E-01  7.89693E-01 -2.20103E-01
    8993.340     -3.858   1.080  6.03830E-01  8.03965E-01 -2.00135E-01
    8993.675     -3.522   1.120  6.18160E-01  8.17913E-01 -1.99753E-01
    8994.022     -3.175   1.160  6.13941E-01  8.31504E-01 -2.17564E-01
    8994.382     -2.815   1.200  6.01996E-01  8.44720E-01 -2.42724E-01
    8994.754     -2.443   1.240  5.95080E-01  8.57542E-01 -2.62462E-01
    8995.138     -2.059   1.280  6.02403E-01  8.69927E-01 -2.67523E-01
    8995.534     -1.663   1.320  6.31657E-01  8.81894E-01 -2.50237E-01
    8995.942     -1.255   1.360  6.89984E-01  8.93397E-01 -2.03413E-01
    8996.363     -0.834   1.400  7.79411E-01  9.04414E-01 -1.25002E-01
    8996.796     -0.401   1.440  8.82968E-01  9.14919E-01 -3.19505E-02
    8997.241      0.044   1.480  9.53202E-01  9.24930E-01  2.82718E-02
    8997.698      0.501   1.520  9.53774E-01  9.34405E-01  1.93692E-02
    8998.168      0.970   1.560  9.16012E-01  9.43364E-01 -2.73520E-02
    8998.649      1.452   1.600  8.88909E-01  9.51786E-01 -6.28774E-02
    8999.143      1.946   1.640  8.91432E-01  9.59651E-01 -6.82191E-02
    8999.649      2.452   1.680  9.29127E-01  9.66982E-01 -3.78552E-02
    9000.167      2.970   1.720  1.00522E+00  9.73783E-01  3.14327E-02
    9000.697      3.500   1.760  1.11792E+00  9.80059E-01  1.37856E-01
    9001.240      4.043   1.800  1.25228E+00  9.85816E-01  2.66464E-01
    9001.795      4.598   1.840  1.35807E+00  9.91039E-01  3.67036E-01
    9002.362      5.165   1.880  1.39488E+00  9.95798E-01  3.99080E-01
    9002.941      5.744   1.920  1.38996E+00  1.00004E+00  3.89921E-01
    9003.532      6.335   1.960  1.37494E+00  1.00386E+00  3.71087E-01
    9004.135      6.938   2.000  1.36064E+00  1.00720E+00  3.53444E-01
    9004.751      7.554   2.040  1.34732E+00  1.01014E+00  3.37188E-01
    9005.379      8.182   2.080  1.33270E+00  1.01266E+00  3.20044E-01
    9006.019      8.822   2.120  1.31267E+00  1.01480E+00  2.97874E-01
    9006.671      9.474   2.160  1.28854E+00  1.01656E+00  2.71974E-01
    9007.336     10.139   2.200  1.25866E+00  1.01799E+00  2.40665E-01
    9008.013     10.815   2.240  1.21572E+00  1.01912E+00  1.96603E-01
    9008.701     11.504   2.280  1.15681E+00  1.01995E+00  1.36866E-01
    9009.402     12.205   2.320  1.09312E+00  1.02052E+00  7.26046E-02
    9010.116     12.919   2.360  1.04803E+00  1.02083E+00  2.71980E-02
    9010.841     13.644   2.400  1.02962E+00  1.02091E+00  8.71674E-03
    9011.579     14.382   2.440  1.02814E+00  1.02080E+00  7.34340E-03
    9012.328     15.131   2.480  1.03707E+00  1.02048E+00  1.65850E-02
    9013.090     15.893   2.520  1.05229E+00  1.02001E+00  3.22831E-02
    9013.865     16.668   2.560  1.07014E+00  1.01939E+00  5.07566E-02
    9014.651     17.454   2.600  1.08703E+00  1.01862E+00  6.84152E-02
    9015.450     18.253   2.640  1.09964E+00  1.01775E+00  8.18913E-02
    9016.260     19.063   2.680  1.10520E+00  1.01680E+00  8.84067E-02
    9017.083     19.886   2.720  1.10106E+00  1.01576E+00  8.52977E-02
    9017.918     20.721   2.760  1.08591E+00  1.01467E+00  7.12440E-02
    9018.766     21.569   2.800  1.06052E+00  1.01353E+00  4.69877E-02
    9019.625     22.428   2.840  1.02813E+00  1.01233E+00  1.57960E-02
    9020.497     23.300   2.880  9.93400E-01  1.01111E+00 -1.77144E-02
    9021.381     24.184   2.920  9.60300E-01  1.00989E+00 -4.95929E-02
    9022.277     25.080   2.960  9.30865E-01  1.00867E+00 -7.78037E-02
    9023.185     25.988   3.000  9.06370E-01  1.00747E+00 -1.01098E-01
    9024.106     26.909   3.040  8.87547E-01  1.00626E+00 -1.18709E-01
    9025.039     27.842   3.080  8.75307E-01  1.00509E+00 -1.29786E-01
    9025.983     28.786   3.120  8.70414E-01  1.00395E+00 -1.33533E-01
    9026.941     29.743   3.160  8.72811E-01  1.00284E+00 -1.30027E-01
    9027.910     30.713   3.200  8.81224E-01  1.00179E+00 -1.20569E-01
    9028.891     31.694   3.240  8.93225E-01  1.00077E+00 -1.07547E-01
    9029.885     32.688   3.280  9.05493E-01  9.99842E-01 -9.43488E-02
    9030.891     33.694   3.320  9.14120E-01  9.98940E-01 -8.48205E-02
    9031.909     34.712   3.360  9.16766E-01  9.98131E-01 -8.13646E-02
    9032.939     35.742   3.400  9.13146E-01  9.97374E-01 -8.42282E-02
    9033.981     36.784   3.440  9.05149E-01  9.96672E-01 -9.15232E-02
    9035.036     37.839   3.480  8.95777E-01  9.96067E-01 -1.00290E-01
    9036.103     38.906   3.520  8.87998E-01  9.95519E-01 -1.07521E-01
    9037.182     39.985   3.560  8.84077E-01  9.95071E-01 -1.10994E-01
    9038.273     41.076   3.600  8.85053E-01  9.94680E-01 -1.09627E-01
    9039.376     42.179   3.640  8.91118E-01  9.94367E-01 -1.03249E-01
    9040.492     43.295   3.680  9.01687E-01  9.94131E-01 -9.24438E-02
    9041.620     44.423   3.720  9.15378E-01  9.93973E-01 -7.85955E-02
    9042.760     45.563   3.760  9.30303E-01  9.93872E-01 -6.35690E-02
    9043.912     46.715   3.800  9.45080E-01  9.93870E-01 -4.87900E-02
    9045.076     47.879   3.840  9.58886E-01  9.93923E-01 -3.50370E-02
    9046.253     49.056   3.880  9.71679E-01  9.94051E-01 -2.23724E-02
    9047.441     50.244   3.920  9.83803E-01  9.94254E-01 -1.04504E-02
    9048.642     51.445   3.960  9.95469E-01  9.94508E-01  9.61182E-04
    9049.855     52.658   4.000  1.00660E+00  9.94834E-01  1.17692E-02
    9051.081     53.884   4.040  1.01680E+00  9.95211E-01  2.15933E-02
    9052.318     55.121   4.080  1.02564E+00  9.95656E-01  2.99845E-02
    9053.568     56.371   4.120  1.03274E+00  9.96147E-01  3.65887E-02
    9054.830     57.633   4.160  1.03821E+00  9.96683E-01  4.15233E-02
    9056.104     58.907   4.200  1.04295E+00  9.97283E-01  4.56637E-02
    9057.390     60.193   4.240  1.04821E+00  9.97904E-01  5.03032E-02
    9058.688     61.491   4.280  1.05512E+00  9.98584E-01  5.65342E-02
    9059.999     62.802   4.320  1.06409E+00  9.99280E-01  6.48094E-02
    9061.322     64.125   4.360  1.07482E+00  1.00001E+00  7.48155E-02
    9062.657     65.460   4.400  1.08635E+00  1.00075E+00  8.56015E-02
    9064.004     66.807   4.440  1.09740E+00  1.00152E+00  9.58841E-02
    9065.363     68.166   4.480  1.10683E+00  1.00232E+00  1.04508E-01
    9066.735     69.538   4.520  1.11383E+00  1.00313E+00  1.10702E-01
    9068.119     70.922   4.560  1.11807E+00  1.00393E+00  1.14142E-01
    9069.515     72.318   4.600  1.11942E+00  1.00474E+00  1.14680E-01
    9070.923     73.726   4.640  1.11765E+00  1.00555E+00  1.12098E-01
    9072.343     75.146   4.680  1.11237E+00  1.00635E+00  1.06013E-01
    9073.776     76.579   4.720  1.10343E+00  1.00715E+00  9.62773E-02
    9075.221     78.024   4.760  1.09100E+00  1.00792E+00  8.30833E-02
    9076.678     79.481   4.800  1.07581E+00  1.00868E+00  6.71282E-02
    9078.147     80.950   4.840  1.05878E+00  1.00940E+00  4.93728E-02
    9079.628     82.431   4.880  1.04079E+00  1.01012E+00  3.06736E-02
    9081.122     83.925   4.920  1.02247E+00  1.01080E+00  1.16768E-02
    9082.627     85.430   4.960  1.00426E+00  1.01144E+00 -7.17231E-03
    9084.145     86.948   5.000  9.86724E-01  1.01206E+00 -2.53344E-02
    9085.675     88.478   5.040  9.70704E-01  1.01262E+00 -4.19153E-02
    9087.218     90.020   5.080  9.57590E-01  1.01316E+00 -5.55700E-02
    9088.772     91.575   5.120  9.48963E-01  1.01363E+00 -6.46708E-02
    9090.339     93.142   5.160  9.46140E-01  1.01406E+00 -6.79226E-02
    9091.918     94.720   5.200  9.49591E-01  1.01445E+00 -6.48569E-02
    9093.509     96.312   5.240  9.58735E-01  1.01479E+00 -5.60535E-02
    9095.112     97.915   5.280  9.71955E-01  1.01508E+00 -4.31283E-02
    9096.727     99.530   5.320  9.86816E-01  1.01531E+00 -2.84926E-02
    9098.355    101.158   5.360  1.00054E+00  1.01549E+00 -1.49468E-02
    9099.995    102.798   5.400  1.01052E+00  1.01562E+00 -5.09492E-03
    9101.647    104.450   5.440  1.01486E+00  1.01570E+00 -8.43461E-04
    9103.311    106.114   5.480  1.01275E+00  1.01572E+00 -2.96222E-03
    9104.987    107.790   5.520  1.00492E+00  1.01566E+00 -1.07416E-02
    9106.676    109.479   5.560  9.93518E-01  1.01558E+00 -2.20584E-02
    9108.377    111.180   5.600  9.81220E-01  1.01543E+00 -3.42061E-02
    9110.090    112.893   5.640  9.70392E-01  1.01523E+00 -4.48392E-02
    9111.815    114.618   5.680  9.62382E-01  1.01499E+00 -5.26081E-02
    9113.552    116.355   5.720  9.57570E-01  1.01468E+00 -5.71111E-02
    9115.302    118.105   5.760  9.55970E-01  1.01433E+00 -5.83599E-02
    9117.063    119.866   5.800  9.57492E-01  1.01396E+00 -5.64698E-02
    9118.837    121.640   5.840  9.61685E-01  1.01353E+00 -5.18457E-02
    9120.623    123.426   5.880  9.67588E-01  1.01306E+00 -4.54726E-02
    9122.422    125.225   5.920  9.73848E-01  1.01256E+00 -3.87072E-02
    9124.232    127.035   5.960  9.78803E-01  1.01202E+00 -3.32152E-02
    9126.055    128.858   6.000  9.82204E-01  1.01144E+00 -2.92404E-02
