# # comment:                                                     FEFF 9.9.1  
# # Source:
# # Structure
# # Reduced
# # space
# # abc:
# # angles:
# # sites:
# # POT  SCF 100  7.0000   0, screened core-hole, AFOLP (folp(0)= 1.150)
# # Abs   Z=29 Rmt= 1.139 Rnm= 1.327 K  shell
# # Pot 1 Z=57 Rmt= 1.737 Rnm= 1.828
# # Pot 2 Z=29 Rmt= 1.139 Rnm= 1.327
# # Pot 3 Z= 8 Rmt= 1.027 Rnm= 1.107
# # Gam_ch=1.729E+00 H-L exch Vi= 0.000E+00 Vr= 0.000E+00
# # Mu=-7.853E+00eV kf=2.045E+00 Vint=-1.687E+01eV Rs_int= 1.773
# FMS rfms= 9.0000
# # PATH  Rmax=-1.000,  Keep_limit= 0.00, Heap_limit 0.00  Pwcrit= 2.50%
#  S02=0.950  Temp=   0.00  Debye_temp=   0.00  Global_sig2= 0.00000
#  Energy zero shift, vr, vi    0.00000E+00   0.00000E+00
#  Curved wave amplitude ratio filter   4.000%
#     file         sig2 tot  cw amp ratio   deg  nlegs   reff  inp sig2
#     0/   0 paths used
#  xsedge+ 50, used to normalize mu           2.4774E-04
#  -----------------------------------------------------------------------
#  omega    e    k    mu    mu0     chi     @#
    8984.054    -11.663  -1.000  4.13836E-02  5.32656E-02 -1.18820E-02
    8984.353    -11.365  -0.960  4.37891E-02  5.71145E-02 -1.33254E-02
    8984.639    -11.078  -0.920  4.64004E-02  6.13899E-02 -1.49895E-02
    8984.914    -10.804  -0.880  4.92414E-02  6.61543E-02 -1.69129E-02
    8985.176    -10.542  -0.840  5.23394E-02  7.14808E-02 -1.91414E-02
    8985.426    -10.292  -0.800  5.57252E-02  7.74539E-02 -2.17287E-02
    8985.664    -10.054  -0.760  5.94331E-02  8.41705E-02 -2.47374E-02
    8985.889     -9.828  -0.720  6.35013E-02  9.17401E-02 -2.82388E-02
    8986.102     -9.615  -0.680  6.79706E-02  1.00283E-01 -3.23128E-02
    8986.304     -9.414  -0.640  7.28828E-02  1.09928E-01 -3.70449E-02
    8986.493     -9.225  -0.600  7.82774E-02  1.20798E-01 -4.25206E-02
    8986.669     -9.048  -0.560  8.41856E-02  1.33001E-01 -4.88151E-02
    8986.834     -8.884  -0.520  9.06220E-02  1.46599E-01 -5.59775E-02
    8986.986     -8.731  -0.480  9.75717E-02  1.61580E-01 -6.40079E-02
    8987.127     -8.591  -0.440  1.04978E-01  1.77810E-01 -7.28322E-02
    8987.255     -8.463  -0.400  1.12728E-01  1.95008E-01 -8.22798E-02
    8987.370     -8.347  -0.360  1.20652E-01  2.12730E-01 -9.20783E-02
    8987.474     -8.243  -0.320  1.28527E-01  2.30401E-01 -1.01874E-01
    8987.566     -8.152  -0.280  1.36103E-01  2.47380E-01 -1.11277E-01
    8987.645     -8.073  -0.240  1.43131E-01  2.63053E-01 -1.19922E-01
    8987.712     -8.006  -0.200  1.49388E-01  2.76904E-01 -1.27515E-01
    8987.767     -7.951  -0.160  1.54701E-01  2.88555E-01 -1.33855E-01
    8987.809     -7.908  -0.120  1.58941E-01  2.97767E-01 -1.38826E-01
    8987.840     -7.878  -0.080  1.62025E-01  3.04404E-01 -1.42379E-01
    8987.864     -7.853   0.000  1.64543E-01  3.09737E-01 -1.45194E-01
    8987.919     -7.798   0.120  1.70339E-01  3.21758E-01 -1.51419E-01
    8987.962     -7.756   0.160  1.74805E-01  3.31094E-01 -1.56289E-01
    8988.017     -7.701   0.200  1.80567E-01  3.43028E-01 -1.62461E-01
    8988.084     -7.634   0.240  1.87552E-01  3.57378E-01 -1.69825E-01
    8988.163     -7.555   0.280  1.95716E-01  3.73879E-01 -1.78163E-01
    8988.254     -7.463   0.320  2.04879E-01  3.92074E-01 -1.87195E-01
    8988.358     -7.360   0.360  2.14869E-01  4.11465E-01 -1.96596E-01
    8988.474     -7.244   0.400  2.25456E-01  4.31480E-01 -2.06024E-01
    8988.602     -7.116   0.440  2.36494E-01  4.51616E-01 -2.15122E-01
    8988.742     -6.976   0.480  2.47922E-01  4.71482E-01 -2.23560E-01
    8988.894     -6.823   0.520  2.59842E-01  4.90812E-01 -2.30970E-01
    8989.059     -6.659   0.560  2.72570E-01  5.09491E-01 -2.36921E-01
    8989.236     -6.482   0.600  2.86657E-01  5.27469E-01 -2.40813E-01
    8989.425     -6.293   0.640  3.02973E-01  5.44823E-01 -2.41849E-01
    8989.626     -6.092   0.680  3.22408E-01  5.61622E-01 -2.39215E-01
    8989.839     -5.878   0.720  3.45387E-01  5.77953E-01 -2.32566E-01
    8990.065     -5.653   0.760  3.71665E-01  5.93919E-01 -2.22253E-01
    8990.303     -5.415   0.800  4.00756E-01  6.09552E-01 -2.08796E-01
    8990.553     -5.165   0.840  4.33421E-01  6.24977E-01 -1.91557E-01
    8990.815     -4.903   0.880  4.72221E-01  6.40200E-01 -1.67979E-01
    8991.089     -4.629   0.920  5.20760E-01  6.55255E-01 -1.34495E-01
    8991.376     -4.342   0.960  5.80486E-01  6.70208E-01 -8.97225E-02
    8991.674     -4.043   1.000  6.46293E-01  6.85030E-01 -3.87375E-02
    8991.985     -3.732   1.040  7.04575E-01  6.99746E-01  4.82929E-03
    8992.308     -3.409   1.080  7.38751E-01  7.14351E-01  2.44005E-02
    8992.643     -3.074   1.120  7.42391E-01  7.28816E-01  1.35742E-02
    8992.991     -2.727   1.160  7.25265E-01  7.43147E-01 -1.78824E-02
    8993.351     -2.367   1.200  7.03545E-01  7.57304E-01 -5.37588E-02
    8993.722     -1.995   1.240  6.89604E-01  7.71265E-01 -8.16606E-02
    8994.107     -1.611   1.280  6.91663E-01  7.85025E-01 -9.33612E-02
    8994.503     -1.215   1.320  7.09248E-01  7.98538E-01 -8.92903E-02
    8994.911     -0.806   1.360  7.28684E-01  8.11797E-01 -8.31123E-02
    8995.332     -0.386   1.400  7.39746E-01  8.24752E-01 -8.50053E-02
    8995.765      0.047   1.440  7.45236E-01  8.37373E-01 -9.21368E-02
    8996.210      0.492   1.480  7.49189E-01  8.49652E-01 -1.00463E-01
    8996.667      0.949   1.520  7.48516E-01  8.61581E-01 -1.13065E-01
    8997.136      1.419   1.560  7.36625E-01  8.73089E-01 -1.36464E-01
    8997.618      1.900   1.600  7.14160E-01  8.84190E-01 -1.70030E-01
    8998.112      2.394   1.640  6.92640E-01  8.94857E-01 -2.02217E-01
    8998.618      2.900   1.680  6.83376E-01  9.05083E-01 -2.21707E-01
    8999.136      3.418   1.720  6.88130E-01  9.14843E-01 -2.26713E-01
    8999.666      3.948   1.760  7.03360E-01  9.24134E-01 -2.20774E-01
    9000.209      4.491   1.800  7.28111E-01  9.32952E-01 -2.04842E-01
    9000.763      5.046   1.840  7.66265E-01  9.41277E-01 -1.75013E-01
    9001.330      5.613   1.880  8.23408E-01  9.49128E-01 -1.25721E-01
    9001.909      6.192   1.920  9.00027E-01  9.56465E-01 -5.64377E-02
    9002.501      6.783   1.960  9.86137E-01  9.63349E-01  2.27878E-02
    9003.104      7.387   2.000  1.06724E+00  9.69724E-01  9.75146E-02
    9003.720      8.002   2.040  1.13786E+00  9.75634E-01  1.62230E-01
    9004.348      8.630   2.080  1.19880E+00  9.81084E-01  2.17720E-01
    9004.988      9.270   2.120  1.24120E+00  9.86079E-01  2.55123E-01
    9005.640      9.923   2.160  1.25333E+00  9.90625E-01  2.62710E-01
    9006.305     10.587   2.200  1.24175E+00  9.94729E-01  2.47023E-01
    9006.981     11.264   2.240  1.22862E+00  9.98441E-01  2.30176E-01
    9007.670     11.952   2.280  1.23354E+00  1.00175E+00  2.31789E-01
    9008.371     12.654   2.320  1.26066E+00  1.00465E+00  2.56011E-01
    9009.084     13.367   2.360  1.29182E+00  1.00719E+00  2.84631E-01
    9009.810     14.092   2.400  1.29702E+00  1.00939E+00  2.87627E-01
    9010.547     14.830   2.440  1.25527E+00  1.01126E+00  2.44003E-01
    9011.297     15.580   2.480  1.17022E+00  1.01281E+00  1.57410E-01
    9012.059     16.342   2.520  1.09322E+00  1.01407E+00  7.91505E-02
    9012.833     17.116   2.560  1.03733E+00  1.01507E+00  2.22578E-02
    9013.620     17.902   2.600  1.00150E+00  1.01579E+00 -1.42940E-02
    9014.418     18.701   2.640  9.80680E-01  1.01628E+00 -3.55982E-02
    9015.229     19.511   2.680  9.69836E-01  1.01655E+00 -4.67104E-02
    9016.052     20.334   2.720  9.66311E-01  1.01661E+00 -5.02980E-02
    9016.887     21.170   2.760  9.68485E-01  1.01648E+00 -4.79906E-02
    9017.735     22.017   2.800  9.75365E-01  1.01618E+00 -4.08103E-02
    9018.594     22.876   2.840  9.86444E-01  1.01574E+00 -2.92933E-02
    9019.466     23.748   2.880  1.00088E+00  1.01515E+00 -1.42646E-02
    9020.350     24.632   2.920  1.01731E+00  1.01443E+00  2.87403E-03
    9021.246     25.528   2.960  1.03378E+00  1.01362E+00  2.01621E-02
    9022.154     26.437   3.000  1.04783E+00  1.01270E+00  3.51274E-02
    9023.075     27.357   3.040  1.05733E+00  1.01170E+00  4.56328E-02
    9024.007     28.290   3.080  1.06094E+00  1.01064E+00  5.03023E-02
    9024.952     29.235   3.120  1.05807E+00  1.00951E+00  4.85648E-02
    9025.909     30.192   3.160  1.04896E+00  1.00834E+00  4.06230E-02
    9026.878     31.161   3.200  1.03425E+00  1.00714E+00  2.71067E-02
    9027.860     32.142   3.240  1.01532E+00  1.00589E+00  9.42953E-03
    9028.854     33.136   3.280  9.94277E-01  1.00466E+00 -1.03817E-02
    9029.859     34.142   3.320  9.73091E-01  1.00340E+00 -3.03063E-02
    9030.877     35.160   3.360  9.53322E-01  1.00213E+00 -4.88114E-02
    9031.908     36.190   3.400  9.36041E-01  1.00089E+00 -6.48517E-02
    9032.950     37.232   3.440  9.21645E-01  9.99659E-01 -7.80140E-02
    9034.005     38.287   3.480  9.10134E-01  9.98433E-01 -8.82987E-02
    9035.071     39.354   3.520  9.01350E-01  9.97239E-01 -9.58887E-02
    9036.150     40.433   3.560  8.95023E-01  9.96081E-01 -1.01058E-01
    9037.242     41.524   3.600  8.90809E-01  9.94963E-01 -1.04154E-01
    9038.345     42.627   3.640  8.88650E-01  9.93884E-01 -1.05234E-01
    9039.461     43.743   3.680  8.88812E-01  9.92847E-01 -1.04035E-01
    9040.588     44.871   3.720  8.91777E-01  9.91876E-01 -1.00099E-01
    9041.728     46.011   3.760  8.97989E-01  9.90950E-01 -9.29611E-02
    9042.880     47.163   3.800  9.07687E-01  9.90067E-01 -8.23806E-02
    9044.045     48.327   3.840  9.20662E-01  9.89232E-01 -6.85701E-02
    9045.221     49.504   3.880  9.36098E-01  9.88467E-01 -5.23686E-02
    9046.410     50.692   3.920  9.52762E-01  9.87771E-01 -3.50085E-02
    9047.611     51.893   3.960  9.69190E-01  9.87124E-01 -1.79341E-02
    9048.824     53.106   4.000  9.84033E-01  9.86526E-01 -2.49262E-03
    9050.049     54.332   4.040  9.96248E-01  9.85998E-01  1.02495E-02
    9051.287     55.569   4.080  1.00505E+00  9.85542E-01  1.95091E-02
    9052.536     56.819   4.120  1.00995E+00  9.85137E-01  2.48134E-02
    9053.798     58.081   4.160  1.01095E+00  9.84802E-01  2.61457E-02
    9055.072     59.355   4.200  1.00863E+00  9.84516E-01  2.41150E-02
    9056.359     60.641   4.240  1.00414E+00  9.84300E-01  1.98430E-02
    9057.657     61.939   4.280  9.98744E-01  9.84132E-01  1.46113E-02
    9058.968     63.250   4.320  9.93459E-01  9.84034E-01  9.42468E-03
    9060.291     64.573   4.360  9.88829E-01  9.83981E-01  4.84836E-03
    9061.626     65.908   4.400  9.85140E-01  9.83973E-01  1.16652E-03
    9062.973     67.255   4.440  9.82688E-01  9.84030E-01 -1.34199E-03
    9064.332     68.615   4.480  9.81831E-01  9.84110E-01 -2.27911E-03
    9065.704     69.986   4.520  9.83082E-01  9.84255E-01 -1.17324E-03
    9067.088     71.370   4.560  9.86870E-01  9.84464E-01  2.40551E-03
    9068.483     72.766   4.600  9.93381E-01  9.84692E-01  8.68908E-03
    9069.892     74.174   4.640  1.00245E+00  9.84956E-01  1.74972E-02
    9071.312     75.594   4.680  1.01332E+00  9.85257E-01  2.80653E-02
    9072.745     77.027   4.720  1.02462E+00  9.85572E-01  3.90527E-02
    9074.189     78.472   4.760  1.03465E+00  9.85943E-01  4.87108E-02
    9075.646     79.929   4.800  1.04169E+00  9.86327E-01  5.53623E-02
    9077.115     81.398   4.840  1.04488E+00  9.86742E-01  5.81335E-02
    9078.597     82.879   4.880  1.04456E+00  9.87164E-01  5.73929E-02
    9080.090     84.373   4.920  1.04206E+00  9.87592E-01  5.44639E-02
    9081.596     85.878   4.960  1.03888E+00  9.88047E-01  5.08309E-02
    9083.114     87.396   5.000  1.03581E+00  9.88507E-01  4.73072E-02
    9084.644     88.926   5.040  1.03278E+00  9.88969E-01  4.38090E-02
    9086.186     90.469   5.080  1.02904E+00  9.89455E-01  3.95888E-02
    9087.741     92.023   5.120  1.02367E+00  9.89917E-01  3.37563E-02
    9089.307     93.590   5.160  1.01623E+00  9.90376E-01  2.58541E-02
    9090.886     95.169   5.200  1.00699E+00  9.90833E-01  1.61568E-02
    9092.477     96.760   5.240  9.96988E-01  9.91285E-01  5.70329E-03
    9094.080     98.363   5.280  9.87658E-01  9.91731E-01 -4.07304E-03
    9095.696     99.978   5.320  9.80320E-01  9.92146E-01 -1.18261E-02
    9097.324    101.606   5.360  9.75814E-01  9.92528E-01 -1.67146E-02
    9098.963    103.246   5.400  9.74406E-01  9.92901E-01 -1.84952E-02
    9100.615    104.898   5.440  9.75919E-01  9.93265E-01 -1.73459E-02
    9102.280    106.562   5.480  9.79900E-01  9.93594E-01 -1.36943E-02
    9103.956    108.238   5.520  9.85655E-01  9.93887E-01 -8.23170E-03
    9105.645    109.927   5.560  9.92204E-01  9.94142E-01 -1.93818E-03
    9107.345    111.628   5.600  9.98388E-01  9.94382E-01  4.00617E-03
    9109.058    113.341   5.640  1.00303E+00  9.94562E-01  8.46401E-03
    9110.783    115.066   5.680  1.00539E+00  9.94727E-01  1.06633E-02
    9112.521    116.803   5.720  1.00523E+00  9.94854E-01  1.03774E-02
    9114.270    118.553   5.760  1.00277E+00  9.94942E-01  7.82901E-03
    9116.032    120.315   5.800  9.98427E-01  9.94990E-01  3.43725E-03
    9117.806    122.088   5.840  9.92591E-01  9.94999E-01 -2.40773E-03
    9119.592    123.875   5.880  9.85601E-01  9.94967E-01 -9.36639E-03
    9121.390    125.673   5.920  9.77913E-01  9.94894E-01 -1.69802E-02
    9123.201    127.483   5.960  9.70259E-01  9.94750E-01 -2.44916E-02
    9125.024    129.306   6.000  9.63573E-01  9.94566E-01 -3.09931E-02
