# # comment:                                                     FEFF 9.9.1  
# # Source:
# # Structure
# # Reduced
# # space
# # abc:
# # angles:109.779703
# # sites:
# # POT  SCF 100  7.0000   0, screened core-hole, AFOLP (folp(0)= 1.150)
# # Abs   Z=29 Rmt= 1.193 Rnm= 1.354 K  shell
# # Pot 1 Z=29 Rmt= 1.225 Rnm= 1.361
# # Pot 2 Z=74 Rmt= 1.254 Rnm= 1.424
# # Pot 3 Z= 8 Rmt= 0.913 Rnm= 1.068
# # Gam_ch=1.729E+00 H-L exch Vi= 0.000E+00 Vr= 0.000E+00
# # Mu=-5.353E+00eV kf=2.244E+00 Vint=-1.538E+01eV Rs_int= 1.616
# FMS rfms= 9.0000
# # PATH  Rmax=-1.000,  Keep_limit= 0.00, Heap_limit 0.00  Pwcrit= 2.50%
#  S02=0.950  Temp=   0.00  Debye_temp=   0.00  Global_sig2= 0.00000
#  Energy zero shift, vr, vi    0.00000E+00   0.00000E+00
#  Curved wave amplitude ratio filter   4.000%
#     file         sig2 tot  cw amp ratio   deg  nlegs   reff  inp sig2
#     0/   0 paths used
#  xsedge+ 50, used to normalize mu           2.4502E-04
#  -----------------------------------------------------------------------
#  omega    e    k    mu    mu0     chi     @#
    8983.532     -9.163  -1.000  5.17862E-02  5.89910E-02 -7.20475E-03
    8983.830     -8.864  -0.960  5.53826E-02  6.34310E-02 -8.04837E-03
    8984.117     -8.578  -0.920  5.93629E-02  6.83780E-02 -9.01508E-03
    8984.391     -8.304  -0.880  6.37819E-02  7.39077E-02 -1.01258E-02
    8984.653     -8.041  -0.840  6.87034E-02  8.01084E-02 -1.14050E-02
    8984.903     -7.792  -0.800  7.42011E-02  8.70827E-02 -1.28816E-02
    8985.141     -7.554  -0.760  8.03595E-02  9.49482E-02 -1.45887E-02
    8985.367     -7.328  -0.720  8.72739E-02  1.03838E-01 -1.65644E-02
    8985.580     -7.115  -0.680  9.50491E-02  1.13900E-01 -1.88506E-02
    8985.781     -6.914  -0.640  1.03795E-01  1.25288E-01 -2.14927E-02
    8985.970     -6.725  -0.600  1.13619E-01  1.38156E-01 -2.45364E-02
    8986.147     -6.548  -0.560  1.24610E-01  1.52634E-01 -2.80243E-02
    8986.312     -6.383  -0.520  1.36813E-01  1.68801E-01 -3.19885E-02
    8986.464     -6.231  -0.480  1.50200E-01  1.86643E-01 -3.64427E-02
    8986.604     -6.091  -0.440  1.64631E-01  2.06001E-01 -4.13702E-02
    8986.732     -5.963  -0.400  1.79823E-01  2.26535E-01 -4.67128E-02
    8986.848     -5.847  -0.360  1.95349E-01  2.47711E-01 -5.23620E-02
    8986.952     -5.743  -0.320  2.10674E-01  2.68831E-01 -5.81571E-02
    8987.043     -5.652  -0.280  2.25230E-01  2.89125E-01 -6.38944E-02
    8987.122     -5.573  -0.240  2.38501E-01  3.07850E-01 -6.93490E-02
    8987.189     -5.506  -0.200  2.50088E-01  3.24390E-01 -7.43019E-02
    8987.244     -5.451  -0.160  2.59727E-01  3.38294E-01 -7.85666E-02
    8987.287     -5.408  -0.120  2.67272E-01  3.49278E-01 -8.20056E-02
    8987.317     -5.378  -0.080  2.72656E-01  3.57186E-01 -8.45299E-02
    8987.342     -5.353   0.000  2.76917E-01  3.63537E-01 -8.66197E-02
    8987.397     -5.298   0.120  2.86785E-01  3.77844E-01 -9.10593E-02
    8987.439     -5.256   0.160  2.94405E-01  3.88952E-01 -9.45470E-02
    8987.494     -5.201   0.200  3.04104E-01  4.03102E-01 -9.89975E-02
    8987.561     -5.134   0.240  3.15819E-01  4.20125E-01 -1.04307E-01
    8987.640     -5.054   0.280  3.29342E-01  4.39599E-01 -1.10256E-01
    8987.732     -4.963   0.320  3.44552E-01  4.61016E-01 -1.16464E-01
    8987.836     -4.859   0.360  3.61330E-01  4.83708E-01 -1.22378E-01
    8987.951     -4.744   0.400  3.79725E-01  5.07005E-01 -1.27279E-01
    8988.079     -4.616   0.440  3.99848E-01  5.30215E-01 -1.30368E-01
    8988.220     -4.475   0.480  4.22012E-01  5.52894E-01 -1.30882E-01
    8988.372     -4.323   0.520  4.46515E-01  5.74691E-01 -1.28175E-01
    8988.537     -4.158   0.560  4.73617E-01  5.95461E-01 -1.21844E-01
    8988.713     -3.982   0.600  5.03266E-01  6.15170E-01 -1.11904E-01
    8988.902     -3.793   0.640  5.34830E-01  6.33866E-01 -9.90360E-02
    8989.104     -3.591   0.680  5.66928E-01  6.51641E-01 -8.47129E-02
    8989.317     -3.378   0.720  5.97490E-01  6.68604E-01 -7.11139E-02
    8989.542     -3.153   0.760  6.24114E-01  6.84905E-01 -6.07915E-02
    8989.780     -2.915   0.800  6.44090E-01  7.00582E-01 -5.64918E-02
    8990.030     -2.665   0.840  6.55225E-01  7.15777E-01 -6.05520E-02
    8990.292     -2.403   0.880  6.57820E-01  7.30519E-01 -7.26989E-02
    8990.567     -2.128   0.920  6.55785E-01  7.44879E-01 -8.90944E-02
    8990.853     -1.842   0.960  6.53677E-01  7.58874E-01 -1.05197E-01
    8991.152     -1.543   1.000  6.54322E-01  7.72550E-01 -1.18228E-01
    8991.463     -1.232   1.040  6.59576E-01  7.85902E-01 -1.26326E-01
    8991.786     -0.909   1.080  6.71029E-01  7.98958E-01 -1.27929E-01
    8992.121     -0.574   1.120  6.87484E-01  8.11695E-01 -1.24210E-01
    8992.468     -0.226   1.160  7.02600E-01  8.24127E-01 -1.21527E-01
    8992.828      0.133   1.200  7.07719E-01  8.36226E-01 -1.28507E-01
    8993.200      0.505   1.240  7.00314E-01  8.47996E-01 -1.47683E-01
    8993.584      0.889   1.280  6.86938E-01  8.59421E-01 -1.72483E-01
    8993.980      1.285   1.320  6.75228E-01  8.70480E-01 -1.95253E-01
    8994.389      1.694   1.360  6.69992E-01  8.81154E-01 -2.11163E-01
    8994.809      2.114   1.400  6.75639E-01  8.91423E-01 -2.15784E-01
    8995.242      2.547   1.440  6.94633E-01  9.01305E-01 -2.06672E-01
    8995.687      2.992   1.480  7.23998E-01  9.10758E-01 -1.86760E-01
    8996.144      3.449   1.520  7.57428E-01  9.19781E-01 -1.62354E-01
    8996.614      3.919   1.560  7.91737E-01  9.28374E-01 -1.36637E-01
    8997.095      4.400   1.600  8.28548E-01  9.36514E-01 -1.07966E-01
    8997.589      4.894   1.640  8.70334E-01  9.44205E-01 -7.38712E-02
    8998.095      5.400   1.680  9.17227E-01  9.51446E-01 -3.42180E-02
    8998.613      5.918   1.720  9.65490E-01  9.58237E-01  7.25276E-03
    8999.144      6.449   1.760  1.00922E+00  9.64564E-01  4.46529E-02
    8999.686      6.991   1.800  1.04330E+00  9.70449E-01  7.28524E-02
    9000.241      7.546   1.840  1.06609E+00  9.75898E-01  9.01877E-02
    9000.808      8.113   1.880  1.08262E+00  9.80915E-01  1.01704E-01
    9001.387      8.692   1.920  1.10030E+00  9.85507E-01  1.14797E-01
    9001.978      9.283   1.960  1.12393E+00  9.89701E-01  1.34225E-01
    9002.582      9.887   2.000  1.15799E+00  9.93482E-01  1.64508E-01
    9003.197     10.502   2.040  1.20616E+00  9.96877E-01  2.09284E-01
    9003.825     11.130   2.080  1.26074E+00  9.99898E-01  2.60837E-01
    9004.465     11.770   2.120  1.29993E+00  1.00257E+00  2.97362E-01
    9005.118     12.423   2.160  1.30472E+00  1.00491E+00  2.99815E-01
    9005.782     13.087   2.200  1.27805E+00  1.00694E+00  2.71107E-01
    9006.459     13.764   2.240  1.23878E+00  1.00865E+00  2.30133E-01
    9007.148     14.453   2.280  1.20187E+00  1.01009E+00  1.91787E-01
    9007.849     15.154   2.320  1.17217E+00  1.01124E+00  1.60931E-01
    9008.562     15.867   2.360  1.14829E+00  1.01215E+00  1.36136E-01
    9009.287     16.592   2.400  1.12530E+00  1.01283E+00  1.12469E-01
    9010.025     17.330   2.440  1.10503E+00  1.01328E+00  9.17465E-02
    9010.775     18.080   2.480  1.09424E+00  1.01355E+00  8.06815E-02
    9011.537     18.842   2.520  1.09044E+00  1.01365E+00  7.67949E-02
    9012.311     19.616   2.560  1.08268E+00  1.01358E+00  6.91052E-02
    9013.097     20.402   2.600  1.06395E+00  1.01337E+00  5.05832E-02
    9013.896     21.201   2.640  1.03810E+00  1.01301E+00  2.50933E-02
    9014.707     22.012   2.680  1.01830E+00  1.01255E+00  5.74800E-03
    9015.530     22.835   2.720  1.00761E+00  1.01198E+00 -4.36811E-03
    9016.365     23.670   2.760  1.00136E+00  1.01131E+00 -9.95399E-03
    9017.212     24.517   2.800  9.96481E-01  1.01057E+00 -1.40881E-02
    9018.072     25.377   2.840  9.91450E-01  1.00977E+00 -1.83229E-02
    9018.943     26.248   2.880  9.85574E-01  1.00893E+00 -2.33557E-02
    9019.827     27.132   2.920  9.78814E-01  1.00804E+00 -2.92306E-02
    9020.723     28.028   2.960  9.71959E-01  1.00712E+00 -3.51635E-02
    9021.632     28.937   3.000  9.65870E-01  1.00619E+00 -4.03181E-02
    9022.552     29.857   3.040  9.60922E-01  1.00525E+00 -4.43247E-02
    9023.485     30.790   3.080  9.56958E-01  1.00428E+00 -4.73244E-02
    9024.430     31.735   3.120  9.53556E-01  1.00334E+00 -4.97840E-02
    9025.387     32.692   3.160  9.50421E-01  1.00240E+00 -5.19823E-02
    9026.356     33.661   3.200  9.47541E-01  1.00150E+00 -5.39562E-02
    9027.337     34.643   3.240  9.44978E-01  1.00062E+00 -5.56459E-02
    9028.331     35.636   3.280  9.42567E-01  9.99763E-01 -5.71959E-02
    9029.337     36.642   3.320  9.40175E-01  9.98940E-01 -5.87657E-02
    9030.355     37.660   3.360  9.37793E-01  9.98178E-01 -6.03855E-02
    9031.385     38.690   3.400  9.35519E-01  9.97437E-01 -6.19179E-02
    9032.428     39.733   3.440  9.33624E-01  9.96760E-01 -6.31360E-02
    9033.482     40.787   3.480  9.32327E-01  9.96128E-01 -6.38010E-02
    9034.549     41.854   3.520  9.31975E-01  9.95541E-01 -6.35664E-02
    9035.628     42.933   3.560  9.32861E-01  9.95023E-01 -6.21617E-02
    9036.719     44.024   3.600  9.35207E-01  9.94552E-01 -5.93452E-02
    9037.823     45.128   3.640  9.39122E-01  9.94152E-01 -5.50301E-02
    9038.938     46.243   3.680  9.44325E-01  9.93801E-01 -4.94761E-02
    9040.066     47.371   3.720  9.50319E-01  9.93521E-01 -4.32017E-02
    9041.206     48.511   3.760  9.56518E-01  9.93289E-01 -3.67718E-02
    9042.358     49.663   3.800  9.62414E-01  9.93128E-01 -3.07142E-02
    9043.522     50.827   3.840  9.67661E-01  9.93016E-01 -2.53549E-02
    9044.699     52.004   3.880  9.72334E-01  9.92972E-01 -2.06381E-02
    9045.888     53.193   3.920  9.76793E-01  9.92976E-01 -1.61834E-02
    9047.088     54.393   3.960  9.81455E-01  9.93028E-01 -1.15734E-02
    9048.302     55.607   4.000  9.86572E-01  9.93148E-01 -6.57588E-03
    9049.527     56.832   4.040  9.92070E-01  9.93313E-01 -1.24326E-03
    9050.764     58.069   4.080  9.97723E-01  9.93545E-01  4.17813E-03
    9052.014     59.319   4.120  1.00319E+00  9.93799E-01  9.38744E-03
    9053.276     60.581   4.160  1.00839E+00  9.94116E-01  1.42709E-02
    9054.550     61.855   4.200  1.01333E+00  9.94474E-01  1.88530E-02
    9055.836     63.141   4.240  1.01805E+00  9.94871E-01  2.31832E-02
    9057.135     64.440   4.280  1.02254E+00  9.95285E-01  2.72554E-02
    9058.445     65.750   4.320  1.02676E+00  9.95757E-01  3.09998E-02
    9059.768     67.073   4.360  1.03057E+00  9.96243E-01  3.43272E-02
    9061.103     68.408   4.400  1.03406E+00  9.96763E-01  3.72967E-02
    9062.450     69.755   4.440  1.03747E+00  9.97316E-01  4.01534E-02
    9063.810     71.115   4.480  1.04102E+00  9.97878E-01  4.31445E-02
    9065.181     72.486   4.520  1.04467E+00  9.98469E-01  4.62048E-02
    9066.565     73.870   4.560  1.04788E+00  9.99065E-01  4.88117E-02
    9067.961     75.266   4.600  1.04984E+00  9.99663E-01  5.01805E-02
    9069.369     76.674   4.640  1.04992E+00  1.00026E+00  4.96552E-02
    9070.790     78.095   4.680  1.04780E+00  1.00086E+00  4.69414E-02
    9072.222     79.527   4.720  1.04359E+00  1.00148E+00  4.21076E-02
    9073.667     80.972   4.760  1.03758E+00  1.00208E+00  3.54969E-02
    9075.124     82.429   4.800  1.03038E+00  1.00267E+00  2.77085E-02
    9076.593     83.898   4.840  1.02284E+00  1.00323E+00  1.96084E-02
    9078.074     85.379   4.880  1.01594E+00  1.00381E+00  1.21281E-02
    9079.568     86.873   4.920  1.01037E+00  1.00436E+00  6.01492E-03
    9081.073     88.379   4.960  1.00645E+00  1.00487E+00  1.57454E-03
    9082.591     89.896   5.000  1.00399E+00  1.00537E+00 -1.38441E-03
    9084.121     91.427   5.040  1.00249E+00  1.00584E+00 -3.34478E-03
    9085.664     92.969   5.080  1.00142E+00  1.00627E+00 -4.85237E-03
    9087.218     94.523   5.120  1.00029E+00  1.00668E+00 -6.38959E-03
    9088.785     96.090   5.160  9.98764E-01  1.00703E+00 -8.26997E-03
    9090.364     97.669   5.200  9.96870E-01  1.00737E+00 -1.04995E-02
    9091.955     99.260   5.240  9.94936E-01  1.00767E+00 -1.27308E-02
    9093.558    100.863   5.280  9.93528E-01  1.00792E+00 -1.43958E-02
    9095.173    102.479   5.320  9.93143E-01  1.00814E+00 -1.49955E-02
    9096.801    104.106   5.360  9.93927E-01  1.00831E+00 -1.43856E-02
    9098.441    105.746   5.400  9.95579E-01  1.00844E+00 -1.28649E-02
    9100.093    107.398   5.440  9.97592E-01  1.00853E+00 -1.09402E-02
    9101.757    109.062   5.480  9.99642E-01  1.00855E+00 -8.91241E-03
    9103.434    110.739   5.520  1.00182E+00  1.00856E+00 -6.74036E-03
    9105.122    112.427   5.560  1.00422E+00  1.00852E+00 -4.29923E-03
    9106.823    114.128   5.600  1.00670E+00  1.00841E+00 -1.70904E-03
    9108.536    115.841   5.640  1.00894E+00  1.00826E+00  6.75660E-04
    9110.261    117.566   5.680  1.01058E+00  1.00807E+00  2.51438E-03
    9111.998    119.303   5.720  1.01141E+00  1.00784E+00  3.57058E-03
    9113.748    121.053   5.760  1.01118E+00  1.00759E+00  3.59245E-03
    9115.510    122.815   5.800  1.00958E+00  1.00728E+00  2.30098E-03
    9117.284    124.589   5.840  1.00654E+00  1.00693E+00 -3.83720E-04
    9119.070    126.375   5.880  1.00240E+00  1.00654E+00 -4.13580E-03
    9120.868    128.173   5.920  9.97846E-01  1.00612E+00 -8.26988E-03
    9122.679    129.984   5.960  9.93715E-01  1.00566E+00 -1.19439E-02
    9124.501    131.806   6.000  9.90646E-01  1.00517E+00 -1.45217E-02
