# # comment:                                                     FEFF 9.9.1  
# # Source:
# # Structure
# # Reduced
# # space
# # abc:
# # angles:
# # sites:
# # POT  SCF 100  7.0000   0, screened core-hole, AFOLP (folp(0)= 1.150)
# # Abs   Z=29 Rmt= 1.160 Rnm= 1.225 K  shell
# # Pot 1 Z=58 Rmt= 1.815 Rnm= 1.862
# # Pot 2 Z=29 Rmt= 1.160 Rnm= 1.225
# # Pot 3 Z= 8 Rmt= 1.054 Rnm= 1.098
# # Gam_ch=1.729E+00 H-L exch Vi= 0.000E+00 Vr= 0.000E+00
# # Mu=-7.997E+00eV kf=2.128E+00 Vint=-1.863E+01eV Rs_int= 1.704
# FMS rfms= 9.0000
# # PATH  Rmax=-1.000,  Keep_limit= 0.00, Heap_limit 0.00  Pwcrit= 2.50%
#  S02=0.950  Temp=   0.00  Debye_temp=   0.00  Global_sig2= 0.00000
#  Energy zero shift, vr, vi    0.00000E+00   0.00000E+00
#  Curved wave amplitude ratio filter   4.000%
#     file         sig2 tot  cw amp ratio   deg  nlegs   reff  inp sig2
#     0/   0 paths used
#  xsedge+ 50, used to normalize mu           2.4450E-04
#  -----------------------------------------------------------------------
#  omega    e    k    mu    mu0     chi     @#
    8985.045    -11.807  -1.000  3.08945E-02  5.88209E-02 -2.79264E-02
    8985.343    -11.508  -0.960  3.20944E-02  6.32507E-02 -3.11563E-02
    8985.630    -11.222  -0.920  3.33592E-02  6.81872E-02 -3.48280E-02
    8985.904    -10.947  -0.880  3.46966E-02  7.37063E-02 -3.90097E-02
    8986.166    -10.685  -0.840  3.61161E-02  7.98966E-02 -4.37805E-02
    8986.416    -10.435  -0.800  3.76293E-02  8.68608E-02 -4.92315E-02
    8986.654    -10.197  -0.760  3.92501E-02  9.47169E-02 -5.54668E-02
    8986.880     -9.972  -0.720  4.09947E-02  1.03598E-01 -6.26038E-02
    8987.093     -9.759  -0.680  4.28818E-02  1.13653E-01 -7.07711E-02
    8987.294     -9.557  -0.640  4.49317E-02  1.25036E-01 -8.01043E-02
    8987.483     -9.368  -0.600  4.71646E-02  1.37901E-01 -9.07367E-02
    8987.660     -9.192  -0.560  4.95971E-02  1.52380E-01 -1.02783E-01
    8987.825     -9.027  -0.520  5.22371E-02  1.68552E-01 -1.16315E-01
    8987.977     -8.875  -0.480  5.50756E-02  1.86401E-01 -1.31326E-01
    8988.117     -8.734  -0.440  5.80789E-02  2.05771E-01 -1.47692E-01
    8988.245     -8.606  -0.400  6.11818E-02  2.26319E-01 -1.65138E-01
    8988.361     -8.491  -0.360  6.42881E-02  2.47511E-01 -1.83223E-01
    8988.465     -8.387  -0.320  6.72816E-02  2.68647E-01 -2.01365E-01
    8988.556     -8.296  -0.280  7.00459E-02  2.88954E-01 -2.18908E-01
    8988.635     -8.216  -0.240  7.24862E-02  3.07690E-01 -2.35204E-01
    8988.702     -8.149  -0.200  7.45429E-02  3.24236E-01 -2.49693E-01
    8988.757     -8.094  -0.160  7.61924E-02  3.38143E-01 -2.61951E-01
    8988.800     -8.052  -0.120  7.74351E-02  3.49127E-01 -2.71691E-01
    8988.830     -8.021  -0.080  7.82828E-02  3.57033E-01 -2.78750E-01
    8988.855     -7.997   0.000  7.88917E-02  3.63379E-01 -2.84488E-01
    8988.910     -7.942   0.120  8.05598E-02  3.77687E-01 -2.97128E-01
    8988.952     -7.899   0.160  8.18228E-02  3.88798E-01 -3.06975E-01
    8989.007     -7.844   0.200  8.33505E-02  4.02944E-01 -3.19593E-01
    8989.074     -7.777   0.240  8.50809E-02  4.19913E-01 -3.34832E-01
    8989.153     -7.698   0.280  8.69191E-02  4.39358E-01 -3.52439E-01
    8989.245     -7.607   0.320  8.87609E-02  4.60726E-01 -3.71966E-01
    8989.349     -7.503   0.360  9.04944E-02  4.83363E-01 -3.92869E-01
    8989.464     -7.387   0.400  9.20386E-02  5.06528E-01 -4.14490E-01
    8989.592     -7.259   0.440  9.34631E-02  5.29629E-01 -4.36166E-01
    8989.733     -7.119   0.480  9.48117E-02  5.52135E-01 -4.57324E-01
    8989.885     -6.967   0.520  9.62092E-02  5.73714E-01 -4.77505E-01
    8990.050     -6.802   0.560  9.78425E-02  5.94242E-01 -4.96399E-01
    8990.226     -6.625   0.600  9.98238E-02  6.13662E-01 -5.13838E-01
    8990.415     -6.436   0.640  1.02283E-01  6.32027E-01 -5.29744E-01
    8990.616     -6.235   0.680  1.05347E-01  6.49472E-01 -5.44125E-01
    8990.830     -6.022   0.720  1.08987E-01  6.66088E-01 -5.57101E-01
    8991.055     -5.796   0.760  1.13096E-01  6.82010E-01 -5.68913E-01
    8991.293     -5.558   0.800  1.17443E-01  6.97316E-01 -5.79873E-01
    8991.543     -5.309   0.840  1.21961E-01  7.12114E-01 -5.90154E-01
    8991.805     -5.046   0.880  1.26597E-01  7.26475E-01 -5.99878E-01
    8992.079     -4.772   0.920  1.31358E-01  7.40453E-01 -6.09095E-01
    8992.366     -4.486   0.960  1.36427E-01  7.54089E-01 -6.17662E-01
    8992.665     -4.187   1.000  1.42107E-01  7.67409E-01 -6.25302E-01
    8992.976     -3.876   1.040  1.48727E-01  7.80433E-01 -6.31706E-01
    8993.299     -3.553   1.080  1.56931E-01  7.93170E-01 -6.36239E-01
    8993.634     -3.218   1.120  1.67613E-01  8.05640E-01 -6.38027E-01
    8993.981     -2.870   1.160  1.81470E-01  8.17820E-01 -6.36350E-01
    8994.341     -2.510   1.200  1.99318E-01  8.29702E-01 -6.30384E-01
    8994.713     -2.139   1.240  2.22659E-01  8.41291E-01 -6.18632E-01
    8995.097     -1.755   1.280  2.53781E-01  8.52571E-01 -5.98790E-01
    8995.493     -1.358   1.320  2.95682E-01  8.63526E-01 -5.67844E-01
    8995.902     -0.950   1.360  3.51909E-01  8.74156E-01 -5.22247E-01
    8996.322     -0.529   1.400  4.27013E-01  8.84419E-01 -4.57407E-01
    8996.755     -0.096   1.440  5.26228E-01  8.94315E-01 -3.68087E-01
    8997.200      0.349   1.480  6.52186E-01  9.03820E-01 -2.51634E-01
    8997.657      0.806   1.520  8.07255E-01  9.12952E-01 -1.05697E-01
    8998.127      1.275   1.560  9.86268E-01  9.21672E-01  6.45955E-02
    8998.608      1.757   1.600  1.16499E+00  9.29979E-01  2.35007E-01
    8999.102      2.250   1.640  1.34777E+00  9.37870E-01  4.09895E-01
    8999.608      2.756   1.680  1.56846E+00  9.45346E-01  6.23113E-01
    9000.126      3.275   1.720  1.78425E+00  9.52408E-01  8.31846E-01
    9000.657      3.805   1.760  1.85340E+00  9.59036E-01  8.94365E-01
    9001.199      4.348   1.800  1.75217E+00  9.65234E-01  7.86939E-01
    9001.754      4.902   1.840  1.61993E+00  9.71002E-01  6.48931E-01
    9002.321      5.469   1.880  1.53826E+00  9.76365E-01  5.61897E-01
    9002.900      6.048   1.920  1.50806E+00  9.81308E-01  5.26753E-01
    9003.491      6.640   1.960  1.52095E+00  9.85856E-01  5.35097E-01
    9004.095      7.243   2.000  1.53264E+00  9.90015E-01  5.42629E-01
    9004.710      7.859   2.040  1.49271E+00  9.93790E-01  4.98925E-01
    9005.338      8.487   2.080  1.40555E+00  9.97188E-01  4.08361E-01
    9005.978      9.127   2.120  1.31375E+00  1.00022E+00  3.13537E-01
    9006.631      9.779   2.160  1.25700E+00  1.00292E+00  2.54070E-01
    9007.295     10.443   2.200  1.23102E+00  1.00530E+00  2.25716E-01
    9007.972     11.120   2.240  1.20976E+00  1.00735E+00  2.02408E-01
    9008.661     11.809   2.280  1.18367E+00  1.00912E+00  1.74546E-01
    9009.362     12.510   2.320  1.16032E+00  1.01058E+00  1.49740E-01
    9010.075     13.223   2.360  1.14430E+00  1.01181E+00  1.32497E-01
    9010.800     13.949   2.400  1.13169E+00  1.01276E+00  1.18934E-01
    9011.538     14.686   2.440  1.12077E+00  1.01349E+00  1.07280E-01
    9012.288     15.436   2.480  1.11938E+00  1.01401E+00  1.05374E-01
    9013.050     16.198   2.520  1.13355E+00  1.01432E+00  1.19233E-01
    9013.824     16.972   2.560  1.14849E+00  1.01446E+00  1.34030E-01
    9014.610     17.759   2.600  1.14197E+00  1.01443E+00  1.27549E-01
    9015.409     18.557   2.640  1.11529E+00  1.01425E+00  1.01033E-01
    9016.220     19.368   2.680  1.07959E+00  1.01393E+00  6.56592E-02
    9017.043     20.191   2.720  1.04441E+00  1.01348E+00  3.09294E-02
    9017.878     21.026   2.760  1.01395E+00  1.01291E+00  1.03654E-03
    9018.725     21.873   2.800  9.87876E-01  1.01227E+00 -2.43943E-02
    9019.585     22.733   2.840  9.64628E-01  1.01153E+00 -4.69009E-02
    9020.456     23.605   2.880  9.42942E-01  1.01073E+00 -6.77872E-02
    9021.340     24.489   2.920  9.22859E-01  1.00988E+00 -8.70183E-02
    9022.236     25.385   2.960  9.05322E-01  1.00896E+00 -1.03639E-01
    9023.145     26.293   3.000  8.91175E-01  1.00802E+00 -1.16848E-01
    9024.065     27.214   3.040  8.80370E-01  1.00705E+00 -1.26681E-01
    9024.998     28.146   3.080  8.71608E-01  1.00607E+00 -1.34460E-01
    9025.943     29.091   3.120  8.63436E-01  1.00506E+00 -1.41623E-01
    9026.900     30.048   3.160  8.55070E-01  1.00407E+00 -1.48999E-01
    9027.869     31.017   3.200  8.46134E-01  1.00308E+00 -1.56949E-01
    9028.850     31.999   3.240  8.36579E-01  1.00210E+00 -1.65523E-01
    9029.844     32.992   3.280  8.26581E-01  1.00115E+00 -1.74571E-01
    9030.850     33.998   3.320  8.16411E-01  1.00024E+00 -1.83826E-01
    9031.868     35.016   3.360  8.06976E-01  9.99358E-01 -1.92382E-01
    9032.898     36.047   3.400  7.99908E-01  9.98496E-01 -1.98588E-01
    9033.941     37.089   3.440  7.96457E-01  9.97696E-01 -2.01239E-01
    9034.995     38.144   3.480  7.97429E-01  9.96939E-01 -1.99510E-01
    9036.062     39.210   3.520  8.03240E-01  9.96227E-01 -1.92987E-01
    9037.141     40.289   3.560  8.13824E-01  9.95582E-01 -1.81758E-01
    9038.232     41.381   3.600  8.28646E-01  9.94984E-01 -1.66338E-01
    9039.335     42.484   3.640  8.47172E-01  9.94435E-01 -1.47263E-01
    9040.451     43.599   3.680  8.68733E-01  9.93957E-01 -1.25224E-01
    9041.579     44.727   3.720  8.92558E-01  9.93550E-01 -1.00992E-01
    9042.719     45.867   3.760  9.18367E-01  9.93195E-01 -7.48275E-02
    9043.871     47.019   3.800  9.46409E-01  9.92913E-01 -4.65032E-02
    9045.035     48.184   3.840  9.76439E-01  9.92681E-01 -1.62418E-02
    9046.212     49.360   3.880  1.00728E+00  9.92522E-01  1.47612E-02
    9047.400     50.549   3.920  1.03667E+00  9.92436E-01  4.42289E-02
    9048.601     51.750   3.960  1.06140E+00  9.92402E-01  6.90000E-02
    9049.814     52.963   4.000  1.07864E+00  9.92438E-01  8.61995E-02
    9051.040     54.188   4.040  1.08749E+00  9.92525E-01  9.49691E-02
    9052.277     55.426   4.080  1.08964E+00  9.92683E-01  9.69536E-02
    9053.527     56.675   4.120  1.08799E+00  9.92890E-01  9.50959E-02
    9054.789     57.937   4.160  1.08535E+00  9.93167E-01  9.21859E-02
    9056.063     59.211   4.200  1.08339E+00  9.93492E-01  8.99004E-02
    9057.349     60.498   4.240  1.08274E+00  9.93883E-01  8.88581E-02
    9058.648     61.796   4.280  1.08297E+00  9.94298E-01  8.86717E-02
    9059.958     63.107   4.320  1.08318E+00  9.94777E-01  8.84004E-02
    9061.281     64.429   4.360  1.08278E+00  9.95298E-01  8.74821E-02
    9062.616     65.764   4.400  1.08222E+00  9.95860E-01  8.63614E-02
    9063.963     67.112   4.440  1.08250E+00  9.96461E-01  8.60348E-02
    9065.323     68.471   4.480  1.08378E+00  9.97101E-01  8.66751E-02
    9066.694     69.843   4.520  1.08521E+00  9.97775E-01  8.74353E-02
    9068.078     71.226   4.560  1.08576E+00  9.98462E-01  8.72989E-02
    9069.474     72.622   4.600  1.08512E+00  9.99179E-01  8.59418E-02
    9070.882     74.031   4.640  1.08414E+00  9.99905E-01  8.42360E-02
    9072.303     75.451   4.680  1.08441E+00  1.00066E+00  8.37470E-02
    9073.735     76.884   4.720  1.08689E+00  1.00142E+00  8.54750E-02
    9075.180     78.328   4.760  1.09079E+00  1.00218E+00  8.86110E-02
    9076.637     79.785   4.800  1.09334E+00  1.00294E+00  9.03976E-02
    9078.106     81.254   4.840  1.09089E+00  1.00373E+00  8.71613E-02
    9079.587     82.736   4.880  1.08038E+00  1.00449E+00  7.58919E-02
    9081.081     84.229   4.920  1.06083E+00  1.00525E+00  5.55835E-02
    9082.586     85.735   4.960  1.03387E+00  1.00600E+00  2.78730E-02
    9084.104     87.253   5.000  1.00383E+00  1.00672E+00 -2.88575E-03
    9085.634     88.783   5.040  9.76486E-01  1.00743E+00 -3.09402E-02
    9087.177     90.325   5.080  9.56581E-01  1.00813E+00 -5.15452E-02
    9088.731     91.880   5.120  9.46264E-01  1.00877E+00 -6.25048E-02
    9090.298     93.446   5.160  9.45189E-01  1.00940E+00 -6.42085E-02
    9091.877     95.025   5.200  9.51653E-01  1.01001E+00 -5.83582E-02
    9093.468     96.616   5.240  9.63383E-01  1.01056E+00 -4.71802E-02
    9095.071     98.219   5.280  9.77685E-01  1.01107E+00 -3.33897E-02
    9096.686     99.835   5.320  9.91134E-01  1.01157E+00 -2.04328E-02
    9098.314    101.462   5.360  1.00002E+00  1.01199E+00 -1.19688E-02
    9099.954    103.102   5.400  1.00168E+00  1.01238E+00 -1.07004E-02
    9101.606    104.754   5.440  9.95446E-01  1.01271E+00 -1.72676E-02
    9103.270    106.419   5.480  9.83115E-01  1.01301E+00 -2.98907E-02
    9104.946    108.095   5.520  9.67939E-01  1.01323E+00 -4.52903E-02
    9106.635    109.783   5.560  9.52994E-01  1.01341E+00 -6.04129E-02
    9108.336    111.484   5.600  9.39965E-01  1.01354E+00 -7.35735E-02
    9110.049    113.197   5.640  9.29348E-01  1.01362E+00 -8.42758E-02
    9111.774    114.922   5.680  9.21694E-01  1.01364E+00 -9.19447E-02
    9113.511    116.660   5.720  9.18326E-01  1.01361E+00 -9.52801E-02
    9115.261    118.409   5.760  9.20291E-01  1.01350E+00 -9.32121E-02
    9117.023    120.171   5.800  9.27290E-01  1.01335E+00 -8.60637E-02
    9118.797    121.945   5.840  9.37801E-01  1.01316E+00 -7.53574E-02
    9120.583    123.731   5.880  9.49820E-01  1.01289E+00 -6.30745E-02
    9122.381    125.529   5.920  9.61192E-01  1.01259E+00 -5.13939E-02
    9124.191    127.340   5.960  9.70173E-01  1.01220E+00 -4.20301E-02
    9126.014    129.163   6.000  9.76142E-01  1.01176E+00 -3.56201E-02
