# # comment:                                                     FEFF 9.9.1  
# # Source:
# # Structure
# # Reduced
# # space
# # abc:
# # angles:109.792362
# # sites:
# # POT  SCF 100  7.0000   0, screened core-hole, AFOLP (folp(0)= 1.150)
# # Abs   Z=29 Rmt= 1.157 Rnm= 1.323 K  shell
# # Pot 1 Z=13 Rmt= 1.269 Rnm= 1.373
# # Pot 2 Z=29 Rmt= 1.157 Rnm= 1.323
# # Pot 3 Z=74 Rmt= 1.269 Rnm= 1.424
# # Pot 4 Z= 8 Rmt= 0.946 Rnm= 1.052
# # Gam_ch=1.729E+00 H-L exch Vi= 0.000E+00 Vr= 0.000E+00
# # Mu=-5.696E+00eV kf=2.321E+00 Vint=-1.719E+01eV Rs_int= 1.562
# FMS rfms= 9.0000
# # PATH  Rmax=-1.000,  Keep_limit= 0.00, Heap_limit 0.00  Pwcrit= 2.50%
#  S02=0.950  Temp=   0.00  Debye_temp=   0.00  Global_sig2= 0.00000
#  Energy zero shift, vr, vi    0.00000E+00   0.00000E+00
#  Curved wave amplitude ratio filter   4.000%
#     file         sig2 tot  cw amp ratio   deg  nlegs   reff  inp sig2
#     0/   0 paths used
#  xsedge+ 50, used to normalize mu           2.4843E-04
#  -----------------------------------------------------------------------
#  omega    e    k    mu    mu0     chi     @#
    8983.466     -9.506  -1.000  5.96052E-02  5.64506E-02  3.15461E-03
    8983.765     -9.207  -0.960  6.42639E-02  6.06650E-02  3.59895E-03
    8984.052     -8.921  -0.920  6.94661E-02  6.53599E-02  4.10624E-03
    8984.326     -8.647  -0.880  7.52918E-02  7.06073E-02  4.68447E-03
    8984.588     -8.385  -0.840  8.18333E-02  7.64912E-02  5.34212E-03
    8984.838     -8.135  -0.800  8.91971E-02  8.31090E-02  6.08805E-03
    8985.076     -7.897  -0.760  9.75039E-02  9.05728E-02  6.93118E-03
    8985.301     -7.671  -0.720  1.06889E-01  9.90092E-02  7.88015E-03
    8985.515     -7.458  -0.680  1.17501E-01  1.08558E-01  8.94280E-03
    8985.716     -7.257  -0.640  1.29494E-01  1.19368E-01  1.01256E-02
    8985.905     -7.068  -0.600  1.43017E-01  1.31584E-01  1.14332E-02
    8986.082     -6.891  -0.560  1.58198E-01  1.45331E-01  1.28676E-02
    8986.246     -6.726  -0.520  1.75112E-01  1.60684E-01  1.44284E-02
    8986.399     -6.574  -0.480  1.93741E-01  1.77629E-01  1.61123E-02
    8986.539     -6.434  -0.440  2.13930E-01  1.96016E-01  1.79137E-02
    8986.667     -6.306  -0.400  2.35347E-01  2.15522E-01  1.98241E-02
    8986.783     -6.190  -0.360  2.57467E-01  2.35637E-01  2.18298E-02
    8986.886     -6.086  -0.320  2.79606E-01  2.55698E-01  2.39080E-02
    8986.978     -5.995  -0.280  3.00992E-01  2.74971E-01  2.60214E-02
    8987.057     -5.916  -0.240  3.20864E-01  2.92750E-01  2.81141E-02
    8987.124     -5.849  -0.200  3.38561E-01  3.08450E-01  3.01111E-02
    8987.179     -5.794  -0.160  3.53568E-01  3.21645E-01  3.19230E-02
    8987.222     -5.751  -0.120  3.65519E-01  3.32065E-01  3.34544E-02
    8987.252     -5.721  -0.080  3.74181E-01  3.39565E-01  3.46160E-02
    8987.276     -5.696   0.000  3.81167E-01  3.45587E-01  3.55807E-02
    8987.331     -5.641   0.120  3.97016E-01  3.59159E-01  3.78568E-02
    8987.374     -5.599   0.160  4.09485E-01  3.69687E-01  3.97977E-02
    8987.429     -5.544   0.200  4.25620E-01  3.83097E-01  4.25237E-02
    8987.496     -5.477   0.240  4.45434E-01  3.99202E-01  4.62323E-02
    8987.575     -5.398   0.280  4.68819E-01  4.17631E-01  5.11883E-02
    8987.667     -5.306   0.320  4.95571E-01  4.37856E-01  5.77154E-02
    8987.770     -5.202   0.360  5.25467E-01  4.59289E-01  6.61780E-02
    8987.886     -5.087   0.400  5.58073E-01  4.81208E-01  7.68651E-02
    8988.014     -4.959   0.440  5.92840E-01  5.03046E-01  8.97939E-02
    8988.154     -4.818   0.480  6.28702E-01  5.24298E-01  1.04404E-01
    8988.307     -4.666   0.520  6.64027E-01  5.44666E-01  1.19362E-01
    8988.471     -4.501   0.560  6.96800E-01  5.64014E-01  1.32786E-01
    8988.648     -4.325   0.600  7.25512E-01  5.82333E-01  1.43180E-01
    8988.837     -4.136   0.640  7.50103E-01  5.99651E-01  1.50452E-01
    8989.038     -3.934   0.680  7.71578E-01  6.16080E-01  1.55499E-01
    8989.252     -3.721   0.720  7.89563E-01  6.31729E-01  1.57834E-01
    8989.477     -3.496   0.760  8.00701E-01  6.46750E-01  1.53951E-01
    8989.715     -3.258   0.800  8.00854E-01  6.61220E-01  1.39634E-01
    8989.965     -3.008   0.840  7.89588E-01  6.75224E-01  1.14364E-01
    8990.227     -2.746   0.880  7.71997E-01  6.88853E-01  8.31438E-02
    8990.501     -2.471   0.920  7.56381E-01  7.02180E-01  5.42004E-02
    8990.788     -2.185   0.960  7.50043E-01  7.15208E-01  3.48350E-02
    8991.086     -1.886   1.000  7.56586E-01  7.28025E-01  2.85609E-02
    8991.397     -1.575   1.040  7.74829E-01  7.40590E-01  3.42385E-02
    8991.720     -1.252   1.080  7.98142E-01  7.52974E-01  4.51678E-02
    8992.056     -0.917   1.120  8.14177E-01  7.65180E-01  4.89967E-02
    8992.403     -0.570   1.160  8.10992E-01  7.77166E-01  3.38267E-02
    8992.763     -0.210   1.200  7.87202E-01  7.88963E-01 -1.76083E-03
    8993.135      0.162   1.240  7.53778E-01  8.00580E-01 -4.68026E-02
    8993.519      0.546   1.280  7.20791E-01  8.11962E-01 -9.11709E-02
    8993.915      0.942   1.320  6.87054E-01  8.23112E-01 -1.36058E-01
    8994.323      1.351   1.360  6.51252E-01  8.34031E-01 -1.82778E-01
    8994.744      1.771   1.400  6.21488E-01  8.44717E-01 -2.23229E-01
    8995.177      2.204   1.440  6.06780E-01  8.55109E-01 -2.48329E-01
    8995.622      2.649   1.480  6.09025E-01  8.65245E-01 -2.56220E-01
    8996.079      3.106   1.520  6.25775E-01  8.75059E-01 -2.49284E-01
    8996.548      3.576   1.560  6.52868E-01  8.84571E-01 -2.31703E-01
    8997.030      4.057   1.600  6.82870E-01  8.93774E-01 -2.10904E-01
    8997.524      4.551   1.640  7.08134E-01  9.02628E-01 -1.94495E-01
    8998.030      5.057   1.680  7.28365E-01  9.11149E-01 -1.82784E-01
    8998.548      5.575   1.720  7.51239E-01  9.19293E-01 -1.68054E-01
    8999.078      6.106   1.760  7.84475E-01  9.27101E-01 -1.42626E-01
    8999.621      6.648   1.800  8.30275E-01  9.34529E-01 -1.04253E-01
    9000.176      7.203   1.840  8.82052E-01  9.41576E-01 -5.95245E-02
    9000.742      7.770   1.880  9.27412E-01  9.48264E-01 -2.08526E-02
    9001.322      8.349   1.920  9.58619E-01  9.54573E-01  4.04665E-03
    9001.913      8.940   1.960  9.80635E-01  9.60502E-01  2.01325E-02
    9002.516      9.544   2.000  1.01280E+00  9.66055E-01  4.67496E-02
    9003.132     10.159   2.040  1.07186E+00  9.71233E-01  1.00625E-01
    9003.760     10.787   2.080  1.15141E+00  9.76060E-01  1.75346E-01
    9004.400     11.427   2.120  1.21870E+00  9.80519E-01  2.38179E-01
    9005.052     12.080   2.160  1.23946E+00  9.84616E-01  2.54845E-01
    9005.717     12.744   2.200  1.21577E+00  9.88393E-01  2.27373E-01
    9006.393     13.421   2.240  1.17640E+00  9.91816E-01  1.84579E-01
    9007.082     14.110   2.280  1.14273E+00  9.94912E-01  1.47822E-01
    9007.783     14.811   2.320  1.12642E+00  9.97705E-01  1.28717E-01
    9008.497     15.524   2.360  1.12695E+00  1.00020E+00  1.26748E-01
    9009.222     16.249   2.400  1.12726E+00  1.00239E+00  1.24876E-01
    9009.960     16.987   2.440  1.11144E+00  1.00431E+00  1.07132E-01
    9010.709     17.737   2.480  1.08701E+00  1.00595E+00  8.10581E-02
    9011.471     18.499   2.520  1.07200E+00  1.00735E+00  6.46506E-02
    9012.246     19.273   2.560  1.07161E+00  1.00850E+00  6.31118E-02
    9013.032     20.059   2.600  1.07556E+00  1.00943E+00  6.61255E-02
    9013.831     20.858   2.640  1.07505E+00  1.01016E+00  6.48933E-02
    9014.641     21.669   2.680  1.07528E+00  1.01068E+00  6.45976E-02
    9015.464     22.492   2.720  1.08418E+00  1.01103E+00  7.31425E-02
    9016.299     23.327   2.760  1.09755E+00  1.01119E+00  8.63525E-02
    9017.147     24.174   2.800  1.10689E+00  1.01119E+00  9.57023E-02
    9018.006     25.034   2.840  1.10804E+00  1.01105E+00  9.69843E-02
    9018.878     25.905   2.880  1.10165E+00  1.01079E+00  9.08649E-02
    9019.762     26.789   2.920  1.09164E+00  1.01040E+00  8.12436E-02
    9020.658     27.685   2.960  1.08114E+00  1.00989E+00  7.12484E-02
    9021.566     28.594   3.000  1.07122E+00  1.00929E+00  6.19252E-02
    9022.487     29.514   3.040  1.06126E+00  1.00859E+00  5.26762E-02
    9023.420     30.447   3.080  1.04981E+00  1.00782E+00  4.19884E-02
    9024.364     31.392   3.120  1.03554E+00  1.00698E+00  2.85582E-02
    9025.321     32.349   3.160  1.01823E+00  1.00609E+00  1.21360E-02
    9026.291     33.318   3.200  9.98112E-01  1.00516E+00 -7.04782E-03
    9027.272     34.299   3.240  9.76245E-01  1.00418E+00 -2.79398E-02
    9028.266     35.293   3.280  9.54382E-01  1.00317E+00 -4.87918E-02
    9029.272     36.299   3.320  9.33884E-01  1.00215E+00 -6.82670E-02
    9030.290     37.317   3.360  9.15590E-01  1.00110E+00 -8.55079E-02
    9031.320     38.347   3.400  9.00275E-01  1.00006E+00 -9.97858E-02
    9032.362     39.390   3.440  8.88136E-01  9.99001E-01 -1.10865E-01
    9033.417     40.444   3.480  8.79204E-01  9.97941E-01 -1.18737E-01
    9034.484     41.511   3.520  8.73374E-01  9.96906E-01 -1.23531E-01
    9035.563     42.590   3.560  8.70435E-01  9.95878E-01 -1.25443E-01
    9036.654     43.681   3.600  8.70136E-01  9.94879E-01 -1.24743E-01
    9037.757     44.785   3.640  8.72331E-01  9.93891E-01 -1.21560E-01
    9038.873     45.900   3.680  8.76969E-01  9.92936E-01 -1.15967E-01
    9040.001     47.028   3.720  8.83770E-01  9.92015E-01 -1.08246E-01
    9041.140     48.168   3.760  8.92389E-01  9.91132E-01 -9.87434E-02
    9042.293     49.320   3.800  9.02515E-01  9.90267E-01 -8.77521E-02
    9043.457     50.484   3.840  9.13918E-01  9.89461E-01 -7.55426E-02
    9044.633     51.661   3.880  9.26276E-01  9.88697E-01 -6.24206E-02
    9045.822     52.850   3.920  9.39407E-01  9.87977E-01 -4.85692E-02
    9047.023     54.050   3.960  9.53263E-01  9.87320E-01 -3.40562E-02
    9048.236     55.264   4.000  9.67867E-01  9.86685E-01 -1.88178E-02
    9049.462     56.489   4.040  9.83240E-01  9.86113E-01 -2.87348E-03
    9050.699     57.726   4.080  9.98899E-01  9.85586E-01  1.33138E-02
    9051.949     58.976   4.120  1.01360E+00  9.85103E-01  2.84953E-02
    9053.211     60.238   4.160  1.02570E+00  9.84686E-01  4.10101E-02
    9054.485     61.512   4.200  1.03372E+00  9.84313E-01  4.94093E-02
    9055.771     62.798   4.240  1.03701E+00  9.83984E-01  5.30237E-02
    9057.069     64.097   4.280  1.03591E+00  9.83700E-01  5.22066E-02
    9058.380     65.407   4.320  1.03167E+00  9.83480E-01  4.81873E-02
    9059.703     66.730   4.360  1.02585E+00  9.83303E-01  4.25474E-02
    9061.038     68.065   4.400  1.01998E+00  9.83169E-01  3.68120E-02
    9062.385     69.412   4.440  1.01526E+00  9.83076E-01  3.21822E-02
    9063.744     70.772   4.480  1.01230E+00  9.83025E-01  2.92778E-02
    9065.116     72.143   4.520  1.01116E+00  9.83036E-01  2.81220E-02
    9066.500     73.527   4.560  1.01140E+00  9.83065E-01  2.83316E-02
    9067.896     74.923   4.600  1.01252E+00  9.83134E-01  2.93898E-02
    9069.304     76.331   4.640  1.01413E+00  9.83263E-01  3.08683E-02
    9070.724     77.752   4.680  1.01590E+00  9.83407E-01  3.24897E-02
    9072.157     79.184   4.720  1.01765E+00  9.83586E-01  3.40602E-02
    9073.602     80.629   4.760  1.01910E+00  9.83799E-01  3.52977E-02
    9075.058     82.086   4.800  1.01992E+00  9.84024E-01  3.58925E-02
    9076.528     83.555   4.840  1.01992E+00  9.84280E-01  3.56426E-02
    9078.009     85.036   4.880  1.01905E+00  9.84546E-01  3.45090E-02
    9079.502     86.530   4.920  1.01737E+00  9.84842E-01  3.25268E-02
    9081.008     88.035   4.960  1.01488E+00  9.85170E-01  2.97072E-02
    9082.526     89.553   5.000  1.01149E+00  9.85503E-01  2.59840E-02
    9084.056     91.083   5.040  1.00715E+00  9.85840E-01  2.13107E-02
    9085.598     92.626   5.080  1.00199E+00  9.86180E-01  1.58087E-02
    9087.153     94.180   5.120  9.96447E-01  9.86543E-01  9.90421E-03
    9088.720     95.747   5.160  9.91128E-01  9.86885E-01  4.24210E-03
    9090.298     97.326   5.200  9.86731E-01  9.87248E-01 -5.16538E-04
    9091.889     98.917   5.240  9.83693E-01  9.87586E-01 -3.89324E-03
    9093.493    100.520   5.280  9.82154E-01  9.87921E-01 -5.76635E-03
    9095.108    102.135   5.320  9.81799E-01  9.88252E-01 -6.45309E-03
    9096.736    103.763   5.360  9.81972E-01  9.88581E-01 -6.60884E-03
    9098.376    105.403   5.400  9.81979E-01  9.88904E-01 -6.92454E-03
    9100.028    107.055   5.440  9.81353E-01  9.89197E-01 -7.84395E-03
    9101.692    108.719   5.480  9.80003E-01  9.89481E-01 -9.47843E-03
    9103.368    110.396   5.520  9.78082E-01  9.89734E-01 -1.16514E-02
    9105.057    112.084   5.560  9.75968E-01  9.89976E-01 -1.40086E-02
    9106.758    113.785   5.600  9.74090E-01  9.90184E-01 -1.60945E-02
    9108.471    115.498   5.640  9.72932E-01  9.90358E-01 -1.74262E-02
    9110.196    117.223   5.680  9.72890E-01  9.90520E-01 -1.76306E-02
    9111.933    118.960   5.720  9.74034E-01  9.90650E-01 -1.66160E-02
    9113.683    120.710   5.760  9.76161E-01  9.90766E-01 -1.46050E-02
    9115.444    122.472   5.800  9.78834E-01  9.90822E-01 -1.19885E-02
    9117.218    124.246   5.840  9.81789E-01  9.90865E-01 -9.07569E-03
    9119.004    126.032   5.880  9.84941E-01  9.90871E-01 -5.92980E-03
    9120.803    127.830   5.920  9.88363E-01  9.90838E-01 -2.47450E-03
    9122.613    129.641   5.960  9.91939E-01  9.90765E-01  1.17419E-03
    9124.436    131.463   6.000  9.95104E-01  9.90631E-01  4.47263E-03
