# # comment:                                                     FEFF 9.9.1  
# # Source:
# # Structure
# # Reduced
# # space
# # abc:
# # angles:108.052645
# # sites:
# # POT  SCF 100  7.0000   0, screened core-hole, AFOLP (folp(0)= 1.150)
# # Abs   Z=29 Rmt= 1.211 Rnm= 1.341 K  shell
# # Pot 1 Z=29 Rmt= 1.211 Rnm= 1.341
# # Pot 2 Z= 8 Rmt= 0.989 Rnm= 1.123
# # Pot 3 Z= 9 Rmt= 1.025 Rnm= 1.135
# # Gam_ch=1.729E+00 H-L exch Vi= 0.000E+00 Vr= 0.000E+00
# # Mu=-6.432E+00eV kf=1.963E+00 Vint=-1.240E+01eV Rs_int= 1.847
# FMS rfms= 9.0000
# # PATH  Rmax=-1.000,  Keep_limit= 0.00, Heap_limit 0.00  Pwcrit= 2.50%
#  S02=0.950  Temp=   0.00  Debye_temp=   0.00  Global_sig2= 0.00000
#  Energy zero shift, vr, vi    0.00000E+00   0.00000E+00
#  Curved wave amplitude ratio filter   4.000%
#     file         sig2 tot  cw amp ratio   deg  nlegs   reff  inp sig2
#     0/   0 paths used
#  xsedge+ 50, used to normalize mu           2.4081E-04
#  -----------------------------------------------------------------------
#  omega    e    k    mu    mu0     chi     @#
    8983.271    -10.242  -1.000  3.44831E-02  5.58417E-02 -2.13586E-02
    8983.569     -9.943  -0.960  3.59348E-02  5.98165E-02 -2.38818E-02
    8983.856     -9.657  -0.920  3.74576E-02  6.42183E-02 -2.67607E-02
    8984.130     -9.382  -0.880  3.90561E-02  6.91079E-02 -3.00518E-02
    8984.392     -9.120  -0.840  4.07354E-02  7.45558E-02 -3.38204E-02
    8984.642     -8.870  -0.800  4.25010E-02  8.06433E-02 -3.81423E-02
    8984.880     -8.632  -0.760  4.43593E-02  8.74633E-02 -4.31040E-02
    8985.105     -8.407  -0.720  4.63172E-02  9.51206E-02 -4.88034E-02
    8985.319     -8.193  -0.680  4.83821E-02  1.03730E-01 -5.53477E-02
    8985.520     -7.992  -0.640  5.05610E-02  1.13411E-01 -6.28503E-02
    8985.709     -7.803  -0.600  5.28602E-02  1.24283E-01 -7.14228E-02
    8985.886     -7.627  -0.560  5.52831E-02  1.36444E-01 -8.11612E-02
    8986.050     -7.462  -0.520  5.78275E-02  1.49953E-01 -9.21252E-02
    8986.203     -7.310  -0.480  6.04820E-02  1.64791E-01 -1.04309E-01
    8986.343     -7.169  -0.440  6.32223E-02  1.80831E-01 -1.17609E-01
    8986.471     -7.041  -0.400  6.60073E-02  1.97800E-01 -1.31792E-01
    8986.587     -6.926  -0.360  6.87787E-02  2.15270E-01 -1.46491E-01
    8986.690     -6.822  -0.320  7.14656E-02  2.32687E-01 -1.61221E-01
    8986.782     -6.730  -0.280  7.39926E-02  2.49432E-01 -1.75440E-01
    8986.861     -6.651  -0.240  7.62901E-02  2.64909E-01 -1.88619E-01
    8986.928     -6.584  -0.200  7.83017E-02  2.78609E-01 -2.00308E-01
    8986.983     -6.529  -0.160  7.99874E-02  2.90157E-01 -2.10170E-01
    8987.026     -6.487  -0.120  8.13214E-02  2.99304E-01 -2.17983E-01
    8987.056     -6.456  -0.080  8.22878E-02  3.05906E-01 -2.23618E-01
    8987.081     -6.432   0.000  8.30793E-02  3.11219E-01 -2.28140E-01
    8987.135     -6.377   0.120  8.49026E-02  3.23217E-01 -2.38315E-01
    8987.178     -6.334   0.160  8.62795E-02  3.32591E-01 -2.46311E-01
    8987.233     -6.279   0.200  8.79951E-02  3.44567E-01 -2.56572E-01
    8987.300     -6.212   0.240  9.00583E-02  3.59068E-01 -2.69009E-01
    8987.379     -6.133   0.280  9.24315E-02  3.75838E-01 -2.83406E-01
    8987.471     -6.042   0.320  9.50886E-02  3.94503E-01 -2.99415E-01
    8987.574     -5.938   0.360  9.80412E-02  4.14639E-01 -3.16598E-01
    8987.690     -5.822   0.400  1.01282E-01  4.35721E-01 -3.34439E-01
    8987.818     -5.694   0.440  1.04894E-01  4.57325E-01 -3.52431E-01
    8987.958     -5.554   0.480  1.08986E-01  4.79087E-01 -3.70100E-01
    8988.111     -5.402   0.520  1.13716E-01  5.00741E-01 -3.87025E-01
    8988.275     -5.237   0.560  1.19330E-01  5.22203E-01 -4.02873E-01
    8988.452     -5.060   0.600  1.25993E-01  5.43390E-01 -4.17397E-01
    8988.641     -4.871   0.640  1.34031E-01  5.64363E-01 -4.30332E-01
    8988.842     -4.670   0.680  1.43551E-01  5.85106E-01 -4.41555E-01
    8989.056     -4.457   0.720  1.54727E-01  6.05715E-01 -4.50988E-01
    8989.281     -4.231   0.760  1.67465E-01  6.26198E-01 -4.58734E-01
    8989.519     -3.993   0.800  1.81733E-01  6.46599E-01 -4.64866E-01
    8989.769     -3.743   0.840  1.97792E-01  6.66901E-01 -4.69110E-01
    8990.031     -3.481   0.880  2.16694E-01  6.87120E-01 -4.70426E-01
    8990.305     -3.207   0.920  2.40148E-01  7.07234E-01 -4.67085E-01
    8990.592     -2.920   0.960  2.69913E-01  7.27212E-01 -4.57299E-01
    8990.891     -2.622   1.000  3.06758E-01  7.46993E-01 -4.40235E-01
    8991.201     -2.311   1.040  3.49301E-01  7.66549E-01 -4.17248E-01
    8991.525     -1.988   1.080  3.94454E-01  7.85783E-01 -3.91328E-01
    8991.860     -1.652   1.120  4.41272E-01  8.04676E-01 -3.63405E-01
    8992.207     -1.305   1.160  4.93663E-01  8.23126E-01 -3.29462E-01
    8992.567     -0.945   1.200  5.55338E-01  8.41087E-01 -2.85749E-01
    8992.939     -0.574   1.240  6.20675E-01  8.58517E-01 -2.37841E-01
    8993.323     -0.189   1.280  6.75474E-01  8.75308E-01 -1.99834E-01
    8993.719      0.207   1.320  7.07508E-01  8.91437E-01 -1.83929E-01
    8994.127      0.615   1.360  7.15909E-01  9.06846E-01 -1.90938E-01
    8994.548      1.036   1.400  7.15486E-01  9.21495E-01 -2.06009E-01
    8994.981      1.469   1.440  7.27715E-01  9.35349E-01 -2.07634E-01
    8995.426      1.914   1.480  7.67737E-01  9.48376E-01 -1.80640E-01
    8995.883      2.371   1.520  8.37532E-01  9.60568E-01 -1.23036E-01
    8996.353      2.840   1.560  9.21979E-01  9.71877E-01 -4.98986E-02
    8996.834      3.322   1.600  1.00347E+00  9.82346E-01  2.11228E-02
    8997.328      3.816   1.640  1.08700E+00  9.91933E-01  9.50711E-02
    8997.834      4.322   1.680  1.18994E+00  1.00067E+00  1.89273E-01
    8998.352      4.840   1.720  1.31238E+00  1.00857E+00  3.03810E-01
    8998.882      5.370   1.760  1.42847E+00  1.01563E+00  4.12844E-01
    8999.425      5.913   1.800  1.51314E+00  1.02192E+00  4.91227E-01
    8999.980      6.467   1.840  1.56453E+00  1.02740E+00  5.37135E-01
    9000.547      7.034   1.880  1.58969E+00  1.03217E+00  5.57517E-01
    9001.126      7.613   1.920  1.58758E+00  1.03624E+00  5.51348E-01
    9001.717      8.205   1.960  1.55715E+00  1.03961E+00  5.17536E-01
    9002.320      8.808   2.000  1.51032E+00  1.04237E+00  4.67944E-01
    9002.936      9.424   2.040  1.46154E+00  1.04457E+00  4.16972E-01
    9003.564     10.052   2.080  1.40352E+00  1.04620E+00  3.57327E-01
    9004.204     10.692   2.120  1.32939E+00  1.04732E+00  2.82076E-01
    9004.856     11.344   2.160  1.26386E+00  1.04797E+00  2.15886E-01
    9005.521     12.009   2.200  1.21386E+00  1.04821E+00  1.65659E-01
    9006.198     12.685   2.240  1.15123E+00  1.04806E+00  1.03172E-01
    9006.886     13.374   2.280  1.07343E+00  1.04756E+00  2.58707E-02
    9007.587     14.075   2.320  1.01518E+00  1.04675E+00 -3.15634E-02
    9008.301     14.788   2.360  9.96277E-01  1.04564E+00 -4.93664E-02
    9009.026     15.514   2.400  1.00714E+00  1.04433E+00 -3.71922E-02
    9009.764     16.251   2.440  1.01633E+00  1.04280E+00 -2.64670E-02
    9010.513     17.001   2.480  1.02444E+00  1.04106E+00 -1.66171E-02
    9011.275     17.763   2.520  1.03265E+00  1.03920E+00 -6.55508E-03
    9012.050     18.537   2.560  1.03941E+00  1.03720E+00  2.20942E-03
    9012.836     19.324   2.600  1.04319E+00  1.03511E+00  8.08411E-03
    9013.635     20.122   2.640  1.04284E+00  1.03296E+00  9.87943E-03
    9014.445     20.933   2.680  1.03760E+00  1.03073E+00  6.86572E-03
    9015.268     21.756   2.720  1.02822E+00  1.02847E+00 -2.55256E-04
    9016.103     22.591   2.760  1.01599E+00  1.02623E+00 -1.02380E-02
    9016.951     23.439   2.800  1.00257E+00  1.02396E+00 -2.13880E-02
    9017.810     24.298   2.840  9.89492E-01  1.02171E+00 -3.22230E-02
    9018.682     25.170   2.880  9.77487E-01  1.01949E+00 -4.20021E-02
    9019.566     26.054   2.920  9.66368E-01  1.01733E+00 -5.09589E-02
    9020.462     26.950   2.960  9.55470E-01  1.01524E+00 -5.97657E-02
    9021.370     27.858   3.000  9.44312E-01  1.01320E+00 -6.88851E-02
    9022.291     28.779   3.040  9.32834E-01  1.01122E+00 -7.83826E-02
    9023.224     29.711   3.080  9.21377E-01  1.00934E+00 -8.79644E-02
    9024.168     30.656   3.120  9.10487E-01  1.00758E+00 -9.70881E-02
    9025.126     31.613   3.160  9.00564E-01  1.00590E+00 -1.05335E-01
    9026.095     32.582   3.200  8.91882E-01  1.00431E+00 -1.12433E-01
    9027.076     33.564   3.240  8.84803E-01  1.00285E+00 -1.18044E-01
    9028.070     34.558   3.280  8.79878E-01  1.00150E+00 -1.21620E-01
    9029.076     35.563   3.320  8.77777E-01  1.00025E+00 -1.22471E-01
    9030.094     36.581   3.360  8.78732E-01  9.99142E-01 -1.20410E-01
    9031.124     37.612   3.400  8.82745E-01  9.98158E-01 -1.15413E-01
    9032.166     38.654   3.440  8.89495E-01  9.97275E-01 -1.07779E-01
    9033.221     39.709   3.480  8.98526E-01  9.96535E-01 -9.80093E-02
    9034.288     40.775   3.520  9.09022E-01  9.95899E-01 -8.68767E-02
    9035.367     41.854   3.560  9.20399E-01  9.95407E-01 -7.50073E-02
    9036.458     42.946   3.600  9.32265E-01  9.95015E-01 -6.27502E-02
    9037.561     44.049   3.640  9.44560E-01  9.94766E-01 -5.02062E-02
    9038.677     45.165   3.680  9.57138E-01  9.94619E-01 -3.74811E-02
    9039.805     46.292   3.720  9.69810E-01  9.94590E-01 -2.47799E-02
    9040.945     47.432   3.760  9.82173E-01  9.94681E-01 -1.25081E-02
    9042.097     48.584   3.800  9.93677E-01  9.94889E-01 -1.21281E-03
    9043.261     49.749   3.840  1.00377E+00  9.95191E-01  8.57667E-03
    9044.438     50.925   3.880  1.01225E+00  9.95605E-01  1.66423E-02
    9045.626     52.114   3.920  1.01924E+00  9.96110E-01  2.31306E-02
    9046.827     53.315   3.960  1.02517E+00  9.96701E-01  2.84638E-02
    9048.040     54.528   4.000  1.03064E+00  9.97399E-01  3.32379E-02
    9049.266     55.753   4.040  1.03621E+00  9.98159E-01  3.80536E-02
    9050.503     56.991   4.080  1.04227E+00  9.99021E-01  4.32478E-02
    9051.753     58.240   4.120  1.04863E+00  9.99939E-01  4.86923E-02
    9053.015     59.502   4.160  1.05476E+00  1.00093E+00  5.38261E-02
    9054.289     60.776   4.200  1.05991E+00  1.00200E+00  5.79101E-02
    9055.575     62.063   4.240  1.06344E+00  1.00309E+00  6.03517E-02
    9056.873     63.361   4.280  1.06499E+00  1.00424E+00  6.07432E-02
    9058.184     64.672   4.320  1.06435E+00  1.00544E+00  5.89054E-02
    9059.507     65.995   4.360  1.06171E+00  1.00668E+00  5.50300E-02
    9060.842     67.330   4.400  1.05779E+00  1.00795E+00  4.98441E-02
    9062.189     68.677   4.440  1.05370E+00  1.00923E+00  4.44700E-02
    9063.548     70.036   4.480  1.05064E+00  1.01052E+00  4.01262E-02
    9064.920     71.408   4.520  1.04963E+00  1.01183E+00  3.78013E-02
    9066.304     72.792   4.560  1.05121E+00  1.01315E+00  3.80684E-02
    9067.700     74.188   4.600  1.05534E+00  1.01446E+00  4.08851E-02
    9069.108     75.596   4.640  1.06133E+00  1.01574E+00  4.55903E-02
    9070.528     77.016   4.680  1.06811E+00  1.01702E+00  5.10971E-02
    9071.961     78.449   4.720  1.07441E+00  1.01828E+00  5.61337E-02
    9073.406     79.893   4.760  1.07903E+00  1.01951E+00  5.95254E-02
    9074.863     81.350   4.800  1.08118E+00  1.02070E+00  6.04785E-02
    9076.332     82.819   4.840  1.08056E+00  1.02185E+00  5.87099E-02
    9077.813     84.301   4.880  1.07733E+00  1.02295E+00  5.43851E-02
    9079.307     85.794   4.920  1.07198E+00  1.02400E+00  4.79736E-02
    9080.812     87.300   4.960  1.06494E+00  1.02499E+00  3.99534E-02
    9082.330     88.818   5.000  1.05650E+00  1.02592E+00  3.05756E-02
    9083.860     90.348   5.040  1.04664E+00  1.02678E+00  1.98632E-02
    9085.403     91.890   5.080  1.03557E+00  1.02759E+00  7.97928E-03
    9086.957     93.445   5.120  1.02390E+00  1.02834E+00 -4.43981E-03
    9088.524     95.011   5.160  1.01256E+00  1.02899E+00 -1.64278E-02
    9090.103     96.590   5.200  1.00245E+00  1.02958E+00 -2.71317E-02
    9091.694     98.181   5.240  9.93891E-01  1.03007E+00 -3.61786E-02
    9093.297     99.785   5.280  9.86859E-01  1.03050E+00 -4.36375E-02
    9094.912    101.400   5.320  9.81088E-01  1.03084E+00 -4.97544E-02
    9096.540    103.028   5.360  9.76321E-01  1.03111E+00 -5.47868E-02
    9098.180    104.667   5.400  9.72320E-01  1.03129E+00 -5.89676E-02
    9099.832    106.319   5.440  9.68943E-01  1.03139E+00 -6.24421E-02
    9101.496    107.984   5.480  9.66254E-01  1.03140E+00 -6.51469E-02
    9103.172    109.660   5.520  9.64519E-01  1.03133E+00 -6.68140E-02
    9104.861    111.349   5.560  9.64182E-01  1.03118E+00 -6.70011E-02
    9106.562    113.049   5.600  9.65607E-01  1.03095E+00 -6.53468E-02
    9108.275    114.762   5.640  9.68852E-01  1.03067E+00 -6.18187E-02
    9110.000    116.487   5.680  9.73565E-01  1.03031E+00 -5.67450E-02
    9111.737    118.225   5.720  9.79276E-01  1.02987E+00 -5.05939E-02
    9113.487    119.974   5.760  9.85646E-01  1.02936E+00 -4.37100E-02
    9115.248    121.736   5.800  9.92563E-01  1.02879E+00 -3.62313E-02
    9117.022    123.510   5.840  9.99967E-01  1.02819E+00 -2.82198E-02
    9118.808    125.296   5.880  1.00758E+00  1.02751E+00 -1.99367E-02
    9120.607    127.094   5.920  1.01477E+00  1.02677E+00 -1.20016E-02
    9122.417    128.905   5.960  1.02080E+00  1.02602E+00 -5.22286E-03
    9124.240    130.728   6.000  1.02504E+00  1.02520E+00 -1.57110E-04
