# # comment:                                                     FEFF 9.9.1  
# # Source:
# # Structure
# # Reduced
# # space
# # abc:
# # angles:120.797812
# # sites:
# # POT  SCF 100  7.0000   0, screened core-hole, AFOLP (folp(0)= 1.150)
# # Abs   Z=29 Rmt= 1.269 Rnm= 1.344 K  shell
# # Pot 1 Z=25 Rmt= 1.304 Rnm= 1.403
# # Pot 2 Z=29 Rmt= 1.269 Rnm= 1.344
# # Pot 3 Z= 8 Rmt= 1.022 Rnm= 1.096
# # Gam_ch=1.729E+00 H-L exch Vi= 0.000E+00 Vr= 0.000E+00
# # Mu=-1.074E+01eV kf=2.183E+00 Vint=-1.832E+01eV Rs_int= 1.662
# FMS rfms= 9.0000
# # PATH  Rmax=-1.000,  Keep_limit= 0.00, Heap_limit 0.00  Pwcrit= 2.50%
#  S02=0.950  Temp=   0.00  Debye_temp=   0.00  Global_sig2= 0.00000
#  Energy zero shift, vr, vi    0.00000E+00   0.00000E+00
#  Curved wave amplitude ratio filter   4.000%
#     file         sig2 tot  cw amp ratio   deg  nlegs   reff  inp sig2
#     0/   0 paths used
#  xsedge+ 50, used to normalize mu           2.5057E-04
#  -----------------------------------------------------------------------
#  omega    e    k    mu    mu0     chi     @#
    8984.174    -14.547  -1.000  3.12975E-02  4.47429E-02 -1.34454E-02
    8984.473    -14.249  -0.960  3.27748E-02  4.77462E-02 -1.49714E-02
    8984.759    -13.962  -0.920  3.43572E-02  5.10647E-02 -1.67075E-02
    8985.034    -13.688  -0.880  3.60564E-02  5.47434E-02 -1.86870E-02
    8985.296    -13.426  -0.840  3.78858E-02  5.88345E-02 -2.09487E-02
    8985.546    -13.176  -0.800  3.98610E-02  6.33985E-02 -2.35375E-02
    8985.783    -12.938  -0.760  4.19992E-02  6.85045E-02 -2.65053E-02
    8986.009    -12.713  -0.720  4.43198E-02  7.42304E-02 -2.99106E-02
    8986.222    -12.499  -0.680  4.68437E-02  8.06619E-02 -3.38182E-02
    8986.423    -12.298  -0.640  4.95924E-02  8.78890E-02 -3.82966E-02
    8986.612    -12.109  -0.600  5.25858E-02  9.59999E-02 -4.34141E-02
    8986.789    -11.932  -0.560  5.58390E-02  1.05069E-01 -4.92301E-02
    8986.954    -11.768  -0.520  5.93565E-02  1.15140E-01 -5.57835E-02
    8987.106    -11.615  -0.480  6.31255E-02  1.26200E-01 -6.30746E-02
    8987.246    -11.475  -0.440  6.71070E-02  1.38153E-01 -7.10461E-02
    8987.374    -11.347  -0.400  7.12301E-02  1.50795E-01 -7.95645E-02
    8987.490    -11.231  -0.360  7.53915E-02  1.63805E-01 -8.84132E-02
    8987.594    -11.128  -0.320  7.94646E-02  1.76768E-01 -9.73038E-02
    8987.685    -11.036  -0.280  8.33165E-02  1.89224E-01 -1.05907E-01
    8987.765    -10.957  -0.240  8.68271E-02  2.00726E-01 -1.13899E-01
    8987.832    -10.890  -0.200  8.99025E-02  2.10899E-01 -1.20996E-01
    8987.886    -10.835  -0.160  9.24774E-02  2.19465E-01 -1.26987E-01
    8987.929    -10.792  -0.120  9.45085E-02  2.26244E-01 -1.31735E-01
    8987.960    -10.762  -0.080  9.59672E-02  2.31133E-01 -1.35165E-01
    8987.984    -10.737   0.000  9.71226E-02  2.35064E-01 -1.37942E-01
    8988.039    -10.683   0.120  9.99698E-02  2.43941E-01 -1.43971E-01
    8988.082    -10.640   0.160  1.02181E-01  2.50851E-01 -1.48670E-01
    8988.136    -10.585   0.200  1.05046E-01  2.59691E-01 -1.54646E-01
    8988.203    -10.518   0.240  1.08587E-01  2.70364E-01 -1.61778E-01
    8988.283    -10.439   0.280  1.12836E-01  2.82672E-01 -1.69836E-01
    8988.374    -10.347   0.320  1.17868E-01  2.96336E-01 -1.78467E-01
    8988.478    -10.244   0.360  1.23819E-01  3.11011E-01 -1.87193E-01
    8988.594    -10.128   0.400  1.30867E-01  3.26305E-01 -1.95438E-01
    8988.722    -10.000   0.440  1.39221E-01  3.41894E-01 -2.02673E-01
    8988.862     -9.860   0.480  1.48987E-01  3.57494E-01 -2.08507E-01
    8989.014     -9.707   0.520  1.59902E-01  3.72917E-01 -2.13014E-01
    8989.179     -9.543   0.560  1.71249E-01  3.88128E-01 -2.16879E-01
    8989.356     -9.366   0.600  1.81599E-01  4.03085E-01 -2.21486E-01
    8989.545     -9.177   0.640  1.89347E-01  4.17829E-01 -2.28482E-01
    8989.746     -8.976   0.680  1.93364E-01  4.32425E-01 -2.39060E-01
    8989.959     -8.762   0.720  1.93606E-01  4.46950E-01 -2.53343E-01
    8990.185     -8.537   0.760  1.91335E-01  4.61437E-01 -2.70102E-01
    8990.422     -8.299   0.800  1.89185E-01  4.75971E-01 -2.86786E-01
    8990.672     -8.049   0.840  1.90203E-01  4.90591E-01 -3.00388E-01
    8990.934     -7.787   0.880  1.96748E-01  5.05346E-01 -3.08597E-01
    8991.209     -7.513   0.920  2.10481E-01  5.20232E-01 -3.09751E-01
    8991.495     -7.226   0.960  2.33272E-01  5.35299E-01 -3.02027E-01
    8991.794     -6.927   1.000  2.67743E-01  5.50507E-01 -2.82765E-01
    8992.105     -6.617   1.040  3.16513E-01  5.65891E-01 -2.49378E-01
    8992.428     -6.294   1.080  3.78560E-01  5.81442E-01 -2.02882E-01
    8992.763     -5.958   1.120  4.42962E-01  5.97142E-01 -1.54179E-01
    8993.111     -5.611   1.160  4.85551E-01  6.12950E-01 -1.27399E-01
    8993.470     -5.251   1.200  4.85764E-01  6.28862E-01 -1.43098E-01
    8993.842     -4.879   1.240  4.57753E-01  6.44851E-01 -1.87098E-01
    8994.226     -4.495   1.280  4.34587E-01  6.60887E-01 -2.26299E-01
    8994.622     -4.099   1.320  4.29268E-01  6.76938E-01 -2.47670E-01
    8995.031     -3.691   1.360  4.38890E-01  6.92951E-01 -2.54061E-01
    8995.452     -3.270   1.400  4.61058E-01  7.08909E-01 -2.47851E-01
    8995.884     -2.837   1.440  4.93932E-01  7.24757E-01 -2.30825E-01
    8996.329     -2.392   1.480  5.35272E-01  7.40458E-01 -2.05186E-01
    8996.787     -1.935   1.520  5.89738E-01  7.55996E-01 -1.66258E-01
    8997.256     -1.465   1.560  6.63679E-01  7.71312E-01 -1.07632E-01
    8997.738     -0.984   1.600  7.40344E-01  7.86369E-01 -4.60251E-02
    8998.231     -0.490   1.640  7.79264E-01  8.01130E-01 -2.18666E-02
    8998.737      0.016   1.680  7.68278E-01  8.15579E-01 -4.73012E-02
    8999.255      0.534   1.720  7.43770E-01  8.29661E-01 -8.58903E-02
    8999.786      1.064   1.760  7.44610E-01  8.43338E-01 -9.87282E-02
    9000.328      1.607   1.800  7.87881E-01  8.56618E-01 -6.87367E-02
    9000.883      2.162   1.840  8.85443E-01  8.69428E-01  1.60144E-02
    9001.450      2.729   1.880  1.04675E+00  8.81777E-01  1.64976E-01
    9002.029      3.308   1.920  1.24925E+00  8.93612E-01  3.55636E-01
    9002.620      3.899   1.960  1.40526E+00  9.04947E-01  5.00318E-01
    9003.224      4.502   2.000  1.41512E+00  9.15752E-01  4.99367E-01
    9003.840      5.118   2.040  1.31975E+00  9.26002E-01  3.93749E-01
    9004.467      5.746   2.080  1.24212E+00  9.35712E-01  3.06408E-01
    9005.108      6.386   2.120  1.21882E+00  9.44859E-01  2.73958E-01
    9005.760      7.038   2.160  1.22359E+00  9.53420E-01  2.70167E-01
    9006.424      7.703   2.200  1.24381E+00  9.61435E-01  2.82377E-01
    9007.101      8.380   2.240  1.27798E+00  9.68885E-01  3.09099E-01
    9007.790      9.068   2.280  1.29484E+00  9.75752E-01  3.19087E-01
    9008.491      9.769   2.320  1.26816E+00  9.82082E-01  2.86079E-01
    9009.204     10.483   2.360  1.21278E+00  9.87877E-01  2.24900E-01
    9009.929     11.208   2.400  1.13632E+00  9.93121E-01  1.43203E-01
    9010.667     11.946   2.440  1.04162E+00  9.97842E-01  4.37786E-02
    9011.417     12.695   2.480  9.67138E-01  1.00205E+00 -3.49107E-02
    9012.179     13.457   2.520  9.32354E-01  1.00579E+00 -7.34354E-02
    9012.953     14.232   2.560  9.24105E-01  1.00903E+00 -8.49259E-02
    9013.739     15.018   2.600  9.35453E-01  1.01182E+00 -7.63694E-02
    9014.538     15.817   2.640  9.51226E-01  1.01420E+00 -6.29707E-02
    9015.349     16.627   2.680  9.67286E-01  1.01614E+00 -4.88568E-02
    9016.172     17.450   2.720  9.82244E-01  1.01769E+00 -3.54459E-02
    9017.007     18.285   2.760  9.91850E-01  1.01887E+00 -2.70207E-02
    9017.854     19.133   2.800  9.94699E-01  1.01972E+00 -2.50168E-02
    9018.714     19.992   2.840  9.92894E-01  1.02022E+00 -2.73219E-02
    9019.585     20.864   2.880  9.89105E-01  1.02042E+00 -3.13173E-02
    9020.469     21.748   2.920  9.84840E-01  1.02033E+00 -3.54851E-02
    9021.366     22.644   2.960  9.80038E-01  1.02000E+00 -3.99601E-02
    9022.274     23.552   3.000  9.73359E-01  1.01941E+00 -4.60522E-02
    9023.194     24.473   3.040  9.63768E-01  1.01861E+00 -5.48440E-02
    9024.127     25.406   3.080  9.51449E-01  1.01761E+00 -6.61658E-02
    9025.072     26.350   3.120  9.37815E-01  1.01645E+00 -7.86311E-02
    9026.029     27.308   3.160  9.24602E-01  1.01510E+00 -9.04948E-02
    9026.998     28.277   3.200  9.13215E-01  1.01364E+00 -1.00425E-01
    9027.980     29.258   3.240  9.04261E-01  1.01204E+00 -1.07778E-01
    9028.973     30.252   3.280  8.97860E-01  1.01035E+00 -1.12487E-01
    9029.979     31.258   3.320  8.94048E-01  1.00857E+00 -1.14521E-01
    9030.997     32.276   3.360  8.92899E-01  1.00669E+00 -1.13795E-01
    9032.027     33.306   3.400  8.94090E-01  1.00479E+00 -1.10701E-01
    9033.070     34.348   3.440  8.96917E-01  1.00285E+00 -1.05930E-01
    9034.124     35.403   3.480  9.00696E-01  1.00087E+00 -1.00172E-01
    9035.191     36.470   3.520  9.04930E-01  9.98859E-01 -9.39296E-02
    9036.270     37.549   3.560  9.09346E-01  9.96870E-01 -8.75240E-02
    9037.361     38.640   3.600  9.14121E-01  9.94883E-01 -8.07621E-02
    9038.465     39.743   3.640  9.19713E-01  9.92902E-01 -7.31889E-02
    9039.580     40.859   3.680  9.26681E-01  9.90955E-01 -6.42735E-02
    9040.708     41.987   3.720  9.35440E-01  9.89046E-01 -5.36056E-02
    9041.848     43.127   3.760  9.46172E-01  9.87178E-01 -4.10060E-02
    9043.000     44.279   3.800  9.58623E-01  9.85376E-01 -2.67526E-02
    9044.164     45.443   3.840  9.72312E-01  9.83622E-01 -1.13096E-02
    9045.341     46.620   3.880  9.87066E-01  9.81919E-01  5.14763E-03
    9046.530     47.808   3.920  1.00300E+00  9.80311E-01  2.26847E-02
    9047.731     49.009   3.960  1.01980E+00  9.78761E-01  4.10376E-02
    9048.944     50.222   4.000  1.03655E+00  9.77310E-01  5.92396E-02
    9050.169     51.448   4.040  1.05165E+00  9.75920E-01  7.57287E-02
    9051.406     52.685   4.080  1.06372E+00  9.74633E-01  8.90822E-02
    9052.656     53.935   4.120  1.07246E+00  9.73432E-01  9.90268E-02
    9053.918     55.197   4.160  1.07889E+00  9.72337E-01  1.06557E-01
    9055.192     56.471   4.200  1.08450E+00  9.71327E-01  1.13177E-01
    9056.478     57.757   4.240  1.09068E+00  9.70401E-01  1.20282E-01
    9057.777     59.055   4.280  1.09805E+00  9.69562E-01  1.28483E-01
    9059.087     60.366   4.320  1.10572E+00  9.68832E-01  1.36884E-01
    9060.410     61.689   4.360  1.11090E+00  9.68211E-01  1.42690E-01
    9061.745     63.024   4.400  1.10956E+00  9.67677E-01  1.41883E-01
    9063.092     64.371   4.440  1.09829E+00  9.67229E-01  1.31057E-01
    9064.452     65.730   4.480  1.07614E+00  9.66887E-01  1.09251E-01
    9065.823     67.102   4.520  1.04519E+00  9.66630E-01  7.85567E-02
    9067.207     68.486   4.560  1.00969E+00  9.66455E-01  4.32385E-02
    9068.603     69.882   4.600  9.74334E-01  9.66363E-01  7.97115E-03
    9070.011     71.290   4.640  9.42830E-01  9.66376E-01 -2.35458E-02
    9071.432     72.710   4.680  9.17278E-01  9.66469E-01 -4.91907E-02
    9072.864     74.143   4.720  8.98405E-01  9.66618E-01 -6.82135E-02
    9074.309     75.588   4.760  8.86168E-01  9.66866E-01 -8.06980E-02
    9075.766     77.045   4.800  8.80073E-01  9.67167E-01 -8.70939E-02
    9077.235     78.514   4.840  8.79524E-01  9.67540E-01 -8.80161E-02
    9078.716     79.995   4.880  8.83844E-01  9.67964E-01 -8.41192E-02
    9080.210     81.489   4.920  8.92456E-01  9.68458E-01 -7.60023E-02
    9081.716     82.994   4.960  9.04998E-01  9.69020E-01 -6.40219E-02
    9083.234     84.512   5.000  9.21042E-01  9.69603E-01 -4.85618E-02
    9084.764     86.042   5.040  9.39656E-01  9.70250E-01 -3.05939E-02
    9086.306     87.585   5.080  9.59003E-01  9.70936E-01 -1.19324E-02
    9087.860     89.139   5.120  9.76734E-01  9.71634E-01  5.10014E-03
    9089.427     90.706   5.160  9.90772E-01  9.72367E-01  1.84044E-02
    9091.006     92.284   5.200  9.99960E-01  9.73132E-01  2.68274E-02
    9092.597     93.876   5.240  1.00448E+00  9.73906E-01  3.05788E-02
    9094.200     95.479   5.280  1.00548E+00  9.74705E-01  3.07779E-02
    9095.816     97.094   5.320  1.00379E+00  9.75486E-01  2.83042E-02
    9097.443     98.722   5.360  9.99303E-01  9.76288E-01  2.30149E-02
    9099.083    100.362   5.400  9.91217E-01  9.77088E-01  1.41289E-02
    9100.735    102.014   5.440  9.79410E-01  9.77861E-01  1.54854E-03
    9102.399    103.678   5.480  9.65290E-01  9.78626E-01 -1.33368E-02
    9104.076    105.354   5.520  9.51099E-01  9.79360E-01 -2.82606E-02
    9105.764    107.043   5.560  9.38703E-01  9.80082E-01 -4.13788E-02
    9107.465    108.744   5.600  9.28812E-01  9.80769E-01 -5.19566E-02
    9109.178    110.457   5.640  9.21022E-01  9.81419E-01 -6.03972E-02
    9110.903    112.182   5.680  9.14421E-01  9.82054E-01 -6.76327E-02
    9112.641    113.919   5.720  9.08431E-01  9.82624E-01 -7.41931E-02
    9114.390    115.669   5.760  9.03629E-01  9.83150E-01 -7.95209E-02
    9116.152    117.430   5.800  9.01387E-01  9.83631E-01 -8.22438E-02
    9117.926    119.204   5.840  9.02975E-01  9.84041E-01 -8.10660E-02
    9119.712    120.990   5.880  9.08931E-01  9.84403E-01 -7.54726E-02
    9121.510    122.789   5.920  9.19107E-01  9.84714E-01 -6.56068E-02
    9123.321    124.599   5.960  9.33326E-01  9.84940E-01 -5.16139E-02
    9125.143    126.422   6.000  9.52200E-01  9.85054E-01 -3.28548E-02
