# # comment:                                                     FEFF 9.9.1  
# # Source:
# # Structure
# # Reduced
# # space
# # abc:
# # angles:109.471221
# # sites:
# # POT  SCF 100  7.0000   0, screened core-hole, AFOLP (folp(0)= 1.150)
# # Abs   Z=29 Rmt= 1.195 Rnm= 1.288 K  shell
# # Pot 1 Z=59 Rmt= 1.740 Rnm= 1.790
# # Pot 2 Z=25 Rmt= 1.288 Rnm= 1.395
# # Pot 3 Z=29 Rmt= 1.195 Rnm= 1.288
# # Pot 4 Z= 8 Rmt= 1.030 Rnm= 1.098
# # Gam_ch=1.729E+00 H-L exch Vi= 0.000E+00 Vr= 0.000E+00
# # Mu=-1.015E+01eV kf=2.174E+00 Vint=-1.819E+01eV Rs_int= 1.668
# FMS rfms= 9.0000
# # PATH  Rmax=-1.000,  Keep_limit= 0.00, Heap_limit 0.00  Pwcrit= 2.50%
#  S02=0.950  Temp=   0.00  Debye_temp=   0.00  Global_sig2= 0.00000
#  Energy zero shift, vr, vi    0.00000E+00   0.00000E+00
#  Curved wave amplitude ratio filter   4.000%
#     file         sig2 tot  cw amp ratio   deg  nlegs   reff  inp sig2
#     0/   0 paths used
#  xsedge+ 50, used to normalize mu           2.4834E-04
#  -----------------------------------------------------------------------
#  omega    e    k    mu    mu0     chi     @#
    8984.520    -13.962  -1.000  3.39708E-02  5.03022E-02 -1.63314E-02
    8984.818    -13.663  -0.960  3.55932E-02  5.38442E-02 -1.82510E-02
    8985.105    -13.377  -0.920  3.73220E-02  5.77706E-02 -2.04486E-02
    8985.379    -13.102  -0.880  3.91670E-02  6.21371E-02 -2.29701E-02
    8985.641    -12.840  -0.840  4.11391E-02  6.70084E-02 -2.58693E-02
    8985.891    -12.590  -0.800  4.32507E-02  7.24595E-02 -2.92088E-02
    8986.129    -12.353  -0.760  4.55157E-02  7.85764E-02 -3.30608E-02
    8986.354    -12.127  -0.720  4.79490E-02  8.54562E-02 -3.75071E-02
    8986.568    -11.914  -0.680  5.05668E-02  9.32053E-02 -4.26385E-02
    8986.769    -11.712  -0.640  5.33851E-02  1.01936E-01 -4.85513E-02
    8986.958    -11.524  -0.600  5.64183E-02  1.11759E-01 -5.53410E-02
    8987.135    -11.347  -0.560  5.96765E-02  1.22768E-01 -6.30914E-02
    8987.299    -11.182  -0.520  6.31607E-02  1.35017E-01 -7.18564E-02
    8987.452    -11.030  -0.480  6.68571E-02  1.48493E-01 -8.16361E-02
    8987.592    -10.890  -0.440  7.07298E-02  1.63078E-01 -9.23483E-02
    8987.720    -10.762  -0.400  7.47161E-02  1.78520E-01 -1.03804E-01
    8987.836    -10.646  -0.360  7.87248E-02  1.94425E-01 -1.15701E-01
    8987.939    -10.542  -0.320  8.26432E-02  2.10280E-01 -1.27637E-01
    8988.031    -10.451  -0.280  8.63507E-02  2.25516E-01 -1.39165E-01
    8988.110    -10.371  -0.240  8.97351E-02  2.39583E-01 -1.49848E-01
    8988.177    -10.304  -0.200  9.27055E-02  2.52021E-01 -1.59315E-01
    8988.232    -10.249  -0.160  9.51968E-02  2.62489E-01 -1.67292E-01
    8988.275    -10.207  -0.120  9.71663E-02  2.70769E-01 -1.73603E-01
    8988.305    -10.176  -0.080  9.85874E-02  2.76737E-01 -1.78150E-01
    8988.330    -10.152   0.000  9.97324E-02  2.81534E-01 -1.81802E-01
    8988.384    -10.097   0.120  1.02417E-01  2.92350E-01 -1.89933E-01
    8988.427    -10.054   0.160  1.04478E-01  3.00775E-01 -1.96297E-01
    8988.482    -10.000   0.200  1.07125E-01  3.11539E-01 -2.04414E-01
    8988.549     -9.932   0.240  1.10346E-01  3.24527E-01 -2.14180E-01
    8988.628     -9.853   0.280  1.14125E-01  3.39457E-01 -2.25333E-01
    8988.720     -9.762   0.320  1.18507E-01  3.55993E-01 -2.37487E-01
    8988.823     -9.658   0.360  1.23561E-01  3.73687E-01 -2.50126E-01
    8988.939     -9.542   0.400  1.29386E-01  3.92023E-01 -2.62637E-01
    8989.067     -9.414   0.440  1.36213E-01  4.10606E-01 -2.74393E-01
    8989.207     -9.274   0.480  1.44239E-01  4.29077E-01 -2.84837E-01
    8989.360     -9.122   0.520  1.53508E-01  4.47203E-01 -2.93695E-01
    8989.524     -8.957   0.560  1.63778E-01  4.64866E-01 -3.01089E-01
    8989.701     -8.780   0.600  1.74534E-01  4.82078E-01 -3.07544E-01
    8989.890     -8.591   0.640  1.85168E-01  4.98867E-01 -3.13699E-01
    8990.091     -8.390   0.680  1.95271E-01  5.15291E-01 -3.20021E-01
    8990.305     -8.177   0.720  2.04901E-01  5.31422E-01 -3.26521E-01
    8990.530     -7.951   0.760  2.14425E-01  5.47347E-01 -3.32922E-01
    8990.768     -7.714   0.800  2.24571E-01  5.63127E-01 -3.38556E-01
    8991.018     -7.464   0.840  2.37131E-01  5.78810E-01 -3.41680E-01
    8991.280     -7.201   0.880  2.55743E-01  5.94453E-01 -3.38710E-01
    8991.554     -6.927   0.920  2.85521E-01  6.10039E-01 -3.24519E-01
    8991.841     -6.641   0.960  3.31496E-01  6.25604E-01 -2.94108E-01
    8992.140     -6.342   1.000  3.94908E-01  6.41172E-01 -2.46265E-01
    8992.450     -6.031   1.040  4.66508E-01  6.56699E-01 -1.90192E-01
    8992.774     -5.708   1.080  5.28636E-01  6.72216E-01 -1.43580E-01
    8993.109     -5.373   1.120  5.81205E-01  6.87667E-01 -1.06462E-01
    8993.456     -5.025   1.160  6.50390E-01  7.03030E-01 -5.26404E-02
    8993.816     -4.666   1.200  7.47469E-01  7.18303E-01  2.91666E-02
    8994.188     -4.294   1.240  8.26800E-01  7.33457E-01  9.33436E-02
    8994.572     -3.910   1.280  8.14752E-01  7.48423E-01  6.63289E-02
    8994.968     -3.513   1.320  7.12961E-01  7.63192E-01 -5.02310E-02
    8995.376     -3.105   1.360  5.98911E-01  7.77750E-01 -1.78839E-01
    8995.797     -2.684   1.400  5.28646E-01  7.92023E-01 -2.63377E-01
    8996.230     -2.252   1.440  5.08167E-01  8.05979E-01 -2.97812E-01
    8996.675     -1.807   1.480  5.18029E-01  8.19626E-01 -3.01597E-01
    8997.132     -1.349   1.520  5.37636E-01  8.32890E-01 -2.95255E-01
    8997.602     -0.880   1.560  5.65114E-01  8.45779E-01 -2.80665E-01
    8998.083     -0.398   1.600  6.11706E-01  8.58243E-01 -2.46536E-01
    8998.577      0.095   1.640  6.75503E-01  8.70270E-01 -1.94767E-01
    8999.083      0.601   1.680  7.39458E-01  8.81812E-01 -1.42353E-01
    8999.601      1.120   1.720  7.95491E-01  8.92902E-01 -9.74103E-02
    9000.131      1.650   1.760  8.51655E-01  9.03472E-01 -5.18169E-02
    9000.674      2.192   1.800  9.02747E-01  9.13558E-01 -1.08118E-02
    9001.229      2.747   1.840  9.32733E-01  9.23116E-01  9.61680E-03
    9001.796      3.314   1.880  9.44829E-01  9.32144E-01  1.26846E-02
    9002.375      3.893   1.920  9.67182E-01  9.40660E-01  2.65224E-02
    9002.966      4.485   1.960  1.03236E+00  9.48626E-01  8.37301E-02
    9003.569      5.088   2.000  1.13397E+00  9.56083E-01  1.77887E-01
    9004.185      5.704   2.040  1.21758E+00  9.63034E-01  2.54542E-01
    9004.813      6.332   2.080  1.24399E+00  9.69464E-01  2.74530E-01
    9005.453      6.972   2.120  1.23605E+00  9.75397E-01  2.60652E-01
    9006.105      7.624   2.160  1.24001E+00  9.80818E-01  2.59187E-01
    9006.770      8.288   2.200  1.28846E+00  9.85776E-01  3.02680E-01
    9007.447      8.965   2.240  1.36876E+00  9.90277E-01  3.78480E-01
    9008.135      9.654   2.280  1.42325E+00  9.94332E-01  4.28917E-01
    9008.836     10.355   2.320  1.42062E+00  9.97946E-01  4.22672E-01
    9009.550     11.068   2.360  1.38434E+00  1.00115E+00  3.83190E-01
    9010.275     11.794   2.400  1.33248E+00  1.00398E+00  3.28501E-01
    9011.013     12.531   2.440  1.26877E+00  1.00641E+00  2.62357E-01
    9011.762     13.281   2.480  1.20360E+00  1.00850E+00  1.95099E-01
    9012.524     14.043   2.520  1.15161E+00  1.01025E+00  1.41367E-01
    9013.299     14.817   2.560  1.11616E+00  1.01169E+00  1.04470E-01
    9014.085     15.604   2.600  1.09236E+00  1.01284E+00  7.95228E-02
    9014.884     16.402   2.640  1.06875E+00  1.01371E+00  5.50335E-02
    9015.694     17.213   2.680  1.04149E+00  1.01432E+00  2.71727E-02
    9016.517     18.036   2.720  1.01749E+00  1.01470E+00  2.79045E-03
    9017.352     18.871   2.760  1.00039E+00  1.01487E+00 -1.44825E-02
    9018.200     19.718   2.800  9.89621E-01  1.01482E+00 -2.51962E-02
    9019.059     20.578   2.840  9.82761E-01  1.01461E+00 -3.18520E-02
    9019.931     21.450   2.880  9.76112E-01  1.01423E+00 -3.81132E-02
    9020.815     22.334   2.920  9.66928E-01  1.01368E+00 -4.67526E-02
    9021.711     23.230   2.960  9.54161E-01  1.01303E+00 -5.88680E-02
    9022.619     24.138   3.000  9.37783E-01  1.01224E+00 -7.44560E-02
    9023.540     25.058   3.040  9.18963E-01  1.01138E+00 -9.24143E-02
    9024.473     25.991   3.080  9.00110E-01  1.01041E+00 -1.10297E-01
    9025.417     26.936   3.120  8.84010E-01  1.00936E+00 -1.25348E-01
    9026.375     27.893   3.160  8.72117E-01  1.00823E+00 -1.36118E-01
    9027.344     28.862   3.200  8.64812E-01  1.00709E+00 -1.42275E-01
    9028.325     29.844   3.240  8.61697E-01  1.00588E+00 -1.44180E-01
    9029.319     30.837   3.280  8.61780E-01  1.00465E+00 -1.42874E-01
    9030.325     31.843   3.320  8.64179E-01  1.00342E+00 -1.39240E-01
    9031.343     32.861   3.360  8.68312E-01  1.00216E+00 -1.33845E-01
    9032.373     33.892   3.400  8.73471E-01  1.00089E+00 -1.27423E-01
    9033.415     34.934   3.440  8.78796E-01  9.99652E-01 -1.20856E-01
    9034.470     35.989   3.480  8.83710E-01  9.98394E-01 -1.14684E-01
    9035.537     37.055   3.520  8.88334E-01  9.97164E-01 -1.08830E-01
    9036.616     38.134   3.560  8.93292E-01  9.95968E-01 -1.02676E-01
    9037.707     39.225   3.600  8.99655E-01  9.94807E-01 -9.51524E-02
    9038.810     40.329   3.640  9.08320E-01  9.93682E-01 -8.53625E-02
    9039.926     41.444   3.680  9.19703E-01  9.92576E-01 -7.28725E-02
    9041.054     42.572   3.720  9.33741E-01  9.91531E-01 -5.77895E-02
    9042.194     43.712   3.760  9.49982E-01  9.90530E-01 -4.05478E-02
    9043.346     44.864   3.800  9.67242E-01  9.89573E-01 -2.23310E-02
    9044.510     46.029   3.840  9.83564E-01  9.88682E-01 -5.11824E-03
    9045.687     47.205   3.880  9.96689E-01  9.87837E-01  8.85184E-03
    9046.875     48.394   3.920  1.00485E+00  9.87038E-01  1.78093E-02
    9048.076     49.595   3.960  1.00758E+00  9.86309E-01  2.12703E-02
    9049.289     50.808   4.000  1.00605E+00  9.85628E-01  2.04263E-02
    9050.515     52.033   4.040  1.00287E+00  9.85016E-01  1.78499E-02
    9051.752     53.271   4.080  1.00106E+00  9.84456E-01  1.66071E-02
    9053.002     54.520   4.120  1.00318E+00  9.83965E-01  1.92189E-02
    9054.264     55.782   4.160  1.01040E+00  9.83546E-01  2.68550E-02
    9055.538     57.056   4.200  1.02201E+00  9.83174E-01  3.88369E-02
    9056.824     58.342   4.240  1.03586E+00  9.82850E-01  5.30142E-02
    9058.122     59.641   4.280  1.04949E+00  9.82595E-01  6.69002E-02
    9059.433     60.952   4.320  1.06106E+00  9.82387E-01  7.86750E-02
    9060.756     62.274   4.360  1.06956E+00  9.82248E-01  8.73129E-02
    9062.091     63.609   4.400  1.07422E+00  9.82154E-01  9.20672E-02
    9063.438     64.957   4.440  1.07420E+00  9.82106E-01  9.20974E-02
    9064.797     66.316   4.480  1.06880E+00  9.82122E-01  8.66774E-02
    9066.169     67.688   4.520  1.05857E+00  9.82181E-01  7.63874E-02
    9067.553     69.071   4.560  1.04585E+00  9.82260E-01  6.35946E-02
    9068.949     70.467   4.600  1.03391E+00  9.82400E-01  5.15149E-02
    9070.357     71.876   4.640  1.02539E+00  9.82581E-01  4.28103E-02
    9071.777     73.296   4.680  1.02151E+00  9.82801E-01  3.87069E-02
    9073.210     74.728   4.720  1.02196E+00  9.83058E-01  3.89025E-02
    9074.655     76.173   4.760  1.02551E+00  9.83328E-01  4.21827E-02
    9076.112     77.630   4.800  1.03066E+00  9.83654E-01  4.70076E-02
    9077.581     79.099   4.840  1.03567E+00  9.83969E-01  5.17037E-02
    9079.062     80.581   4.880  1.03884E+00  9.84338E-01  5.45026E-02
    9080.556     82.074   4.920  1.03850E+00  9.84714E-01  5.37830E-02
    9082.061     83.580   4.960  1.03382E+00  9.85097E-01  4.87230E-02
    9083.579     85.098   5.000  1.02527E+00  9.85506E-01  3.97625E-02
    9085.109     86.628   5.040  1.01408E+00  9.85897E-01  2.81878E-02
    9086.652     88.170   5.080  1.00171E+00  9.86313E-01  1.53919E-02
    9088.206     89.725   5.120  9.89051E-01  9.86753E-01  2.29805E-03
    9089.773     91.291   5.160  9.76395E-01  9.87169E-01 -1.07742E-02
    9091.352     92.870   5.200  9.63637E-01  9.87581E-01 -2.39444E-02
    9092.943     94.461   5.240  9.50550E-01  9.87968E-01 -3.74184E-02
    9094.546     96.064   5.280  9.37289E-01  9.88373E-01 -5.10836E-02
    9096.161     97.680   5.320  9.24373E-01  9.88751E-01 -6.43782E-02
    9097.789     99.307   5.360  9.12636E-01  9.89122E-01 -7.64859E-02
    9099.429    100.947   5.400  9.03024E-01  9.89487E-01 -8.64629E-02
    9101.081    102.599   5.440  8.96568E-01  9.89820E-01 -9.32529E-02
    9102.745    104.263   5.480  8.94206E-01  9.90144E-01 -9.59382E-02
    9104.421    105.940   5.520  8.96328E-01  9.90434E-01 -9.41062E-02
    9106.110    107.628   5.560  9.02839E-01  9.90685E-01 -8.78461E-02
    9107.811    109.329   5.600  9.13422E-01  9.90901E-01 -7.74789E-02
    9109.524    111.042   5.640  9.27748E-01  9.91105E-01 -6.33569E-02
    9111.249    112.767   5.680  9.45388E-01  9.91275E-01 -4.58869E-02
    9112.986    114.505   5.720  9.65552E-01  9.91433E-01 -2.58801E-02
    9114.736    116.254   5.760  9.86737E-01  9.91529E-01 -4.79186E-03
    9116.497    118.016   5.800  1.00708E+00  9.91608E-01  1.54687E-02
    9118.271    119.790   5.840  1.02469E+00  9.91626E-01  3.30624E-02
    9120.057    121.576   5.880  1.03808E+00  9.91630E-01  4.64459E-02
    9121.856    123.374   5.920  1.04588E+00  9.91596E-01  5.42872E-02
    9123.666    125.185   5.960  1.04706E+00  9.91520E-01  5.55450E-02
    9125.489    127.008   6.000  1.04100E+00  9.91352E-01  4.96497E-02
