# # comment:                                                     FEFF 9.9.1  
# # Source:
# # Structure
# # Reduced
# # space
# # abc:
# # angles:
# # sites:
# # POT  SCF 100  7.0000   0, screened core-hole, AFOLP (folp(0)= 1.150)
# # Abs   Z=29 Rmt= 1.220 Rnm= 1.329 K  shell
# # Pot 1 Z=29 Rmt= 1.178 Rnm= 1.314
# # Pot 2 Z= 8 Rmt= 1.002 Rnm= 1.124
# # Pot 3 Z= 9 Rmt= 1.041 Rnm= 1.132
# # Gam_ch=1.729E+00 H-L exch Vi= 0.000E+00 Vr= 0.000E+00
# # Mu=-6.678E+00eV kf=2.015E+00 Vint=-1.281E+01eV Rs_int= 1.800
# FMS rfms= 9.0000
# # PATH  Rmax=-1.000,  Keep_limit= 0.00, Heap_limit 0.00  Pwcrit= 2.50%
#  S02=0.950  Temp=   0.00  Debye_temp=   0.00  Global_sig2= 0.00000
#  Energy zero shift, vr, vi    0.00000E+00   0.00000E+00
#  Curved wave amplitude ratio filter   4.000%
#     file         sig2 tot  cw amp ratio   deg  nlegs   reff  inp sig2
#     0/   0 paths used
#  xsedge+ 50, used to normalize mu           2.4101E-04
#  -----------------------------------------------------------------------
#  omega    e    k    mu    mu0     chi     @#
    8983.317    -10.488  -1.000  3.25039E-02  5.62338E-02 -2.37299E-02
    8983.616    -10.189  -0.960  3.38147E-02  6.02566E-02 -2.64419E-02
    8983.902     -9.903  -0.920  3.51899E-02  6.47137E-02 -2.95238E-02
    8984.176     -9.628  -0.880  3.66345E-02  6.96673E-02 -3.30327E-02
    8984.438     -9.366  -0.840  3.81545E-02  7.51892E-02 -3.70347E-02
    8984.688     -9.116  -0.800  3.97567E-02  8.13627E-02 -4.16060E-02
    8984.926     -8.879  -0.760  4.14492E-02  8.82828E-02 -4.68336E-02
    8985.152     -8.653  -0.720  4.32411E-02  9.60564E-02 -5.28154E-02
    8985.365     -8.440  -0.680  4.51424E-02  1.04801E-01 -5.96586E-02
    8985.566     -8.238  -0.640  4.71638E-02  1.14640E-01 -6.74761E-02
    8985.755     -8.049  -0.600  4.93149E-02  1.25694E-01 -7.63787E-02
    8985.932     -7.873  -0.560  5.16027E-02  1.38064E-01 -8.64615E-02
    8986.097     -7.708  -0.520  5.40279E-02  1.51811E-01 -9.77831E-02
    8986.249     -7.556  -0.480  5.65801E-02  1.66917E-01 -1.10337E-01
    8986.389     -7.415  -0.440  5.92329E-02  1.83251E-01 -1.24018E-01
    8986.517     -7.287  -0.400  6.19395E-02  2.00534E-01 -1.38594E-01
    8986.633     -7.172  -0.360  6.46333E-02  2.18330E-01 -1.53697E-01
    8986.737     -7.068  -0.320  6.72333E-02  2.36074E-01 -1.68840E-01
    8986.828     -6.977  -0.280  6.96570E-02  2.53133E-01 -1.83476E-01
    8986.907     -6.897  -0.240  7.18328E-02  2.68897E-01 -1.97064E-01
    8986.974     -6.830  -0.200  7.37097E-02  2.82851E-01 -2.09141E-01
    8987.029     -6.775  -0.160  7.52579E-02  2.94609E-01 -2.19352E-01
    8987.072     -6.733  -0.120  7.64633E-02  3.03921E-01 -2.27458E-01
    8987.102     -6.702  -0.080  7.73211E-02  3.10641E-01 -2.33320E-01
    8987.127     -6.678   0.000  7.80030E-02  3.16047E-01 -2.38044E-01
    8987.182     -6.623   0.120  7.97430E-02  3.28257E-01 -2.48514E-01
    8987.224     -6.580   0.160  8.09971E-02  3.37768E-01 -2.56771E-01
    8987.279     -6.525   0.200  8.25726E-02  3.49972E-01 -2.67400E-01
    8987.346     -6.458   0.240  8.44128E-02  3.64701E-01 -2.80289E-01
    8987.426     -6.379   0.280  8.64828E-02  3.81731E-01 -2.95248E-01
    8987.517     -6.288   0.320  8.87085E-02  4.00678E-01 -3.11969E-01
    8987.621     -6.184   0.360  9.11157E-02  4.21079E-01 -3.29964E-01
    8987.736     -6.068   0.400  9.36913E-02  4.42437E-01 -3.48746E-01
    8987.864     -5.940   0.440  9.65124E-02  4.64276E-01 -3.67764E-01
    8988.005     -5.800   0.480  9.96121E-02  4.86197E-01 -3.86585E-01
    8988.157     -5.648   0.520  1.03182E-01  5.08010E-01 -4.04828E-01
    8988.322     -5.483   0.560  1.07279E-01  5.29545E-01 -4.22266E-01
    8988.498     -5.306   0.600  1.11995E-01  5.50762E-01 -4.38767E-01
    8988.687     -5.117   0.640  1.17452E-01  5.71680E-01 -4.54227E-01
    8988.889     -4.916   0.680  1.23780E-01  5.92369E-01 -4.68589E-01
    8989.102     -4.703   0.720  1.31055E-01  6.12825E-01 -4.81769E-01
    8989.327     -4.477   0.760  1.39473E-01  6.33143E-01 -4.93670E-01
    8989.565     -4.239   0.800  1.49210E-01  6.53327E-01 -5.04116E-01
    8989.815     -3.990   0.840  1.60571E-01  6.73386E-01 -5.12814E-01
    8990.077     -3.727   0.880  1.74033E-01  6.93337E-01 -5.19304E-01
    8990.352     -3.453   0.920  1.90341E-01  7.13142E-01 -5.22801E-01
    8990.638     -3.167   0.960  2.10342E-01  7.32772E-01 -5.22430E-01
    8990.937     -2.868   1.000  2.34863E-01  7.52211E-01 -5.17348E-01
    8991.248     -2.557   1.040  2.64364E-01  7.71369E-01 -5.07005E-01
    8991.571     -2.234   1.080  2.98742E-01  7.90215E-01 -4.91473E-01
    8991.906     -1.899   1.120  3.37802E-01  8.08713E-01 -4.70911E-01
    8992.254     -1.551   1.160  3.82579E-01  8.26760E-01 -4.44181E-01
    8992.613     -1.191   1.200  4.34867E-01  8.44296E-01 -4.09428E-01
    8992.985     -0.820   1.240  4.92647E-01  8.61297E-01 -3.68651E-01
    8993.369     -0.436   1.280  5.47737E-01  8.77682E-01 -3.29945E-01
    8993.765     -0.039   1.320  5.91147E-01  8.93408E-01 -3.02261E-01
    8994.174      0.369   1.360  6.19235E-01  9.08439E-01 -2.89205E-01
    8994.594      0.790   1.400  6.37728E-01  9.22716E-01 -2.84988E-01
    8995.027      1.223   1.440  6.62034E-01  9.36203E-01 -2.74169E-01
    8995.472      1.668   1.480  7.07155E-01  9.48893E-01 -2.41737E-01
    8995.929      2.125   1.520  7.72987E-01  9.60734E-01 -1.87747E-01
    8996.399      2.594   1.560  8.43293E-01  9.71767E-01 -1.28474E-01
    8996.880      3.076   1.600  9.09797E-01  9.81928E-01 -7.21304E-02
    8997.374      3.569   1.640  9.91992E-01  9.91260E-01  7.31674E-04
    8997.880      4.075   1.680  1.11432E+00  9.99771E-01  1.14547E-01
    8998.398      4.594   1.720  1.27666E+00  1.00745E+00  2.69217E-01
    8998.929      5.124   1.760  1.44330E+00  1.01432E+00  4.28983E-01
    8999.471      5.666   1.800  1.55714E+00  1.02042E+00  5.36725E-01
    9000.026      6.221   1.840  1.58940E+00  1.02576E+00  5.63633E-01
    9000.593      6.788   1.880  1.56440E+00  1.03041E+00  5.33989E-01
    9001.172      7.367   1.920  1.53377E+00  1.03436E+00  4.99415E-01
    9001.763      7.959   1.960  1.52500E+00  1.03764E+00  4.87354E-01
    9002.367      8.562   2.000  1.52848E+00  1.04035E+00  4.88127E-01
    9002.982      9.178   2.040  1.51268E+00  1.04245E+00  4.70227E-01
    9003.610      9.806   2.080  1.45761E+00  1.04406E+00  4.13549E-01
    9004.250     10.446   2.120  1.38062E+00  1.04515E+00  3.35476E-01
    9004.903     11.098   2.160  1.32171E+00  1.04580E+00  2.75911E-01
    9005.567     11.762   2.200  1.29263E+00  1.04603E+00  2.46603E-01
    9006.244     12.439   2.240  1.26617E+00  1.04589E+00  2.20281E-01
    9006.933     13.128   2.280  1.21571E+00  1.04540E+00  1.70302E-01
    9007.634     13.829   2.320  1.15205E+00  1.04462E+00  1.07432E-01
    9008.347     14.542   2.360  1.10636E+00  1.04356E+00  6.27978E-02
    9009.072     15.268   2.400  1.08291E+00  1.04227E+00  4.06405E-02
    9009.810     16.005   2.440  1.06820E+00  1.04080E+00  2.73974E-02
    9010.560     16.755   2.480  1.05996E+00  1.03914E+00  2.08258E-02
    9011.322     17.517   2.520  1.05622E+00  1.03733E+00  1.88904E-02
    9012.096     18.291   2.560  1.05196E+00  1.03538E+00  1.65761E-02
    9012.882     19.078   2.600  1.04447E+00  1.03337E+00  1.11015E-02
    9013.681     19.876   2.640  1.03290E+00  1.03127E+00  1.63145E-03
    9014.492     20.687   2.680  1.01756E+00  1.02912E+00 -1.15630E-02
    9015.315     21.510   2.720  9.99990E-01  1.02694E+00 -2.69519E-02
    9016.150     22.345   2.760  9.81998E-01  1.02475E+00 -4.27550E-02
    9016.997     23.192   2.800  9.64768E-01  1.02256E+00 -5.77953E-02
    9017.857     24.052   2.840  9.49197E-01  1.02040E+00 -7.12063E-02
    9018.728     24.924   2.880  9.35540E-01  1.01826E+00 -8.27174E-02
    9019.612     25.808   2.920  9.23759E-01  1.01618E+00 -9.24162E-02
    9020.508     26.704   2.960  9.13477E-01  1.01414E+00 -1.00666E-01
    9021.417     27.612   3.000  9.03880E-01  1.01218E+00 -1.08303E-01
    9022.337     28.532   3.040  8.94015E-01  1.01028E+00 -1.16266E-01
    9023.270     29.465   3.080  8.83682E-01  1.00848E+00 -1.24801E-01
    9024.215     30.410   3.120  8.73518E-01  1.00677E+00 -1.33253E-01
    9025.172     31.367   3.160  8.64695E-01  1.00515E+00 -1.40455E-01
    9026.141     32.336   3.200  8.58483E-01  1.00364E+00 -1.45160E-01
    9027.122     33.318   3.240  8.55989E-01  1.00225E+00 -1.46262E-01
    9028.116     34.311   3.280  8.57665E-01  1.00096E+00 -1.43293E-01
    9029.122     35.317   3.320  8.63622E-01  9.99803E-01 -1.36182E-01
    9030.140     36.335   3.360  8.73052E-01  9.98748E-01 -1.25696E-01
    9031.170     37.366   3.400  8.84809E-01  9.97813E-01 -1.13004E-01
    9032.213     38.408   3.440  8.97369E-01  9.96978E-01 -9.96087E-02
    9033.267     39.463   3.480  9.09390E-01  9.96287E-01 -8.68965E-02
    9034.334     40.529   3.520  9.19985E-01  9.95718E-01 -7.57326E-02
    9035.413     41.608   3.560  9.29086E-01  9.95273E-01 -6.61866E-02
    9036.504     42.700   3.600  9.37374E-01  9.94947E-01 -5.75737E-02
    9037.608     43.803   3.640  9.45823E-01  9.94720E-01 -4.88977E-02
    9038.723     44.918   3.680  9.55256E-01  9.94614E-01 -3.93577E-02
    9039.851     46.046   3.720  9.66054E-01  9.94647E-01 -2.85930E-02
    9040.991     47.186   3.760  9.78122E-01  9.94755E-01 -1.66338E-02
    9042.143     48.338   3.800  9.91197E-01  9.95000E-01 -3.80347E-03
    9043.307     49.503   3.840  1.00471E+00  9.95338E-01  9.36887E-03
    9044.484     50.679   3.880  1.01809E+00  9.95767E-01  2.23194E-02
    9045.673     51.868   3.920  1.03079E+00  9.96304E-01  3.44896E-02
    9046.873     53.069   3.960  1.04224E+00  9.96928E-01  4.53101E-02
    9048.087     54.282   4.000  1.05198E+00  9.97638E-01  5.43449E-02
    9049.312     55.507   4.040  1.05988E+00  9.98428E-01  6.14475E-02
    9050.549     56.745   4.080  1.06610E+00  9.99299E-01  6.67971E-02
    9051.799     57.994   4.120  1.07097E+00  1.00025E+00  7.07277E-02
    9053.061     59.256   4.160  1.07475E+00  1.00124E+00  7.35011E-02
    9054.335     60.530   4.200  1.07751E+00  1.00231E+00  7.51974E-02
    9055.621     61.817   4.240  1.07927E+00  1.00343E+00  7.58448E-02
    9056.920     63.115   4.280  1.08007E+00  1.00459E+00  7.54856E-02
    9058.230     64.426   4.320  1.08004E+00  1.00579E+00  7.42594E-02
    9059.553     65.748   4.360  1.07941E+00  1.00702E+00  7.23941E-02
    9060.888     67.083   4.400  1.07852E+00  1.00826E+00  7.02568E-02
    9062.235     68.431   4.440  1.07787E+00  1.00954E+00  6.83329E-02
    9063.595     69.790   4.480  1.07802E+00  1.01085E+00  6.71724E-02
    9064.966     71.162   4.520  1.07924E+00  1.01213E+00  6.71102E-02
    9066.350     72.545   4.560  1.08143E+00  1.01344E+00  6.79889E-02
    9067.746     73.941   4.600  1.08372E+00  1.01472E+00  6.90022E-02
    9069.154     75.350   4.640  1.08506E+00  1.01600E+00  6.90598E-02
    9070.575     76.770   4.680  1.08450E+00  1.01726E+00  6.72413E-02
    9072.007     78.202   4.720  1.08143E+00  1.01850E+00  6.29284E-02
    9073.452     79.647   4.760  1.07555E+00  1.01972E+00  5.58300E-02
    9074.909     81.104   4.800  1.06698E+00  1.02087E+00  4.61113E-02
    9076.378     82.573   4.840  1.05649E+00  1.02201E+00  3.44807E-02
    9077.859     84.055   4.880  1.04509E+00  1.02307E+00  2.20149E-02
    9079.353     85.548   4.920  1.03372E+00  1.02409E+00  9.62891E-03
    9080.859     87.054   4.960  1.02271E+00  1.02506E+00 -2.35375E-03
    9082.376     88.572   5.000  1.01180E+00  1.02596E+00 -1.41625E-02
    9083.906     90.102   5.040  1.00058E+00  1.02681E+00 -2.62251E-02
    9085.449     91.644   5.080  9.88894E-01  1.02758E+00 -3.86839E-02
    9087.003     93.199   5.120  9.77189E-01  1.02829E+00 -5.11023E-02
    9088.570     94.765   5.160  9.66326E-01  1.02890E+00 -6.25767E-02
    9090.149     96.344   5.200  9.57371E-01  1.02946E+00 -7.20846E-02
    9091.740     97.935   5.240  9.51058E-01  1.02993E+00 -7.88689E-02
    9093.343     99.538   5.280  9.47809E-01  1.03032E+00 -8.25075E-02
    9094.958    101.154   5.320  9.47629E-01  1.03062E+00 -8.29951E-02
    9096.586    102.781   5.360  9.50105E-01  1.03085E+00 -8.07432E-02
    9098.226    104.421   5.400  9.54604E-01  1.03099E+00 -7.63859E-02
    9099.878    106.073   5.440  9.60573E-01  1.03105E+00 -7.04761E-02
    9101.542    107.737   5.480  9.67649E-01  1.03105E+00 -6.34008E-02
    9103.219    109.414   5.520  9.75472E-01  1.03094E+00 -5.54728E-02
    9104.907    111.102   5.560  9.83719E-01  1.03076E+00 -4.70387E-02
    9106.608    112.803   5.600  9.91970E-01  1.03051E+00 -3.85431E-02
    9108.321    114.516   5.640  9.99773E-01  1.03017E+00 -3.03938E-02
    9110.046    116.241   5.680  1.00709E+00  1.02977E+00 -2.26790E-02
    9111.783    117.979   5.720  1.01419E+00  1.02932E+00 -1.51228E-02
    9113.533    119.728   5.760  1.02129E+00  1.02877E+00 -7.48173E-03
    9115.295    121.490   5.800  1.02821E+00  1.02819E+00  1.35609E-05
    9117.069    123.264   5.840  1.03427E+00  1.02753E+00  6.74758E-03
    9118.855    125.050   5.880  1.03903E+00  1.02684E+00  1.21919E-02
    9120.653    126.848   5.920  1.04220E+00  1.02609E+00  1.61056E-02
    9122.464    128.659   5.960  1.04362E+00  1.02531E+00  1.83118E-02
    9124.286    130.482   6.000  1.04297E+00  1.02445E+00  1.85212E-02
