# # comment:                                                     FEFF 9.9.1  
# # Source:
# # Structure
# # Reduced
# # space
# # abc:
# # angles:
# # sites:
# # POT  SCF 100  7.0000   0, screened core-hole, AFOLP (folp(0)= 1.150)
# # Abs   Z=29 Rmt= 1.218 Rnm= 1.316 K  shell
# # Pot 1 Z=19 Rmt= 1.795 Rnm= 1.830
# # Pot 2 Z=29 Rmt= 1.281 Rnm= 1.359
# # Pot 3 Z=33 Rmt= 1.098 Rnm= 1.298
# # Pot 4 Z= 8 Rmt= 0.968 Rnm= 1.076
# # Gam_ch=1.729E+00 H-L exch Vi= 0.000E+00 Vr= 0.000E+00
# # Mu=-6.010E+00eV kf=2.270E+00 Vint=-1.555E+01eV Rs_int= 1.597
# FMS rfms= 9.0000
# # PATH  Rmax=-1.000,  Keep_limit= 0.00, Heap_limit 0.00  Pwcrit= 2.50%
#  S02=0.950  Temp=   0.00  Debye_temp=   0.00  Global_sig2= 0.00000
#  Energy zero shift, vr, vi    0.00000E+00   0.00000E+00
#  Curved wave amplitude ratio filter   4.000%
#     file         sig2 tot  cw amp ratio   deg  nlegs   reff  inp sig2
#     0/   0 paths used
#  xsedge+ 50, used to normalize mu           2.4568E-04
#  -----------------------------------------------------------------------
#  omega    e    k    mu    mu0     chi     @#
    8983.360     -9.820  -1.000  3.76147E-02  5.47668E-02 -1.71522E-02
    8983.659     -9.521  -0.960  3.96011E-02  5.87886E-02 -1.91875E-02
    8983.946     -9.234  -0.920  4.17459E-02  6.32621E-02 -2.15162E-02
    8984.220     -8.960  -0.880  4.40673E-02  6.82542E-02 -2.41869E-02
    8984.482     -8.698  -0.840  4.65863E-02  7.38428E-02 -2.72566E-02
    8984.732     -8.448  -0.800  4.93265E-02  8.01184E-02 -3.07919E-02
    8984.970     -8.210  -0.760  5.23146E-02  8.71848E-02 -3.48702E-02
    8985.195     -7.985  -0.720  5.55796E-02  9.51592E-02 -3.95796E-02
    8985.409     -7.771  -0.680  5.91529E-02  1.04171E-01 -4.50181E-02
    8985.610     -7.570  -0.640  6.30664E-02  1.14357E-01 -5.12904E-02
    8985.799     -7.381  -0.600  6.73500E-02  1.25851E-01 -5.85009E-02
    8985.976     -7.205  -0.560  7.20270E-02  1.38768E-01 -6.67409E-02
    8986.140     -7.040  -0.520  7.71077E-02  1.53176E-01 -7.60688E-02
    8986.293     -6.888  -0.480  8.25803E-02  1.69062E-01 -8.64819E-02
    8986.433     -6.747  -0.440  8.84005E-02  1.86285E-01 -9.78849E-02
    8986.561     -6.619  -0.400  9.44827E-02  2.04545E-01 -1.10062E-01
    8986.677     -6.503  -0.360  1.00697E-01  2.23367E-01 -1.22670E-01
    8986.780     -6.400  -0.320  1.06874E-01  2.42137E-01 -1.35263E-01
    8986.872     -6.308  -0.280  1.12825E-01  2.60172E-01 -1.47347E-01
    8986.951     -6.229  -0.240  1.18359E-01  2.76816E-01 -1.58457E-01
    8987.018     -6.162  -0.200  1.23306E-01  2.91521E-01 -1.68216E-01
    8987.073     -6.107  -0.160  1.27523E-01  3.03887E-01 -1.76364E-01
    8987.115     -6.065  -0.120  1.30901E-01  3.13659E-01 -1.82758E-01
    8987.146     -6.034  -0.080  1.33364E-01  3.20697E-01 -1.87332E-01
    8987.170     -6.010   0.000  1.35381E-01  3.26350E-01 -1.90969E-01
    8987.225     -5.955   0.120  1.40260E-01  3.39082E-01 -1.98822E-01
    8987.268     -5.912   0.160  1.44014E-01  3.48989E-01 -2.04975E-01
    8987.323     -5.857   0.200  1.48868E-01  3.61615E-01 -2.12747E-01
    8987.390     -5.790   0.240  1.54839E-01  3.76802E-01 -2.21963E-01
    8987.469     -5.711   0.280  1.61931E-01  3.94195E-01 -2.32264E-01
    8987.560     -5.620   0.320  1.70175E-01  4.13382E-01 -2.43207E-01
    8987.664     -5.516   0.360  1.79574E-01  4.33777E-01 -2.54204E-01
    8987.780     -5.400   0.400  1.90079E-01  4.54741E-01 -2.64662E-01
    8987.908     -5.272   0.440  2.01669E-01  4.75765E-01 -2.74097E-01
    8988.048     -5.132   0.480  2.14113E-01  4.96388E-01 -2.82275E-01
    8988.201     -4.979   0.520  2.26966E-01  5.16339E-01 -2.89374E-01
    8988.365     -4.815   0.560  2.39481E-01  5.35476E-01 -2.95995E-01
    8988.542     -4.638   0.600  2.50820E-01  5.53785E-01 -3.02965E-01
    8988.731     -4.449   0.640  2.60406E-01  5.71327E-01 -3.10921E-01
    8988.932     -4.248   0.680  2.68454E-01  5.88160E-01 -3.19705E-01
    8989.145     -4.035   0.720  2.76114E-01  6.04378E-01 -3.28264E-01
    8989.371     -3.809   0.760  2.84794E-01  6.20094E-01 -3.35301E-01
    8989.609     -3.571   0.800  2.95184E-01  6.35413E-01 -3.40229E-01
    8989.859     -3.321   0.840  3.07282E-01  6.50381E-01 -3.43099E-01
    8990.121     -3.059   0.880  3.21192E-01  6.65054E-01 -3.43862E-01
    8990.395     -2.785   0.920  3.37506E-01  6.79475E-01 -3.41969E-01
    8990.682     -2.498   0.960  3.56664E-01  6.93693E-01 -3.37029E-01
    8990.980     -2.200   1.000  3.78204E-01  7.07705E-01 -3.29501E-01
    8991.291     -1.889   1.040  4.01597E-01  7.21541E-01 -3.19944E-01
    8991.614     -1.566   1.080  4.27608E-01  7.35202E-01 -3.07593E-01
    8991.950     -1.230   1.120  4.57358E-01  7.48640E-01 -2.91282E-01
    8992.297     -0.883   1.160  4.90586E-01  7.61907E-01 -2.71321E-01
    8992.657     -0.523   1.200  5.28831E-01  7.74927E-01 -2.46096E-01
    8993.029     -0.151   1.240  5.75723E-01  7.87742E-01 -2.12018E-01
    8993.413      0.233   1.280  6.27478E-01  8.00289E-01 -1.72811E-01
    8993.809      0.629   1.320  6.73500E-01  8.12568E-01 -1.39068E-01
    8994.217      1.037   1.360  7.01715E-01  8.24554E-01 -1.22839E-01
    8994.638      1.458   1.400  7.04923E-01  8.36221E-01 -1.31298E-01
    8995.071      1.891   1.440  6.95768E-01  8.47545E-01 -1.51777E-01
    8995.516      2.336   1.480  6.93869E-01  8.58518E-01 -1.64649E-01
    8995.973      2.793   1.520  7.08228E-01  8.69137E-01 -1.60908E-01
    8996.442      3.262   1.560  7.36575E-01  8.79355E-01 -1.42781E-01
    8996.924      3.744   1.600  7.69142E-01  8.89171E-01 -1.20029E-01
    8997.418      4.238   1.640  8.02543E-01  8.98577E-01 -9.60340E-02
    8997.924      4.744   1.680  8.48092E-01  9.07573E-01 -5.94811E-02
    8998.442      5.262   1.720  9.15456E-01  9.16114E-01 -6.57479E-04
    8998.972      5.792   1.760  1.00202E+00  9.24240E-01  7.77790E-02
    8999.515      6.335   1.800  1.09885E+00  9.31912E-01  1.66934E-01
    9000.069      6.889   1.840  1.19840E+00  9.39149E-01  2.59255E-01
    9000.636      7.456   1.880  1.28533E+00  9.45954E-01  3.39378E-01
    9001.215      8.035   1.920  1.33168E+00  9.52329E-01  3.79349E-01
    9001.807      8.627   1.960  1.32963E+00  9.58257E-01  3.71376E-01
    9002.410      9.230   2.000  1.30869E+00  9.63762E-01  3.44931E-01
    9003.026      9.846   2.040  1.29428E+00  9.68870E-01  3.25408E-01
    9003.654     10.474   2.080  1.29058E+00  9.73546E-01  3.17037E-01
    9004.294     11.114   2.120  1.29860E+00  9.77857E-01  3.20744E-01
    9004.946     11.766   2.160  1.32236E+00  9.81769E-01  3.40586E-01
    9005.611     12.431   2.200  1.35339E+00  9.85309E-01  3.68085E-01
    9006.287     13.107   2.240  1.36565E+00  9.88528E-01  3.77119E-01
    9006.976     13.796   2.280  1.33995E+00  9.91390E-01  3.48559E-01
    9007.677     14.497   2.320  1.27867E+00  9.93925E-01  2.84742E-01
    9008.390     15.210   2.360  1.20055E+00  9.96161E-01  2.04388E-01
    9009.116     15.936   2.400  1.12859E+00  9.98107E-01  1.30487E-01
    9009.853     16.673   2.440  1.07640E+00  9.99771E-01  7.66284E-02
    9010.603     17.423   2.480  1.04376E+00  1.00120E+00  4.25541E-02
    9011.365     18.185   2.520  1.02678E+00  1.00237E+00  2.44103E-02
    9012.139     18.959   2.560  1.02709E+00  1.00335E+00  2.37417E-02
    9012.926     19.746   2.600  1.04319E+00  1.00409E+00  3.90909E-02
    9013.724     20.544   2.640  1.05861E+00  1.00466E+00  5.39461E-02
    9014.535     21.355   2.680  1.05132E+00  1.00506E+00  4.62540E-02
    9015.358     22.178   2.720  1.02793E+00  1.00530E+00  2.26345E-02
    9016.193     23.013   2.760  1.00419E+00  1.00538E+00 -1.19112E-03
    9017.041     23.861   2.800  9.83684E-01  1.00535E+00 -2.16674E-02
    9017.900     24.720   2.840  9.65195E-01  1.00518E+00 -3.99893E-02
    9018.772     25.592   2.880  9.47645E-01  1.00494E+00 -5.72985E-02
    9019.656     26.476   2.920  9.30751E-01  1.00460E+00 -7.38452E-02
    9020.552     27.372   2.960  9.15437E-01  1.00417E+00 -8.87319E-02
    9021.460     28.280   3.000  9.02893E-01  1.00369E+00 -1.00793E-01
    9022.381     29.201   3.040  8.93410E-01  1.00316E+00 -1.09745E-01
    9023.313     30.133   3.080  8.86718E-01  1.00256E+00 -1.15841E-01
    9024.258     31.078   3.120  8.82287E-01  1.00194E+00 -1.19656E-01
    9025.215     32.035   3.160  8.79292E-01  1.00129E+00 -1.22001E-01
    9026.185     33.005   3.200  8.77226E-01  1.00063E+00 -1.23406E-01
    9027.166     33.986   3.240  8.75890E-01  9.99946E-01 -1.24056E-01
    9028.160     34.980   3.280  8.75027E-01  9.99276E-01 -1.24249E-01
    9029.166     35.985   3.320  8.74539E-01  9.98587E-01 -1.24048E-01
    9030.184     37.003   3.360  8.74717E-01  9.97923E-01 -1.23206E-01
    9031.214     38.034   3.400  8.75968E-01  9.97288E-01 -1.21321E-01
    9032.256     39.076   3.440  8.78545E-01  9.96663E-01 -1.18118E-01
    9033.311     40.131   3.480  8.82704E-01  9.96070E-01 -1.13366E-01
    9034.378     41.198   3.520  8.88549E-01  9.95491E-01 -1.06942E-01
    9035.457     42.277   3.560  8.95981E-01  9.94968E-01 -9.89868E-02
    9036.548     43.368   3.600  9.04669E-01  9.94462E-01 -8.97923E-02
    9037.651     44.471   3.640  9.14269E-01  9.93995E-01 -7.97255E-02
    9038.767     45.587   3.680  9.24373E-01  9.93590E-01 -6.92170E-02
    9039.894     46.714   3.720  9.34688E-01  9.93206E-01 -5.85186E-02
    9041.034     47.854   3.760  9.45455E-01  9.92885E-01 -4.74300E-02
    9042.187     49.006   3.800  9.57100E-01  9.92607E-01 -3.55074E-02
    9043.351     50.171   3.840  9.69943E-01  9.92373E-01 -2.24301E-02
    9044.527     51.347   3.880  9.84020E-01  9.92182E-01 -8.16163E-03
    9045.716     52.536   3.920  9.99233E-01  9.92056E-01  7.17660E-03
    9046.917     53.737   3.960  1.01524E+00  9.91975E-01  2.32633E-02
    9048.130     54.950   4.000  1.03141E+00  9.91936E-01  3.94721E-02
    9049.355     56.175   4.040  1.04670E+00  9.91940E-01  5.47618E-02
    9050.593     57.413   4.080  1.05967E+00  9.91987E-01  6.76826E-02
    9051.843     58.662   4.120  1.06891E+00  9.92098E-01  7.68080E-02
    9053.104     59.924   4.160  1.07375E+00  9.92250E-01  8.15035E-02
    9054.378     61.198   4.200  1.07461E+00  9.92422E-01  8.21903E-02
    9055.665     62.485   4.240  1.07278E+00  9.92655E-01  8.01209E-02
    9056.963     63.783   4.280  1.06984E+00  9.92926E-01  7.69151E-02
    9058.274     65.094   4.320  1.06719E+00  9.93214E-01  7.39805E-02
    9059.597     66.417   4.360  1.06563E+00  9.93560E-01  7.20733E-02
    9060.932     67.752   4.400  1.06507E+00  9.93919E-01  7.11558E-02
    9062.279     69.099   4.440  1.06485E+00  9.94312E-01  7.05381E-02
    9063.638     70.458   4.480  1.06394E+00  9.94715E-01  6.92260E-02
    9065.010     71.830   4.520  1.06157E+00  9.95151E-01  6.64225E-02
    9066.394     73.214   4.560  1.05744E+00  9.95617E-01  6.18271E-02
    9067.790     74.610   4.600  1.05164E+00  9.96091E-01  5.55464E-02
    9069.198     76.018   4.640  1.04455E+00  9.96571E-01  4.79837E-02
    9070.618     77.438   4.680  1.03685E+00  9.97077E-01  3.97724E-02
    9072.051     78.871   4.720  1.02923E+00  9.97586E-01  3.16460E-02
    9073.495     80.315   4.760  1.02241E+00  9.98096E-01  2.43146E-02
    9074.952     81.772   4.800  1.01698E+00  9.98606E-01  1.83736E-02
    9076.422     83.241   4.840  1.01337E+00  9.99114E-01  1.42527E-02
    9077.903     84.723   4.880  1.01180E+00  9.99618E-01  1.21805E-02
    9079.396     86.216   4.920  1.01216E+00  1.00010E+00  1.20656E-02
    9080.902     87.722   4.960  1.01393E+00  1.00059E+00  1.33415E-02
    9082.420     89.240   5.000  1.01604E+00  1.00106E+00  1.49833E-02
    9083.950     90.770   5.040  1.01717E+00  1.00149E+00  1.56743E-02
    9085.492     92.312   5.080  1.01611E+00  1.00194E+00  1.41671E-02
    9087.047     93.867   5.120  1.01201E+00  1.00233E+00  9.67939E-03
    9088.613     95.433   5.160  1.00482E+00  1.00271E+00  2.10322E-03
    9090.192     97.012   5.200  9.95133E-01  1.00309E+00 -7.95305E-03
    9091.783     98.603   5.240  9.84014E-01  1.00342E+00 -1.94071E-02
    9093.387    100.207   5.280  9.72690E-01  1.00372E+00 -3.10293E-02
    9095.002    101.822   5.320  9.62216E-01  1.00398E+00 -4.17633E-02
    9096.630    103.450   5.360  9.53348E-01  1.00420E+00 -5.08514E-02
    9098.269    105.089   5.400  9.46573E-01  1.00441E+00 -5.78327E-02
    9099.921    106.741   5.440  9.42178E-01  1.00457E+00 -6.23954E-02
    9101.586    108.406   5.480  9.40424E-01  1.00468E+00 -6.42542E-02
    9103.262    110.082   5.520  9.41610E-01  1.00476E+00 -6.31542E-02
    9104.951    111.771   5.560  9.45660E-01  1.00481E+00 -5.91522E-02
    9106.651    113.471   5.600  9.51997E-01  1.00482E+00 -5.28228E-02
    9108.364    115.184   5.640  9.59519E-01  1.00478E+00 -4.52649E-02
    9110.090    116.910   5.680  9.66959E-01  1.00469E+00 -3.77257E-02
    9111.827    118.647   5.720  9.73321E-01  1.00457E+00 -3.12480E-02
    9113.576    120.396   5.760  9.77971E-01  1.00441E+00 -2.64442E-02
    9115.338    122.158   5.800  9.80821E-01  1.00422E+00 -2.34005E-02
    9117.112    123.932   5.840  9.82366E-01  1.00399E+00 -2.16245E-02
    9118.898    125.718   5.880  9.83506E-01  1.00372E+00 -2.02167E-02
    9120.697    127.517   5.920  9.85155E-01  1.00342E+00 -1.82632E-02
    9122.507    129.327   5.960  9.87716E-01  1.00308E+00 -1.53608E-02
    9124.330    131.150   6.000  9.90977E-01  1.00270E+00 -1.17250E-02
