# # comment:                                                     FEFF 9.9.1  
# # Source:
# # Structure
# # Reduced
# # space
# # abc:
# # angles:
# # sites:
# # POT  SCF 100  7.0000   0, screened core-hole, AFOLP (folp(0)= 1.150)
# # Abs   Z=29 Rmt= 1.240 Rnm= 1.327 K  shell
# # Pot 1 Z= 3 Rmt= 1.259 Rnm= 1.323
# # Pot 2 Z=29 Rmt= 1.240 Rnm= 1.327
# # Pot 3 Z=14 Rmt= 1.012 Rnm= 1.220
# # Pot 4 Z= 8 Rmt= 0.961 Rnm= 1.071
# # Gam_ch=1.729E+00 H-L exch Vi= 0.000E+00 Vr= 0.000E+00
# # Mu=-8.122E+00eV kf=2.239E+00 Vint=-1.723E+01eV Rs_int= 1.620
# FMS rfms= 9.0000
# # PATH  Rmax=-1.000,  Keep_limit= 0.00, Heap_limit 0.00  Pwcrit= 2.50%
#  S02=0.950  Temp=   0.00  Debye_temp=   0.00  Global_sig2= 0.00000
#  Energy zero shift, vr, vi    0.00000E+00   0.00000E+00
#  Curved wave amplitude ratio filter   4.000%
#     file         sig2 tot  cw amp ratio   deg  nlegs   reff  inp sig2
#     0/   0 paths used
#  xsedge+ 50, used to normalize mu           2.4746E-04
#  -----------------------------------------------------------------------
#  omega    e    k    mu    mu0     chi     @#
    8983.845    -11.932  -1.000  3.73741E-02  5.23092E-02 -1.49352E-02
    8984.143    -11.633  -0.960  3.93098E-02  5.60740E-02 -1.67642E-02
    8984.430    -11.347  -0.920  4.13878E-02  6.02553E-02 -1.88674E-02
    8984.704    -11.072  -0.880  4.36227E-02  6.49142E-02 -2.12915E-02
    8984.966    -10.810  -0.840  4.60305E-02  7.01221E-02 -2.40915E-02
    8985.216    -10.560  -0.800  4.86292E-02  7.59614E-02 -2.73322E-02
    8985.454    -10.323  -0.760  5.14384E-02  8.25270E-02 -3.10885E-02
    8985.680    -10.097  -0.720  5.44795E-02  8.99257E-02 -3.54462E-02
    8985.893     -9.884  -0.680  5.77747E-02  9.82754E-02 -4.05007E-02
    8986.094     -9.682  -0.640  6.13461E-02  1.07700E-01 -4.63543E-02
    8986.283     -9.493  -0.600  6.52136E-02  1.18323E-01 -5.31093E-02
    8986.460     -9.317  -0.560  6.93912E-02  1.30247E-01 -6.08559E-02
    8986.624     -9.152  -0.520  7.38820E-02  1.43535E-01 -6.96528E-02
    8986.777     -9.000  -0.480  7.86712E-02  1.58172E-01 -7.95006E-02
    8986.917     -8.859  -0.440  8.37186E-02  1.74030E-01 -9.03113E-02
    8987.045     -8.731  -0.400  8.89513E-02  1.90833E-01 -1.01882E-01
    8987.161     -8.616  -0.360  9.42620E-02  2.08148E-01 -1.13886E-01
    8987.265     -8.512  -0.320  9.95135E-02  2.25412E-01 -1.25899E-01
    8987.356     -8.421  -0.280  1.04552E-01  2.42001E-01 -1.37449E-01
    8987.435     -8.341  -0.240  1.09224E-01  2.57312E-01 -1.48088E-01
    8987.502     -8.274  -0.200  1.13391E-01  2.70843E-01 -1.57451E-01
    8987.557     -8.219  -0.160  1.16943E-01  2.82225E-01 -1.65282E-01
    8987.600     -8.177  -0.120  1.19793E-01  2.91223E-01 -1.71430E-01
    8987.630     -8.146  -0.080  1.21881E-01  2.97705E-01 -1.75824E-01
    8987.655     -8.122   0.000  1.23605E-01  3.02914E-01 -1.79309E-01
    8987.710     -8.067   0.120  1.27474E-01  3.14645E-01 -1.87171E-01
    8987.752     -8.024   0.160  1.30505E-01  3.23783E-01 -1.93278E-01
    8987.807     -7.969   0.200  1.34402E-01  3.35429E-01 -2.01027E-01
    8987.874     -7.902   0.240  1.39239E-01  3.49445E-01 -2.10207E-01
    8987.953     -7.823   0.280  1.45018E-01  3.65552E-01 -2.20534E-01
    8988.045     -7.732   0.320  1.51785E-01  3.83320E-01 -2.31536E-01
    8988.148     -7.628   0.360  1.59635E-01  4.02265E-01 -2.42630E-01
    8988.264     -7.512   0.400  1.68666E-01  4.21804E-01 -2.53138E-01
    8988.392     -7.384   0.440  1.79139E-01  4.41466E-01 -2.62327E-01
    8988.533     -7.244   0.480  1.91389E-01  4.60851E-01 -2.69462E-01
    8988.685     -7.092   0.520  2.05786E-01  4.79696E-01 -2.73910E-01
    8988.850     -6.927   0.560  2.22582E-01  4.97910E-01 -2.75328E-01
    8989.026     -6.750   0.600  2.41539E-01  5.15463E-01 -2.73924E-01
    8989.215     -6.561   0.640  2.61669E-01  5.32391E-01 -2.70722E-01
    8989.416     -6.360   0.680  2.81246E-01  5.48786E-01 -2.67540E-01
    8989.630     -6.147   0.720  2.98387E-01  5.64728E-01 -2.66341E-01
    8989.855     -5.921   0.760  3.12153E-01  5.80280E-01 -2.68127E-01
    8990.093     -5.683   0.800  3.23015E-01  5.95577E-01 -2.72561E-01
    8990.343     -5.434   0.840  3.32309E-01  6.10638E-01 -2.78329E-01
    8990.605     -5.171   0.880  3.42077E-01  6.25530E-01 -2.83452E-01
    8990.879     -4.897   0.920  3.55028E-01  6.40267E-01 -2.85239E-01
    8991.166     -4.611   0.960  3.74307E-01  6.54915E-01 -2.80608E-01
    8991.465     -4.312   1.000  4.02554E-01  6.69466E-01 -2.66912E-01
    8991.776     -4.001   1.040  4.40633E-01  6.83924E-01 -2.43291E-01
    8992.099     -3.678   1.080  4.86091E-01  6.98285E-01 -2.12195E-01
    8992.434     -3.343   1.120  5.33194E-01  7.12542E-01 -1.79348E-01
    8992.781     -2.995   1.160  5.74761E-01  7.26699E-01 -1.51939E-01
    8993.141     -2.636   1.200  6.05264E-01  7.40699E-01 -1.35434E-01
    8993.513     -2.264   1.240  6.25049E-01  7.54538E-01 -1.29489E-01
    8993.897     -1.880   1.280  6.39495E-01  7.68214E-01 -1.28719E-01
    8994.293     -1.483   1.320  6.52518E-01  7.81661E-01 -1.29143E-01
    8994.702     -1.075   1.360  6.65851E-01  7.94892E-01 -1.29041E-01
    8995.122     -0.654   1.400  6.81401E-01  8.07857E-01 -1.26456E-01
    8995.555     -0.222   1.440  7.01056E-01  8.20546E-01 -1.19490E-01
    8996.000      0.224   1.480  7.27073E-01  8.32911E-01 -1.05838E-01
    8996.457      0.681   1.520  7.61162E-01  8.44924E-01 -8.37616E-02
    8996.927      1.150   1.560  8.05816E-01  8.56595E-01 -5.07792E-02
    8997.408      1.632   1.600  8.63188E-01  8.67895E-01 -4.70690E-03
    8997.902      2.125   1.640  9.30633E-01  8.78778E-01  5.18557E-02
    8998.408      2.631   1.680  1.00095E+00  8.89255E-01  1.11691E-01
    8998.926      3.150   1.720  1.06024E+00  8.99301E-01  1.60937E-01
    8999.457      3.680   1.760  1.09588E+00  9.08892E-01  1.86985E-01
    8999.999      4.222   1.800  1.11622E+00  9.18043E-01  1.98178E-01
    9000.554      4.777   1.840  1.13462E+00  9.26711E-01  2.07910E-01
    9001.121      5.344   1.880  1.15116E+00  9.34936E-01  2.16228E-01
    9001.700      5.923   1.920  1.16202E+00  9.42677E-01  2.19341E-01
    9002.291      6.515   1.960  1.16715E+00  9.49953E-01  2.17193E-01
    9002.895      7.118   2.000  1.17008E+00  9.56767E-01  2.13318E-01
    9003.510      7.734   2.040  1.17589E+00  9.63123E-01  2.12770E-01
    9004.138      8.362   2.080  1.18788E+00  9.69002E-01  2.18876E-01
    9004.778      9.002   2.120  1.20322E+00  9.74449E-01  2.28775E-01
    9005.431      9.654   2.160  1.21447E+00  9.79451E-01  2.35019E-01
    9006.095     10.318   2.200  1.21819E+00  9.84033E-01  2.34153E-01
    9006.772     10.995   2.240  1.21645E+00  9.88201E-01  2.28252E-01
    9007.461     11.684   2.280  1.21060E+00  9.91962E-01  2.18636E-01
    9008.162     12.385   2.320  1.19996E+00  9.95325E-01  2.04636E-01
    9008.875     13.098   2.360  1.18439E+00  9.98337E-01  1.86049E-01
    9009.600     13.824   2.400  1.16514E+00  1.00099E+00  1.64153E-01
    9010.338     14.561   2.440  1.14278E+00  1.00328E+00  1.39504E-01
    9011.088     15.311   2.480  1.11696E+00  1.00527E+00  1.11688E-01
    9011.850     16.073   2.520  1.08955E+00  1.00695E+00  8.26060E-02
    9012.624     16.847   2.560  1.06295E+00  1.00836E+00  5.45985E-02
    9013.410     17.634   2.600  1.03491E+00  1.00949E+00  2.54232E-02
    9014.209     18.432   2.640  1.00326E+00  1.01037E+00 -7.10405E-03
    9015.020     19.243   2.680  9.72709E-01  1.01101E+00 -3.83001E-02
    9015.842     20.066   2.720  9.46679E-01  1.01144E+00 -6.47601E-02
    9016.678     20.901   2.760  9.26798E-01  1.01167E+00 -8.48677E-02
    9017.525     21.748   2.800  9.13440E-01  1.01170E+00 -9.82578E-02
    9018.385     22.608   2.840  9.05659E-01  1.01158E+00 -1.05925E-01
    9019.256     23.480   2.880  9.01829E-01  1.01129E+00 -1.09463E-01
    9020.140     24.364   2.920  9.00426E-01  1.01089E+00 -1.10466E-01
    9021.036     25.260   2.960  9.00523E-01  1.01037E+00 -1.09845E-01
    9021.945     26.168   3.000  9.01894E-01  1.00973E+00 -1.07833E-01
    9022.865     27.088   3.040  9.04487E-01  1.00898E+00 -1.04489E-01
    9023.798     28.021   3.080  9.08483E-01  1.00816E+00 -9.96807E-02
    9024.743     28.966   3.120  9.14153E-01  1.00728E+00 -9.31226E-02
    9025.700     29.923   3.160  9.21135E-01  1.00634E+00 -8.52033E-02
    9026.669     30.892   3.200  9.28573E-01  1.00536E+00 -7.67846E-02
    9027.650     31.874   3.240  9.35686E-01  1.00433E+00 -6.86491E-02
    9028.644     32.867   3.280  9.41844E-01  1.00328E+00 -6.14339E-02
    9029.650     33.873   3.320  9.46598E-01  1.00221E+00 -5.56124E-02
    9030.668     34.891   3.360  9.49810E-01  1.00112E+00 -5.13063E-02
    9031.698     35.922   3.400  9.51678E-01  1.00004E+00 -4.83635E-02
    9032.741     36.964   3.440  9.52512E-01  9.98969E-01 -4.64565E-02
    9033.795     38.019   3.480  9.52857E-01  9.97902E-01 -4.50448E-02
    9034.862     39.085   3.520  9.53471E-01  9.96864E-01 -4.33924E-02
    9035.941     40.164   3.560  9.55022E-01  9.95836E-01 -4.08142E-02
    9037.032     41.256   3.600  9.57975E-01  9.94842E-01 -3.68672E-02
    9038.135     42.359   3.640  9.62510E-01  9.93887E-01 -3.13772E-02
    9039.251     43.474   3.680  9.68482E-01  9.92993E-01 -2.45102E-02
    9040.379     44.602   3.720  9.75351E-01  9.92117E-01 -1.67660E-02
    9041.519     45.742   3.760  9.82480E-01  9.91284E-01 -8.80387E-03
    9042.671     46.894   3.800  9.89286E-01  9.90514E-01 -1.22798E-03
    9043.835     48.059   3.840  9.95234E-01  9.89788E-01  5.44557E-03
    9045.012     49.235   3.880  1.00003E+00  9.89108E-01  1.09230E-02
    9046.200     50.424   3.920  1.00369E+00  9.88474E-01  1.52150E-02
    9047.401     51.625   3.960  1.00654E+00  9.87909E-01  1.86314E-02
    9048.614     52.838   4.000  1.00909E+00  9.87412E-01  2.16819E-02
    9049.840     54.063   4.040  1.01194E+00  9.86965E-01  2.49792E-02
    9051.077     55.301   4.080  1.01551E+00  9.86565E-01  2.89444E-02
    9052.327     56.550   4.120  1.01990E+00  9.86233E-01  3.36643E-02
    9053.589     57.812   4.160  1.02484E+00  9.85951E-01  3.88888E-02
    9054.863     59.086   4.200  1.02984E+00  9.85737E-01  4.41034E-02
    9056.149     60.372   4.240  1.03423E+00  9.85570E-01  4.86566E-02
    9057.448     61.671   4.280  1.03740E+00  9.85472E-01  5.19279E-02
    9058.758     62.982   4.320  1.03895E+00  9.85420E-01  5.35310E-02
    9060.081     64.304   4.360  1.03870E+00  9.85410E-01  5.32925E-02
    9061.416     65.639   4.400  1.03670E+00  9.85445E-01  5.12588E-02
    9062.763     66.987   4.440  1.03326E+00  9.85544E-01  4.77120E-02
    9064.123     68.346   4.480  1.02883E+00  9.85663E-01  4.31638E-02
    9065.494     69.718   4.520  1.02412E+00  9.85845E-01  3.82782E-02
    9066.878     71.101   4.560  1.01980E+00  9.86068E-01  3.37350E-02
    9068.274     72.497   4.600  1.01633E+00  9.86331E-01  3.00011E-02
    9069.682     73.906   4.640  1.01377E+00  9.86607E-01  2.71586E-02
    9071.103     75.326   4.680  1.01181E+00  9.86941E-01  2.48651E-02
    9072.535     76.758   4.720  1.00976E+00  9.87290E-01  2.24726E-02
    9073.980     78.203   4.760  1.00695E+00  9.87670E-01  1.92799E-02
    9075.437     79.660   4.800  1.00291E+00  9.88060E-01  1.48521E-02
    9076.906     81.129   4.840  9.97678E-01  9.88481E-01  9.19640E-03
    9078.387     82.611   4.880  9.91643E-01  9.88930E-01  2.71269E-03
    9079.881     84.104   4.920  9.85391E-01  9.89363E-01 -3.97241E-03
    9081.386     85.610   4.960  9.79578E-01  9.89822E-01 -1.02439E-02
    9082.904     87.128   5.000  9.74646E-01  9.90283E-01 -1.56367E-02
    9084.434     88.658   5.040  9.70851E-01  9.90746E-01 -1.98952E-02
    9085.977     90.200   5.080  9.68247E-01  9.91230E-01 -2.29831E-02
    9087.531     91.755   5.120  9.66687E-01  9.91689E-01 -2.50017E-02
    9089.098     93.321   5.160  9.65990E-01  9.92121E-01 -2.61310E-02
    9090.677     94.900   5.200  9.66041E-01  9.92570E-01 -2.65287E-02
    9092.268     96.491   5.240  9.66684E-01  9.92990E-01 -2.63062E-02
    9093.871     98.094   5.280  9.67851E-01  9.93404E-01 -2.55536E-02
    9095.486     99.710   5.320  9.69466E-01  9.93811E-01 -2.43449E-02
    9097.114    101.337   5.360  9.71450E-01  9.94186E-01 -2.27352E-02
    9098.754    102.977   5.400  9.73785E-01  9.94525E-01 -2.07401E-02
    9100.406    104.629   5.440  9.76433E-01  9.94852E-01 -1.84191E-02
    9102.070    106.293   5.480  9.79199E-01  9.95144E-01 -1.59442E-02
    9103.746    107.970   5.520  9.81787E-01  9.95397E-01 -1.36108E-02
    9105.435    109.658   5.560  9.83873E-01  9.95615E-01 -1.17424E-02
    9107.136    111.359   5.600  9.85243E-01  9.95819E-01 -1.05765E-02
    9108.849    113.072   5.640  9.85840E-01  9.95985E-01 -1.01448E-02
    9110.574    114.797   5.680  9.85820E-01  9.96110E-01 -1.02903E-02
    9112.311    116.535   5.720  9.85367E-01  9.96171E-01 -1.08041E-02
    9114.061    118.284   5.760  9.84681E-01  9.96217E-01 -1.15360E-02
    9115.823    120.046   5.800  9.83841E-01  9.96225E-01 -1.23835E-02
    9117.596    121.820   5.840  9.83004E-01  9.96193E-01 -1.31888E-02
    9119.383    123.606   5.880  9.82440E-01  9.96122E-01 -1.36820E-02
    9121.181    125.404   5.920  9.82474E-01  9.96010E-01 -1.35358E-02
    9122.991    127.215   5.960  9.83335E-01  9.95829E-01 -1.24938E-02
    9124.814    129.038   6.000  9.85221E-01  9.95608E-01 -1.03870E-02
