# # comment:                                                     FEFF 9.9.1  
# # Source:
# # Structure
# # Reduced
# # space
# # abc:
# # angles:
# # sites:
# # POT  SCF 100  7.0000   0, screened core-hole, AFOLP (folp(0)= 1.150)
# # Abs   Z=29 Rmt= 1.285 Rnm= 1.356 K  shell
# # Pot 1 Z=19 Rmt= 1.904 Rnm= 1.942
# # Pot 2 Z=29 Rmt= 1.285 Rnm= 1.356
# # Pot 3 Z= 5 Rmt= 0.769 Rnm= 0.987
# # Pot 4 Z= 8 Rmt= 0.908 Rnm= 1.052
# # Gam_ch=1.729E+00 H-L exch Vi= 0.000E+00 Vr= 0.000E+00
# # Mu=-6.400E+00eV kf=2.443E+00 Vint=-1.813E+01eV Rs_int= 1.485
# FMS rfms= 9.0000
# # PATH  Rmax=-1.000,  Keep_limit= 0.00, Heap_limit 0.00  Pwcrit= 2.50%
#  S02=0.950  Temp=   0.00  Debye_temp=   0.00  Global_sig2= 0.00000
#  Energy zero shift, vr, vi    0.00000E+00   0.00000E+00
#  Curved wave amplitude ratio filter   4.000%
#     file         sig2 tot  cw amp ratio   deg  nlegs   reff  inp sig2
#     0/   0 paths used
#  xsedge+ 50, used to normalize mu           2.5049E-04
#  -----------------------------------------------------------------------
#  omega    e    k    mu    mu0     chi     @#
    8983.358    -10.210  -1.000  4.90077E-02  5.16789E-02 -2.67113E-03
    8983.656     -9.911  -0.960  5.27120E-02  5.54215E-02 -2.70950E-03
    8983.943     -9.625  -0.920  5.69010E-02  5.95830E-02 -2.68204E-03
    8984.217     -9.350  -0.880  6.16644E-02  6.42256E-02 -2.56121E-03
    8984.479     -9.088  -0.840  6.71109E-02  6.94219E-02 -2.31097E-03
    8984.729     -8.838  -0.800  7.33714E-02  7.52560E-02 -1.88466E-03
    8984.967     -8.601  -0.760  8.06018E-02  8.18247E-02 -1.22297E-03
    8985.193     -8.375  -0.720  8.89854E-02  8.92374E-02 -2.52092E-04
    8985.406     -8.162  -0.680  9.87317E-02  9.76148E-02  1.11693E-03
    8985.607     -7.960  -0.640  1.10071E-01  1.07084E-01  2.98651E-03
    8985.796     -7.771  -0.600  1.23238E-01  1.17772E-01  5.46627E-03
    8985.973     -7.595  -0.560  1.38444E-01  1.29784E-01  8.65963E-03
    8986.137     -7.430  -0.520  1.55826E-01  1.43185E-01  1.26405E-02
    8986.290     -7.278  -0.480  1.75383E-01  1.57963E-01  1.74198E-02
    8986.430     -7.137  -0.440  1.96893E-01  1.73987E-01  2.29062E-02
    8986.558     -7.009  -0.400  2.19851E-01  1.90975E-01  2.88758E-02
    8986.674     -6.894  -0.360  2.43459E-01  2.08487E-01  3.49715E-02
    8986.777     -6.790  -0.320  2.66699E-01  2.25948E-01  4.07513E-02
    8986.869     -6.699  -0.280  2.88504E-01  2.42721E-01  4.57824E-02
    8986.948     -6.619  -0.240  3.07946E-01  2.58196E-01  4.97494E-02
    8987.015     -6.552  -0.200  3.24394E-01  2.71864E-01  5.25307E-02
    8987.070     -6.497  -0.160  3.37564E-01  2.83352E-01  5.42121E-02
    8987.113     -6.455  -0.120  3.47462E-01  2.92427E-01  5.50345E-02
    8987.143     -6.424  -0.080  3.54256E-01  2.98961E-01  5.52950E-02
    8987.168     -6.400   0.000  3.59375E-01  3.04208E-01  5.51670E-02
    8987.222     -6.345   0.120  3.69611E-01  3.16032E-01  5.35790E-02
    8987.265     -6.302   0.160  3.77272E-01  3.25209E-01  5.20624E-02
    8987.320     -6.247   0.200  3.86160E-01  3.36897E-01  4.92636E-02
    8987.387     -6.180   0.240  3.95379E-01  3.50960E-01  4.44185E-02
    8987.466     -6.101   0.280  4.03641E-01  3.67060E-01  3.65816E-02
    8987.558     -6.010   0.320  4.09523E-01  3.84761E-01  2.47626E-02
    8987.661     -5.906   0.360  4.11719E-01  4.03547E-01  8.17245E-03
    8987.777     -5.790   0.400  4.09391E-01  4.22828E-01 -1.34377E-02
    8987.905     -5.662   0.440  4.02556E-01  4.42088E-01 -3.95325E-02
    8988.045     -5.522   0.480  3.92143E-01  4.60907E-01 -6.87639E-02
    8988.198     -5.370   0.520  3.79819E-01  4.79052E-01 -9.92330E-02
    8988.362     -5.205   0.560  3.67421E-01  4.96390E-01 -1.28969E-01
    8988.539     -5.028   0.600  3.56545E-01  5.12912E-01 -1.56367E-01
    8988.728     -4.839   0.640  3.48211E-01  5.28662E-01 -1.80452E-01
    8988.929     -4.638   0.680  3.42874E-01  5.43759E-01 -2.00886E-01
    8989.143     -4.425   0.720  3.40456E-01  5.58279E-01 -2.17822E-01
    8989.368     -4.199   0.760  3.40558E-01  5.72353E-01 -2.31794E-01
    8989.606     -3.961   0.800  3.42242E-01  5.86066E-01 -2.43823E-01
    8989.856     -3.712   0.840  3.44465E-01  5.99493E-01 -2.55028E-01
    8990.118     -3.449   0.880  3.46983E-01  6.12711E-01 -2.65728E-01
    8990.392     -3.175   0.920  3.51011E-01  6.25788E-01 -2.74777E-01
    8990.679     -2.889   0.960  3.58728E-01  6.38737E-01 -2.80008E-01
    8990.978     -2.590   1.000  3.72395E-01  6.51624E-01 -2.79228E-01
    8991.289     -2.279   1.040  3.93108E-01  6.64443E-01 -2.71334E-01
    8991.612     -1.956   1.080  4.20422E-01  6.77219E-01 -2.56797E-01
    8991.947     -1.621   1.120  4.53735E-01  6.89975E-01 -2.36240E-01
    8992.294     -1.273   1.160  4.93938E-01  7.02686E-01 -2.08748E-01
    8992.654     -0.914   1.200  5.42489E-01  7.15362E-01 -1.72873E-01
    8993.026     -0.542   1.240  5.98656E-01  7.28008E-01 -1.29352E-01
    8993.410     -0.158   1.280  6.57310E-01  7.40588E-01 -8.32777E-02
    8993.806      0.239   1.320  7.11075E-01  7.53083E-01 -4.20074E-02
    8994.215      0.647   1.360  7.56073E-01  7.65509E-01 -9.43631E-03
    8994.635      1.068   1.400  7.90236E-01  7.77825E-01  1.24114E-02
    8995.068      1.500   1.440  8.09468E-01  7.90024E-01  1.94435E-02
    8995.513      1.946   1.480  8.16189E-01  8.02080E-01  1.41088E-02
    8995.970      2.403   1.520  8.25865E-01  8.13945E-01  1.19204E-02
    8996.440      2.872   1.560  8.57652E-01  8.25652E-01  3.20000E-02
    8996.921      3.354   1.600  9.17923E-01  8.37132E-01  8.07910E-02
    8997.415      3.847   1.640  9.89349E-01  8.48357E-01  1.40992E-01
    8997.921      4.353   1.680  1.04217E+00  8.59357E-01  1.82813E-01
    8998.439      4.872   1.720  1.06099E+00  8.70064E-01  1.90923E-01
    8998.969      5.402   1.760  1.05630E+00  8.80488E-01  1.75811E-01
    8999.512      5.944   1.800  1.05250E+00  8.90584E-01  1.61916E-01
    9000.067      6.499   1.840  1.06272E+00  9.00343E-01  1.62375E-01
    9000.634      7.066   1.880  1.08114E+00  9.09756E-01  1.71385E-01
    9001.213      7.645   1.920  1.10675E+00  9.18819E-01  1.87933E-01
    9001.804      8.237   1.960  1.13861E+00  9.27486E-01  2.11120E-01
    9002.408      8.840   2.000  1.16470E+00  9.35770E-01  2.28928E-01
    9003.023      9.456   2.040  1.17422E+00  9.43648E-01  2.30577E-01
    9003.651     10.084   2.080  1.16880E+00  9.51137E-01  2.17666E-01
    9004.291     10.724   2.120  1.14597E+00  9.58194E-01  1.87771E-01
    9004.943     11.376   2.160  1.11578E+00  9.64857E-01  1.50922E-01
    9005.608     12.040   2.200  1.10917E+00  9.71064E-01  1.38105E-01
    9006.285     12.717   2.240  1.13381E+00  9.76877E-01  1.56929E-01
    9006.973     13.406   2.280  1.17138E+00  9.82256E-01  1.89122E-01
    9007.674     14.107   2.320  1.21112E+00  9.87223E-01  2.23898E-01
    9008.388     14.820   2.360  1.24929E+00  9.91780E-01  2.57506E-01
    9009.113     15.546   2.400  1.27513E+00  9.95930E-01  2.79202E-01
    9009.851     16.283   2.440  1.27943E+00  9.99677E-01  2.79754E-01
    9010.601     17.033   2.480  1.26207E+00  1.00302E+00  2.59047E-01
    9011.363     17.795   2.520  1.22189E+00  1.00600E+00  2.15894E-01
    9012.137     18.569   2.560  1.15703E+00  1.00861E+00  1.48419E-01
    9012.923     19.356   2.600  1.08006E+00  1.01085E+00  6.92092E-02
    9013.722     20.154   2.640  1.00751E+00  1.01275E+00 -5.23686E-03
    9014.532     20.965   2.680  9.50299E-01  1.01431E+00 -6.40097E-02
    9015.355     21.788   2.720  9.15421E-01  1.01557E+00 -1.00151E-01
    9016.191     22.623   2.760  9.03424E-01  1.01652E+00 -1.13098E-01
    9017.038     23.470   2.800  9.05158E-01  1.01717E+00 -1.12010E-01
    9017.897     24.330   2.840  9.04520E-01  1.01758E+00 -1.13057E-01
    9018.769     25.202   2.880  8.91805E-01  1.01772E+00 -1.25913E-01
    9019.653     26.086   2.920  8.72549E-01  1.01762E+00 -1.45069E-01
    9020.549     26.982   2.960  8.52658E-01  1.01729E+00 -1.64627E-01
    9021.457     27.890   3.000  8.36337E-01  1.01677E+00 -1.80432E-01
    9022.378     28.810   3.040  8.25973E-01  1.01606E+00 -1.90086E-01
    9023.311     29.743   3.080  8.22567E-01  1.01518E+00 -1.92613E-01
    9024.256     30.688   3.120  8.26086E-01  1.01414E+00 -1.88058E-01
    9025.213     31.645   3.160  8.35430E-01  1.01296E+00 -1.77525E-01
    9026.182     32.614   3.200  8.48885E-01  1.01166E+00 -1.62777E-01
    9027.163     33.596   3.240  8.64613E-01  1.01023E+00 -1.45620E-01
    9028.157     34.589   3.280  8.81250E-01  1.00874E+00 -1.27486E-01
    9029.163     35.595   3.320  8.97412E-01  1.00714E+00 -1.09725E-01
    9030.181     36.613   3.360  9.12707E-01  1.00548E+00 -9.27761E-02
    9031.211     37.644   3.400  9.27004E-01  1.00378E+00 -7.67782E-02
    9032.253     38.686   3.440  9.40572E-01  1.00202E+00 -6.14455E-02
    9033.308     39.741   3.480  9.53947E-01  1.00024E+00 -4.62916E-02
    9034.375     40.807   3.520  9.67282E-01  9.98448E-01 -3.11659E-02
    9035.454     41.886   3.560  9.79986E-01  9.96631E-01 -1.66450E-02
    9036.545     42.978   3.600  9.91083E-01  9.94814E-01 -3.73086E-03
    9037.648     44.081   3.640  9.99950E-01  9.93021E-01  6.92849E-03
    9038.764     45.196   3.680  1.00655E+00  9.91240E-01  1.53138E-02
    9039.892     46.324   3.720  1.01155E+00  9.89491E-01  2.20620E-02
    9041.032     47.464   3.760  1.01581E+00  9.87779E-01  2.80344E-02
    9042.184     48.616   3.800  1.01991E+00  9.86107E-01  3.38068E-02
    9043.348     49.781   3.840  1.02394E+00  9.84480E-01  3.94574E-02
    9044.525     50.957   3.880  1.02781E+00  9.82921E-01  4.48869E-02
    9045.713     52.146   3.920  1.03154E+00  9.81433E-01  5.01097E-02
    9046.914     53.347   3.960  1.03526E+00  9.79996E-01  5.52619E-02
    9048.127     54.560   4.000  1.03905E+00  9.78632E-01  6.04198E-02
    9049.353     55.785   4.040  1.04276E+00  9.77324E-01  6.54406E-02
    9050.590     57.023   4.080  1.04597E+00  9.76116E-01  6.98514E-02
    9051.840     58.272   4.120  1.04799E+00  9.74988E-01  7.30065E-02
    9053.102     59.534   4.160  1.04838E+00  9.73941E-01  7.44392E-02
    9054.376     60.808   4.200  1.04700E+00  9.72975E-01  7.40295E-02
    9055.662     62.094   4.240  1.04417E+00  9.72093E-01  7.20741E-02
    9056.960     63.393   4.280  1.04045E+00  9.71315E-01  6.91339E-02
    9058.271     64.704   4.320  1.03640E+00  9.70620E-01  6.57785E-02
    9059.594     66.026   4.360  1.03220E+00  9.70008E-01  6.21925E-02
    9060.929     67.361   4.400  1.02761E+00  9.69480E-01  5.81306E-02
    9062.276     68.709   4.440  1.02220E+00  9.69055E-01  5.31501E-02
    9063.636     70.068   4.480  1.01560E+00  9.68691E-01  4.69051E-02
    9065.007     71.440   4.520  1.00781E+00  9.68431E-01  3.93843E-02
    9066.391     72.823   4.560  9.99161E-01  9.68253E-01  3.09083E-02
    9067.787     74.219   4.600  9.90067E-01  9.68157E-01  2.19102E-02
    9069.195     75.628   4.640  9.81001E-01  9.68162E-01  1.28392E-02
    9070.615     77.048   4.680  9.72391E-01  9.68224E-01  4.16695E-03
    9072.048     78.480   4.720  9.64711E-01  9.68360E-01 -3.64900E-03
    9073.493     79.925   4.760  9.58268E-01  9.68550E-01 -1.02820E-02
    9074.950     81.382   4.800  9.53211E-01  9.68834E-01 -1.56237E-02
    9076.419     82.851   4.840  9.49358E-01  9.69170E-01 -1.98119E-02
    9077.900     84.333   4.880  9.46491E-01  9.69553E-01 -2.30618E-02
    9079.394     85.826   4.920  9.44482E-01  9.70003E-01 -2.55215E-02
    9080.899     87.332   4.960  9.43276E-01  9.70501E-01 -2.72251E-02
    9082.417     88.850   5.000  9.42945E-01  9.71063E-01 -2.81171E-02
    9083.947     90.380   5.040  9.43412E-01  9.71644E-01 -2.82322E-02
    9085.490     91.922   5.080  9.44509E-01  9.72285E-01 -2.77766E-02
    9087.044     93.477   5.120  9.45832E-01  9.72940E-01 -2.71077E-02
    9088.611     95.043   5.160  9.46984E-01  9.73627E-01 -2.66429E-02
    9090.190     96.622   5.200  9.47591E-01  9.74323E-01 -2.67320E-02
    9091.781     98.213   5.240  9.47416E-01  9.75050E-01 -2.76333E-02
    9093.384     99.816   5.280  9.46312E-01  9.75782E-01 -2.94698E-02
    9094.999    101.432   5.320  9.44309E-01  9.76537E-01 -3.22285E-02
    9096.627    103.059   5.360  9.41589E-01  9.77271E-01 -3.56820E-02
    9098.267    104.699   5.400  9.38677E-01  9.78002E-01 -3.93248E-02
    9099.919    106.351   5.440  9.36280E-01  9.78728E-01 -4.24477E-02
    9101.583    108.015   5.480  9.35095E-01  9.79447E-01 -4.43521E-02
    9103.259    109.692   5.520  9.35560E-01  9.80136E-01 -4.45759E-02
    9104.948    111.380   5.560  9.37876E-01  9.80790E-01 -4.29137E-02
    9106.649    113.081   5.600  9.41970E-01  9.81431E-01 -3.94617E-02
    9108.362    114.794   5.640  9.47525E-01  9.82036E-01 -3.45104E-02
    9110.087    116.519   5.680  9.54207E-01  9.82601E-01 -2.83940E-02
    9111.824    118.257   5.720  9.61724E-01  9.83127E-01 -2.14029E-02
    9113.574    120.006   5.760  9.69823E-01  9.83607E-01 -1.37834E-02
    9115.335    121.768   5.800  9.78183E-01  9.84019E-01 -5.83631E-03
    9117.109    123.542   5.840  9.86372E-01  9.84387E-01  1.98502E-03
    9118.896    125.328   5.880  9.93733E-01  9.84708E-01  9.02484E-03
    9120.694    127.126   5.920  9.99905E-01  9.84980E-01  1.49246E-02
    9122.504    128.937   5.960  1.00458E+00  9.85168E-01  1.94131E-02
    9124.327    130.760   6.000  1.00764E+00  9.85243E-01  2.23980E-02
