# # comment:                                                     FEFF 9.9.1  
# # Source:
# # Structure
# # Reduced
# # space
# # abc:
# # angles:109.471221
# # sites:
# # POT  SCF 100  7.0000   0, screened core-hole, AFOLP (folp(0)= 1.150)
# # Abs   Z=29 Rmt= 1.247 Rnm= 1.355 K  shell
# # Pot 1 Z=39 Rmt= 1.883 Rnm= 1.925
# # Pot 2 Z=29 Rmt= 1.247 Rnm= 1.355
# # Pot 3 Z=83 Rmt= 1.535 Rnm= 1.625
# # Pot 4 Z= 8 Rmt= 1.065 Rnm= 1.126
# # Gam_ch=1.729E+00 H-L exch Vi= 0.000E+00 Vr= 0.000E+00
# # Mu=-6.198E+00eV kf=2.062E+00 Vint=-1.437E+01eV Rs_int= 1.758
# FMS rfms= 9.0000
# # PATH  Rmax=-1.000,  Keep_limit= 0.00, Heap_limit 0.00  Pwcrit= 2.50%
#  S02=0.950  Temp=   0.00  Debye_temp=   0.00  Global_sig2= 0.00000
#  Energy zero shift, vr, vi    0.00000E+00   0.00000E+00
#  Curved wave amplitude ratio filter   4.000%
#     file         sig2 tot  cw amp ratio   deg  nlegs   reff  inp sig2
#     0/   0 paths used
#  xsedge+ 50, used to normalize mu           2.4481E-04
#  -----------------------------------------------------------------------
#  omega    e    k    mu    mu0     chi     @#
    8983.352    -10.008  -1.000  4.17428E-02  5.42914E-02 -1.25486E-02
    8983.651     -9.710  -0.960  4.42276E-02  5.82364E-02 -1.40088E-02
    8983.937     -9.423  -0.920  4.69321E-02  6.26190E-02 -1.56869E-02
    8984.212     -9.149  -0.880  4.98810E-02  6.75033E-02 -1.76223E-02
    8984.474     -8.887  -0.840  5.31020E-02  7.29641E-02 -1.98622E-02
    8984.724     -8.637  -0.800  5.66250E-02  7.90879E-02 -2.24628E-02
    8984.962     -8.399  -0.760  6.04827E-02  8.59737E-02 -2.54910E-02
    8985.187     -8.174  -0.720  6.47093E-02  9.37337E-02 -2.90243E-02
    8985.400     -7.960  -0.680  6.93397E-02  1.02491E-01 -3.31513E-02
    8985.602     -7.759  -0.640  7.44077E-02  1.12376E-01 -3.79681E-02
    8985.791     -7.570  -0.600  7.99426E-02  1.23516E-01 -4.35730E-02
    8985.967     -7.393  -0.560  8.59654E-02  1.36019E-01 -5.00538E-02
    8986.132     -7.229  -0.520  9.24825E-02  1.49951E-01 -5.74686E-02
    8986.284     -7.076  -0.480  9.94784E-02  1.65297E-01 -6.58181E-02
    8986.425     -6.936  -0.440  1.06907E-01  1.81921E-01 -7.50140E-02
    8986.553     -6.808  -0.400  1.14683E-01  1.99536E-01 -8.48525E-02
    8986.668     -6.692  -0.360  1.22679E-01  2.17688E-01 -9.50088E-02
    8986.772     -6.589  -0.320  1.30722E-01  2.35788E-01 -1.05066E-01
    8986.863     -6.497  -0.280  1.38606E-01  2.53183E-01 -1.14577E-01
    8986.943     -6.418  -0.240  1.46098E-01  2.69242E-01 -1.23144E-01
    8987.010     -6.351  -0.200  1.52960E-01  2.83438E-01 -1.30477E-01
    8987.065     -6.296  -0.160  1.58961E-01  2.95382E-01 -1.36422E-01
    8987.107     -6.253  -0.120  1.63891E-01  3.04827E-01 -1.40936E-01
    8987.138     -6.223  -0.080  1.67578E-01  3.11633E-01 -1.44056E-01
    8987.162     -6.198   0.000  1.70695E-01  3.17103E-01 -1.46408E-01
    8987.217     -6.144   0.120  1.77762E-01  3.29434E-01 -1.51672E-01
    8987.260     -6.101   0.160  1.83416E-01  3.39028E-01 -1.55612E-01
    8987.315     -6.046   0.200  1.90970E-01  3.51283E-01 -1.60314E-01
    8987.382     -5.979   0.240  2.00666E-01  3.66019E-01 -1.65354E-01
    8987.461     -5.900   0.280  2.12823E-01  3.82971E-01 -1.70148E-01
    8987.552     -5.808   0.320  2.27795E-01  4.01698E-01 -1.73903E-01
    8987.656     -5.705   0.360  2.45939E-01  4.21698E-01 -1.75760E-01
    8987.772     -5.589   0.400  2.67372E-01  4.42352E-01 -1.74980E-01
    8987.900     -5.461   0.440  2.91897E-01  4.63190E-01 -1.71293E-01
    8988.040     -5.321   0.480  3.18383E-01  4.83777E-01 -1.65393E-01
    8988.192     -5.168   0.520  3.44604E-01  5.03860E-01 -1.59256E-01
    8988.357     -5.004   0.560  3.67541E-01  5.23302E-01 -1.55761E-01
    8988.534     -4.827   0.600  3.85067E-01  5.42069E-01 -1.57002E-01
    8988.723     -4.638   0.640  3.97976E-01  5.60232E-01 -1.62256E-01
    8988.924     -4.437   0.680  4.10098E-01  5.77803E-01 -1.67705E-01
    8989.137     -4.223   0.720  4.26271E-01  5.94921E-01 -1.68650E-01
    8989.363     -3.998   0.760  4.48980E-01  6.11647E-01 -1.62667E-01
    8989.601     -3.760   0.800  4.76146E-01  6.28030E-01 -1.51884E-01
    8989.851     -3.510   0.840  5.01376E-01  6.44149E-01 -1.42772E-01
    8990.113     -3.248   0.880  5.17074E-01  6.60044E-01 -1.42971E-01
    8990.387     -2.974   0.920  5.18049E-01  6.75728E-01 -1.57679E-01
    8990.673     -2.687   0.960  5.04166E-01  6.91218E-01 -1.87052E-01
    8990.972     -2.388   1.000  4.82558E-01  7.06522E-01 -2.23965E-01
    8991.283     -2.078   1.040  4.63543E-01  7.21640E-01 -2.58098E-01
    8991.606     -1.754   1.080  4.51006E-01  7.36545E-01 -2.85539E-01
    8991.941     -1.419   1.120  4.41194E-01  7.51220E-01 -3.10026E-01
    8992.289     -1.072   1.160  4.31730E-01  7.65650E-01 -3.33919E-01
    8992.649     -0.712   1.200  4.26255E-01  7.79790E-01 -3.53535E-01
    8993.020     -0.340   1.240  4.29827E-01  7.93658E-01 -3.63831E-01
    8993.404      0.044   1.280  4.47190E-01  8.07187E-01 -3.59997E-01
    8993.801      0.440   1.320  4.85602E-01  8.20350E-01 -3.34747E-01
    8994.209      0.849   1.360  5.49888E-01  8.33138E-01 -2.83250E-01
    8994.630      1.269   1.400  6.34010E-01  8.45501E-01 -2.11491E-01
    8995.063      1.702   1.440  7.18793E-01  8.57455E-01 -1.38663E-01
    8995.508      2.147   1.480  7.80899E-01  8.68931E-01 -8.80318E-02
    8995.965      2.604   1.520  8.06173E-01  8.79943E-01 -7.37701E-02
    8996.434      3.074   1.560  7.95122E-01  8.90486E-01 -9.53638E-02
    8996.916      3.555   1.600  7.65572E-01  9.00493E-01 -1.34921E-01
    8997.410      4.049   1.640  7.38952E-01  9.10004E-01 -1.71053E-01
    8997.915      4.555   1.680  7.30544E-01  9.19019E-01 -1.88475E-01
    8998.434      5.073   1.720  7.49418E-01  9.27495E-01 -1.78077E-01
    8998.964      5.603   1.760  8.00212E-01  9.35433E-01 -1.35221E-01
    8999.507      6.146   1.800  8.89858E-01  9.42877E-01 -5.30195E-02
    9000.061      6.701   1.840  1.01833E+00  9.49812E-01  6.85163E-02
    9000.628      7.268   1.880  1.17238E+00  9.56220E-01  2.16158E-01
    9001.207      7.847   1.920  1.33416E+00  9.62150E-01  3.72007E-01
    9001.799      8.438   1.960  1.48703E+00  9.67609E-01  5.19418E-01
    9002.402      9.041   2.000  1.60769E+00  9.72583E-01  6.35103E-01
    9003.018      9.657   2.040  1.67563E+00  9.77123E-01  6.98512E-01
    9003.646     10.285   2.080  1.69211E+00  9.81237E-01  7.10875E-01
    9004.286     10.925   2.120  1.67044E+00  9.84915E-01  6.85524E-01
    9004.938     11.577   2.160  1.61321E+00  9.88207E-01  6.25007E-01
    9005.603     12.242   2.200  1.51482E+00  9.91146E-01  5.23676E-01
    9006.279     12.919   2.240  1.38128E+00  9.93699E-01  3.87576E-01
    9006.968     13.607   2.280  1.23020E+00  9.95940E-01  2.34256E-01
    9007.669     14.308   2.320  1.07943E+00  9.97859E-01  8.15754E-02
    9008.382     15.022   2.360  9.52763E-01  9.99509E-01 -4.67459E-02
    9009.108     15.747   2.400  8.74155E-01  1.00088E+00 -1.26722E-01
    9009.845     16.485   2.440  8.51093E-01  1.00199E+00 -1.50901E-01
    9010.595     17.234   2.480  8.73837E-01  1.00287E+00 -1.29037E-01
    9011.357     17.996   2.520  9.03148E-01  1.00356E+00 -1.00416E-01
    9012.131     18.771   2.560  9.19394E-01  1.00405E+00 -8.46594E-02
    9012.918     19.557   2.600  9.30027E-01  1.00435E+00 -7.43266E-02
    9013.716     20.356   2.640  9.41944E-01  1.00453E+00 -6.25903E-02
    9014.527     21.166   2.680  9.54463E-01  1.00454E+00 -5.00788E-02
    9015.350     21.989   2.720  9.63501E-01  1.00447E+00 -4.09662E-02
    9016.185     22.824   2.760  9.65510E-01  1.00426E+00 -3.87466E-02
    9017.032     23.672   2.800  9.61048E-01  1.00396E+00 -4.29095E-02
    9017.892     24.531   2.840  9.53500E-01  1.00360E+00 -5.00986E-02
    9018.764     25.403   2.880  9.45647E-01  1.00317E+00 -5.75193E-02
    9019.648     26.287   2.920  9.38892E-01  1.00268E+00 -6.37924E-02
    9020.544     27.183   2.960  9.33796E-01  1.00216E+00 -6.83668E-02
    9021.452     28.091   3.000  9.30060E-01  1.00160E+00 -7.15430E-02
    9022.373     29.012   3.040  9.27015E-01  1.00103E+00 -7.40185E-02
    9023.305     29.945   3.080  9.24051E-01  1.00046E+00 -7.64067E-02
    9024.250     30.889   3.120  9.20587E-01  9.99880E-01 -7.92922E-02
    9025.207     31.847   3.160  9.16425E-01  9.99302E-01 -8.28772E-02
    9026.176     32.816   3.200  9.11620E-01  9.98728E-01 -8.71088E-02
    9027.158     33.797   3.240  9.06364E-01  9.98163E-01 -9.17993E-02
    9028.152     34.791   3.280  9.00805E-01  9.97649E-01 -9.68438E-02
    9029.157     35.797   3.320  8.95213E-01  9.97149E-01 -1.01936E-01
    9030.175     36.815   3.360  8.90125E-01  9.96686E-01 -1.06561E-01
    9031.206     37.845   3.400  8.86030E-01  9.96261E-01 -1.10231E-01
    9032.248     38.887   3.440  8.83361E-01  9.95874E-01 -1.12513E-01
    9033.303     39.942   3.480  8.82806E-01  9.95528E-01 -1.12722E-01
    9034.369     41.009   3.520  8.85167E-01  9.95224E-01 -1.10057E-01
    9035.448     42.088   3.560  8.91054E-01  9.94964E-01 -1.03910E-01
    9036.540     43.179   3.600  9.00999E-01  9.94768E-01 -9.37691E-02
    9037.643     44.282   3.640  9.15462E-01  9.94618E-01 -7.91556E-02
    9038.759     45.398   3.680  9.34874E-01  9.94510E-01 -5.96360E-02
    9039.886     46.526   3.720  9.59092E-01  9.94447E-01 -3.53550E-02
    9041.026     47.666   3.760  9.86515E-01  9.94451E-01 -7.93645E-03
    9042.178     48.818   3.800  1.01379E+00  9.94499E-01  1.92944E-02
    9043.343     49.982   3.840  1.03690E+00  9.94589E-01  4.23156E-02
    9044.519     51.159   3.880  1.05322E+00  9.94722E-01  5.84946E-02
    9045.708     52.347   3.920  1.06252E+00  9.94898E-01  6.76210E-02
    9046.909     53.548   3.960  1.06650E+00  9.95138E-01  7.13666E-02
    9048.122     54.761   4.000  1.06761E+00  9.95419E-01  7.21876E-02
    9049.347     55.987   4.040  1.06778E+00  9.95719E-01  7.20577E-02
    9050.585     57.224   4.080  1.06810E+00  9.96077E-01  7.20250E-02
    9051.834     58.474   4.120  1.06866E+00  9.96453E-01  7.22103E-02
    9053.096     59.736   4.160  1.06913E+00  9.96887E-01  7.22446E-02
    9054.370     61.010   4.200  1.06896E+00  9.97334E-01  7.16216E-02
    9055.657     62.296   4.240  1.06790E+00  9.97793E-01  7.01091E-02
    9056.955     63.594   4.280  1.06614E+00  9.98305E-01  6.78301E-02
    9058.266     64.905   4.320  1.06411E+00  9.98827E-01  6.52800E-02
    9059.588     66.228   4.360  1.06253E+00  9.99356E-01  6.31744E-02
    9060.923     67.563   4.400  1.06196E+00  9.99912E-01  6.20492E-02
    9062.271     68.910   4.440  1.06228E+00  1.00047E+00  6.18077E-02
    9063.630     70.269   4.480  1.06265E+00  1.00103E+00  6.16110E-02
    9065.002     71.641   4.520  1.06206E+00  1.00160E+00  6.04590E-02
    9066.385     73.025   4.560  1.06019E+00  1.00216E+00  5.80327E-02
    9067.781     74.421   4.600  1.05744E+00  1.00272E+00  5.47224E-02
    9069.190     75.829   4.640  1.05425E+00  1.00330E+00  5.09508E-02
    9070.610     77.249   4.680  1.05034E+00  1.00383E+00  4.65043E-02
    9072.043     78.682   4.720  1.04472E+00  1.00438E+00  4.03412E-02
    9073.487     80.127   4.760  1.03612E+00  1.00490E+00  3.12194E-02
    9074.944     81.584   4.800  1.02417E+00  1.00541E+00  1.87679E-02
    9076.413     83.053   4.840  1.00981E+00  1.00590E+00  3.90723E-03
    9077.895     84.534   4.880  9.94767E-01  1.00635E+00 -1.15830E-02
    9079.388     86.028   4.920  9.80924E-01  1.00680E+00 -2.58781E-02
    9080.894     87.533   4.960  9.69497E-01  1.00720E+00 -3.77023E-02
    9082.412     89.051   5.000  9.61255E-01  1.00758E+00 -4.63235E-02
    9083.942     90.581   5.040  9.56581E-01  1.00792E+00 -5.13401E-02
    9085.484     92.124   5.080  9.55618E-01  1.00823E+00 -5.26072E-02
    9087.039     93.678   5.120  9.58083E-01  1.00849E+00 -5.04081E-02
    9088.605     95.245   5.160  9.63164E-01  1.00874E+00 -4.55758E-02
    9090.184     96.824   5.200  9.69669E-01  1.00893E+00 -3.92576E-02
    9091.775     98.415   5.240  9.76412E-01  1.00909E+00 -3.26818E-02
    9093.378    100.018   5.280  9.82330E-01  1.00920E+00 -2.68700E-02
    9094.994    101.633   5.320  9.86595E-01  1.00929E+00 -2.26920E-02
    9096.621    103.261   5.360  9.88301E-01  1.00933E+00 -2.10309E-02
    9098.261    104.901   5.400  9.86553E-01  1.00931E+00 -2.27605E-02
    9099.913    106.553   5.440  9.81145E-01  1.00928E+00 -2.81318E-02
    9101.578    108.217   5.480  9.73015E-01  1.00920E+00 -3.61829E-02
    9103.254    109.893   5.520  9.64120E-01  1.00906E+00 -4.49364E-02
    9104.943    111.582   5.560  9.56525E-01  1.00890E+00 -5.23741E-02
    9106.643    113.283   5.600  9.51516E-01  1.00870E+00 -5.71859E-02
    9108.356    114.996   5.640  9.49553E-01  1.00846E+00 -5.89100E-02
    9110.081    116.721   5.680  9.50738E-01  1.00819E+00 -5.74494E-02
    9111.819    118.458   5.720  9.55047E-01  1.00787E+00 -5.28257E-02
    9113.568    120.208   5.760  9.62451E-01  1.00752E+00 -4.50687E-02
    9115.330    121.969   5.800  9.72801E-01  1.00716E+00 -3.43542E-02
    9117.104    123.743   5.840  9.85480E-01  1.00673E+00 -2.12531E-02
    9118.890    125.529   5.880  9.99306E-01  1.00630E+00 -6.99681E-03
    9120.688    127.328   5.920  1.01241E+00  1.00587E+00  6.53728E-03
    9122.499    129.138   5.960  1.02252E+00  1.00541E+00  1.71095E-02
    9124.322    130.961   6.000  1.02790E+00  1.00490E+00  2.30035E-02
