# # comment:                                                     FEFF 9.9.1  
# # Source:
# # Structure
# # Reduced
# # space
# # abc:
# # angles:111.293927
# # sites:
# # POT  SCF 100  7.0000   0, screened core-hole, AFOLP (folp(0)= 1.150)
# # Abs   Z=29 Rmt= 1.255 Rnm= 1.325 K  shell
# # Pot 1 Z= 3 Rmt= 1.323 Rnm= 1.386
# # Pot 2 Z=29 Rmt= 1.311 Rnm= 1.377
# # Pot 3 Z=15 Rmt= 0.941 Rnm= 1.155
# # Pot 4 Z= 8 Rmt= 0.915 Rnm= 1.042
# # Gam_ch=1.729E+00 H-L exch Vi= 0.000E+00 Vr= 0.000E+00
# # Mu=-5.968E+00eV kf=2.417E+00 Vint=-1.724E+01eV Rs_int= 1.500
# FMS rfms= 9.0000
# # PATH  Rmax=-1.000,  Keep_limit= 0.00, Heap_limit 0.00  Pwcrit= 2.50%
#  S02=0.950  Temp=   0.00  Debye_temp=   0.00  Global_sig2= 0.00000
#  Energy zero shift, vr, vi    0.00000E+00   0.00000E+00
#  Curved wave amplitude ratio filter   4.000%
#     file         sig2 tot  cw amp ratio   deg  nlegs   reff  inp sig2
#     0/   0 paths used
#  xsedge+ 50, used to normalize mu           2.4753E-04
#  -----------------------------------------------------------------------
#  omega    e    k    mu    mu0     chi     @#
    8983.545     -9.778  -1.000  4.81146E-02  5.55828E-02 -7.46827E-03
    8983.844     -9.479  -0.960  5.13676E-02  5.97086E-02 -8.34109E-03
    8984.131     -9.192  -0.920  5.49717E-02  6.43031E-02 -9.33141E-03
    8984.405     -8.918  -0.880  5.89792E-02  6.94362E-02 -1.04569E-02
    8984.667     -8.656  -0.840  6.34513E-02  7.51896E-02 -1.17383E-02
    8984.917     -8.406  -0.800  6.84586E-02  8.16582E-02 -1.31996E-02
    8985.155     -8.168  -0.760  7.40823E-02  8.89508E-02 -1.48685E-02
    8985.380     -7.943  -0.720  8.04142E-02  9.71909E-02 -1.67767E-02
    8985.594     -7.729  -0.680  8.75553E-02  1.06514E-01 -1.89590E-02
    8985.795     -7.528  -0.640  9.56122E-02  1.17065E-01 -2.14527E-02
    8985.984     -7.339  -0.600  1.04690E-01  1.28984E-01 -2.42940E-02
    8986.161     -7.162  -0.560  1.14881E-01  1.42394E-01 -2.75130E-02
    8986.325     -6.998  -0.520  1.26242E-01  1.57366E-01 -3.11246E-02
    8986.478     -6.845  -0.480  1.38771E-01  1.73888E-01 -3.51162E-02
    8986.618     -6.705  -0.440  1.52377E-01  1.91812E-01 -3.94346E-02
    8986.746     -6.577  -0.400  1.66849E-01  2.10824E-01 -4.39751E-02
    8986.862     -6.461  -0.360  1.81846E-01  2.30428E-01 -4.85822E-02
    8986.965     -6.358  -0.320  1.96912E-01  2.49978E-01 -5.30665E-02
    8987.057     -6.266  -0.280  2.11524E-01  2.68761E-01 -5.72364E-02
    8987.136     -6.187  -0.240  2.25155E-01  2.86089E-01 -6.09336E-02
    8987.203     -6.120  -0.200  2.37336E-01  3.01392E-01 -6.40560E-02
    8987.258     -6.065  -0.160  2.47693E-01  3.14253E-01 -6.65603E-02
    8987.301     -6.022  -0.120  2.55964E-01  3.24411E-01 -6.84471E-02
    8987.331     -5.992  -0.080  2.61981E-01  3.31723E-01 -6.97419E-02
    8987.355     -5.968   0.000  2.66880E-01  3.37594E-01 -7.07133E-02
    8987.410     -5.913   0.120  2.77615E-01  3.50822E-01 -7.32070E-02
    8987.453     -5.870   0.160  2.86055E-01  3.61086E-01 -7.50308E-02
    8987.508     -5.815   0.200  2.96928E-01  3.74180E-01 -7.72522E-02
    8987.575     -5.748   0.240  3.10141E-01  3.89887E-01 -7.97461E-02
    8987.654     -5.669   0.280  3.25462E-01  4.07867E-01 -8.24055E-02
    8987.746     -5.577   0.320  3.42507E-01  4.27626E-01 -8.51189E-02
    8987.849     -5.474   0.360  3.60700E-01  4.48556E-01 -8.78567E-02
    8987.965     -5.358   0.400  3.79268E-01  4.69997E-01 -9.07291E-02
    8988.093     -5.230   0.440  3.97371E-01  4.91379E-01 -9.40080E-02
    8988.233     -5.090   0.480  4.14063E-01  5.12210E-01 -9.81473E-02
    8988.386     -4.937   0.520  4.28393E-01  5.32225E-01 -1.03832E-01
    8988.550     -4.773   0.560  4.39320E-01  5.51252E-01 -1.11932E-01
    8988.727     -4.596   0.600  4.45992E-01  5.69299E-01 -1.23307E-01
    8988.916     -4.407   0.640  4.48145E-01  5.86414E-01 -1.38269E-01
    8989.117     -4.206   0.680  4.46513E-01  6.02685E-01 -1.56172E-01
    8989.330     -3.992   0.720  4.42744E-01  6.18239E-01 -1.75495E-01
    8989.556     -3.767   0.760  4.38789E-01  6.33182E-01 -1.94394E-01
    8989.794     -3.529   0.800  4.36161E-01  6.47628E-01 -2.11467E-01
    8990.044     -3.279   0.840  4.35658E-01  6.61659E-01 -2.26001E-01
    8990.306     -3.017   0.880  4.38099E-01  6.75342E-01 -2.37244E-01
    8990.580     -2.743   0.920  4.44892E-01  6.88729E-01 -2.43837E-01
    8990.867     -2.456   0.960  4.57147E-01  7.01878E-01 -2.44731E-01
    8991.165     -2.158   1.000  4.74041E-01  7.14817E-01 -2.40776E-01
    8991.476     -1.847   1.040  4.92972E-01  7.27564E-01 -2.34591E-01
    8991.799     -1.524   1.080  5.11979E-01  7.40126E-01 -2.28147E-01
    8992.135     -1.188   1.120  5.31081E-01  7.52527E-01 -2.21446E-01
    8992.482     -0.841   1.160  5.50861E-01  7.64762E-01 -2.13901E-01
    8992.842     -0.481   1.200  5.70176E-01  7.76822E-01 -2.06646E-01
    8993.214     -0.109   1.240  5.87590E-01  7.88694E-01 -2.01104E-01
    8993.598      0.275   1.280  6.04295E-01  8.00363E-01 -1.96068E-01
    8993.994      0.671   1.320  6.22536E-01  8.11829E-01 -1.89294E-01
    8994.402      1.079   1.360  6.44775E-01  8.23073E-01 -1.78297E-01
    8994.823      1.500   1.400  6.77448E-01  8.34073E-01 -1.56625E-01
    8995.256      1.933   1.440  7.28596E-01  8.44825E-01 -1.16229E-01
    8995.701      2.378   1.480  7.99071E-01  8.55305E-01 -5.62338E-02
    8996.158      2.835   1.520  8.81053E-01  8.65490E-01  1.55627E-02
    8996.627      3.304   1.560  9.60510E-01  8.75375E-01  8.51352E-02
    8997.109      3.786   1.600  1.02783E+00  8.84936E-01  1.42890E-01
    8997.603      4.280   1.640  1.09073E+00  8.94168E-01  1.96561E-01
    8998.109      4.786   1.680  1.16238E+00  9.03048E-01  2.59337E-01
    8998.627      5.304   1.720  1.23913E+00  9.11592E-01  3.27543E-01
    8999.157      5.834   1.760  1.30125E+00  9.19758E-01  3.81490E-01
    8999.700      6.377   1.800  1.34073E+00  9.27563E-01  4.13165E-01
    9000.254      6.932   1.840  1.36350E+00  9.34985E-01  4.28515E-01
    9000.821      7.498   1.880  1.36799E+00  9.42022E-01  4.25971E-01
    9001.401      8.078   1.920  1.34435E+00  9.48677E-01  3.95678E-01
    9001.992      8.669   1.960  1.29435E+00  9.54948E-01  3.39401E-01
    9002.595      9.272   2.000  1.23511E+00  9.60838E-01  2.74273E-01
    9003.211      9.888   2.040  1.18247E+00  9.66348E-01  2.16120E-01
    9003.839     10.516   2.080  1.14150E+00  9.71480E-01  1.70024E-01
    9004.479     11.156   2.120  1.11239E+00  9.76238E-01  1.36148E-01
    9005.131     11.808   2.160  1.09744E+00  9.80647E-01  1.16796E-01
    9005.796     12.473   2.200  1.09412E+00  9.84668E-01  1.09456E-01
    9006.472     13.149   2.240  1.09314E+00  9.88367E-01  1.04769E-01
    9007.161     13.838   2.280  1.08648E+00  9.91711E-01  9.47705E-02
    9007.862     14.539   2.320  1.07362E+00  9.94724E-01  7.89009E-02
    9008.575     15.253   2.360  1.06073E+00  9.97413E-01  6.33221E-02
    9009.301     15.978   2.400  1.05458E+00  9.99824E-01  5.47575E-02
    9010.039     16.716   2.440  1.05729E+00  1.00192E+00  5.53694E-02
    9010.788     17.465   2.480  1.06692E+00  1.00374E+00  6.31789E-02
    9011.550     18.227   2.520  1.07934E+00  1.00530E+00  7.40413E-02
    9012.324     19.002   2.560  1.08926E+00  1.00661E+00  8.26516E-02
    9013.111     19.788   2.600  1.09315E+00  1.00768E+00  8.54724E-02
    9013.909     20.587   2.640  1.09103E+00  1.00853E+00  8.25011E-02
    9014.720     21.397   2.680  1.08486E+00  1.00917E+00  7.56905E-02
    9015.543     22.220   2.720  1.07541E+00  1.00961E+00  6.57980E-02
    9016.378     23.055   2.760  1.06040E+00  1.00986E+00  5.05388E-02
    9017.226     23.903   2.800  1.03672E+00  1.00997E+00  2.67580E-02
    9018.085     24.762   2.840  1.00587E+00  1.00991E+00 -4.03805E-03
    9018.957     25.634   2.880  9.76326E-01  1.00970E+00 -3.33734E-02
    9019.841     26.518   2.920  9.50623E-01  1.00938E+00 -5.87608E-02
    9020.737     27.414   2.960  9.28993E-01  1.00893E+00 -7.99360E-02
    9021.645     28.322   3.000  9.10708E-01  1.00840E+00 -9.76930E-02
    9022.566     29.243   3.040  8.95079E-01  1.00777E+00 -1.12687E-01
    9023.498     30.176   3.080  8.81474E-01  1.00705E+00 -1.25573E-01
    9024.443     31.120   3.120  8.69685E-01  1.00625E+00 -1.36569E-01
    9025.400     32.077   3.160  8.59988E-01  1.00543E+00 -1.45442E-01
    9026.370     33.047   3.200  8.52508E-01  1.00454E+00 -1.52032E-01
    9027.351     34.028   3.240  8.47521E-01  1.00361E+00 -1.56086E-01
    9028.345     35.022   3.280  8.45653E-01  1.00264E+00 -1.56985E-01
    9029.351     36.028   3.320  8.47229E-01  1.00166E+00 -1.54430E-01
    9030.369     37.046   3.360  8.52445E-01  1.00067E+00 -1.48226E-01
    9031.399     38.076   3.400  8.61215E-01  9.99680E-01 -1.38464E-01
    9032.441     39.118   3.440  8.73045E-01  9.98667E-01 -1.25622E-01
    9033.496     40.173   3.480  8.87174E-01  9.97677E-01 -1.10503E-01
    9034.563     41.240   3.520  9.02745E-01  9.96713E-01 -9.39688E-02
    9035.642     42.319   3.560  9.18842E-01  9.95738E-01 -7.68965E-02
    9036.733     43.410   3.600  9.34546E-01  9.94814E-01 -6.02675E-02
    9037.836     44.513   3.640  9.49195E-01  9.93903E-01 -4.47082E-02
    9038.952     45.629   3.680  9.62575E-01  9.93030E-01 -3.04549E-02
    9040.079     46.757   3.720  9.74738E-01  9.92195E-01 -1.74573E-02
    9041.219     47.897   3.760  9.85988E-01  9.91421E-01 -5.43249E-03
    9042.372     49.049   3.800  9.96675E-01  9.90666E-01  6.00893E-03
    9043.536     50.213   3.840  1.00703E+00  9.89953E-01  1.70780E-02
    9044.712     51.390   3.880  1.01703E+00  9.89305E-01  2.77276E-02
    9045.901     52.578   3.920  1.02639E+00  9.88702E-01  3.76919E-02
    9047.102     53.779   3.960  1.03470E+00  9.88143E-01  4.65569E-02
    9048.315     54.992   4.000  1.04149E+00  9.87652E-01  5.38394E-02
    9049.540     56.218   4.040  1.04654E+00  9.87208E-01  5.93323E-02
    9050.778     57.455   4.080  1.04988E+00  9.86831E-01  6.30516E-02
    9052.028     58.705   4.120  1.05165E+00  9.86480E-01  6.51699E-02
    9053.289     59.967   4.160  1.05221E+00  9.86216E-01  6.59944E-02
    9054.563     61.241   4.200  1.05195E+00  9.85978E-01  6.59705E-02
    9055.850     62.527   4.240  1.05131E+00  9.85807E-01  6.55069E-02
    9057.148     63.825   4.280  1.05063E+00  9.85682E-01  6.49465E-02
    9058.459     65.136   4.320  1.05024E+00  9.85624E-01  6.46196E-02
    9059.782     66.459   4.360  1.05032E+00  9.85611E-01  6.47096E-02
    9061.117     67.794   4.400  1.05083E+00  9.85641E-01  6.51856E-02
    9062.464     69.141   4.440  1.05149E+00  9.85714E-01  6.57761E-02
    9063.823     70.500   4.480  1.05186E+00  9.85850E-01  6.60089E-02
    9065.195     71.872   4.520  1.05137E+00  9.86007E-01  6.53592E-02
    9066.579     73.256   4.560  1.04966E+00  9.86224E-01  6.34357E-02
    9067.975     74.652   4.600  1.04655E+00  9.86459E-01  6.00890E-02
    9069.383     76.060   4.640  1.04208E+00  9.86753E-01  5.53288E-02
    9070.803     77.480   4.680  1.03639E+00  9.87062E-01  4.93282E-02
    9072.236     78.913   4.720  1.02972E+00  9.87404E-01  4.23148E-02
    9073.680     80.358   4.760  1.02222E+00  9.87758E-01  3.44577E-02
    9075.137     81.815   4.800  1.01413E+00  9.88165E-01  2.59621E-02
    9076.607     83.284   4.840  1.00566E+00  9.88562E-01  1.71004E-02
    9078.088     84.765   4.880  9.97181E-01  9.89009E-01  8.17141E-03
    9079.581     86.258   4.920  9.88919E-01  9.89439E-01 -5.20326E-04
    9081.087     87.764   4.960  9.81123E-01  9.89895E-01 -8.77260E-03
    9082.605     89.282   5.000  9.73817E-01  9.90355E-01 -1.65383E-02
    9084.135     90.812   5.040  9.66928E-01  9.90816E-01 -2.38881E-02
    9085.677     92.354   5.080  9.60391E-01  9.91276E-01 -3.08850E-02
    9087.232     93.909   5.120  9.54339E-01  9.91734E-01 -3.73946E-02
    9088.798     95.476   5.160  9.49027E-01  9.92189E-01 -4.31628E-02
    9090.377     97.054   5.200  9.44653E-01  9.92641E-01 -4.79880E-02
    9091.968     98.645   5.240  9.41208E-01  9.93064E-01 -5.18558E-02
    9093.572    100.249   5.280  9.38657E-01  9.93479E-01 -5.48225E-02
    9095.187    101.864   5.320  9.37109E-01  9.93888E-01 -5.67784E-02
    9096.815    103.492   5.360  9.36845E-01  9.94264E-01 -5.74194E-02
    9098.455    105.132   5.400  9.38217E-01  9.94628E-01 -5.64109E-02
    9100.107    106.784   5.440  9.41263E-01  9.94934E-01 -5.36712E-02
    9101.771    108.448   5.480  9.45758E-01  9.95227E-01 -4.94686E-02
    9103.447    110.124   5.520  9.51128E-01  9.95507E-01 -4.43788E-02
    9105.136    111.813   5.560  9.56709E-01  9.95728E-01 -3.90189E-02
    9106.836    113.514   5.600  9.62119E-01  9.95933E-01 -3.38145E-02
    9108.549    115.227   5.640  9.67136E-01  9.96101E-01 -2.89656E-02
    9110.275    116.952   5.680  9.71676E-01  9.96229E-01 -2.45537E-02
    9112.012    118.689   5.720  9.75728E-01  9.96317E-01 -2.05887E-02
    9113.762    120.439   5.760  9.79413E-01  9.96363E-01 -1.69506E-02
    9115.523    122.200   5.800  9.82930E-01  9.96346E-01 -1.34156E-02
    9117.297    123.974   5.840  9.86468E-01  9.96312E-01 -9.84382E-03
    9119.083    125.760   5.880  9.89917E-01  9.96240E-01 -6.32218E-03
    9120.882    127.559   5.920  9.93010E-01  9.96126E-01 -3.11587E-03
    9122.692    129.369   5.960  9.95443E-01  9.95944E-01 -5.01230E-04
    9124.515    131.192   6.000  9.97123E-01  9.95720E-01  1.40281E-03
