# # comment:                                                     FEFF 9.9.1  
# # Source:
# # Structure
# # Reduced
# # space
# # abc:
# # angles:
# # sites:
# # POT  SCF 100  7.0000   0, screened core-hole, AFOLP (folp(0)= 1.150)
# # Abs   Z=29 Rmt= 1.271 Rnm= 1.339 K  shell
# # Pot 1 Z= 3 Rmt= 1.299 Rnm= 1.352
# # Pot 2 Z=29 Rmt= 1.271 Rnm= 1.339
# # Pot 3 Z= 5 Rmt= 0.763 Rnm= 0.981
# # Pot 4 Z= 8 Rmt= 0.920 Rnm= 1.053
# # Gam_ch=1.729E+00 H-L exch Vi= 0.000E+00 Vr= 0.000E+00
# # Mu=-7.235E+00eV kf=2.348E+00 Vint=-1.758E+01eV Rs_int= 1.545
# FMS rfms= 9.0000
# # PATH  Rmax=-1.000,  Keep_limit= 0.00, Heap_limit 0.00  Pwcrit= 2.50%
#  S02=0.950  Temp=   0.00  Debye_temp=   0.00  Global_sig2= 0.00000
#  Energy zero shift, vr, vi    0.00000E+00   0.00000E+00
#  Curved wave amplitude ratio filter   4.000%
#     file         sig2 tot  cw amp ratio   deg  nlegs   reff  inp sig2
#     0/   0 paths used
#  xsedge+ 50, used to normalize mu           2.4765E-04
#  -----------------------------------------------------------------------
#  omega    e    k    mu    mu0     chi     @#
    8983.779    -11.045  -1.000  4.20748E-02  5.44263E-02 -1.23515E-02
    8984.078    -10.746  -0.960  4.44541E-02  5.84234E-02 -1.39693E-02
    8984.365    -10.459  -0.920  4.70280E-02  6.28704E-02 -1.58424E-02
    8984.639    -10.185  -0.880  4.98182E-02  6.78341E-02 -1.80159E-02
    8984.901     -9.923  -0.840  5.28487E-02  7.33924E-02 -2.05437E-02
    8985.151     -9.673  -0.800  5.61465E-02  7.96357E-02 -2.34892E-02
    8985.389     -9.435  -0.760  5.97412E-02  8.66677E-02 -2.69265E-02
    8985.614     -9.210  -0.720  6.36648E-02  9.46057E-02 -3.09409E-02
    8985.828     -8.996  -0.680  6.79510E-02  1.03579E-01 -3.56282E-02
    8986.029     -8.795  -0.640  7.26332E-02  1.13725E-01 -4.10918E-02
    8986.218     -8.606  -0.600  7.77417E-02  1.25177E-01 -4.74358E-02
    8986.395     -8.429  -0.560  8.32987E-02  1.38052E-01 -5.47530E-02
    8986.559     -8.265  -0.520  8.93111E-02  1.52416E-01 -6.31053E-02
    8986.712     -8.112  -0.480  9.57610E-02  1.68258E-01 -7.24966E-02
    8986.852     -7.972  -0.440  1.02595E-01  1.85436E-01 -8.28411E-02
    8986.980     -7.844  -0.400  1.09713E-01  2.03650E-01 -9.39366E-02
    8987.096     -7.728  -0.360  1.16970E-01  2.22427E-01 -1.05457E-01
    8987.199     -7.625  -0.320  1.24175E-01  2.41151E-01 -1.16976E-01
    8987.291     -7.533  -0.280  1.31116E-01  2.59141E-01 -1.28025E-01
    8987.370     -7.454  -0.240  1.37578E-01  2.75741E-01 -1.38163E-01
    8987.437     -7.387  -0.200  1.43365E-01  2.90404E-01 -1.47039E-01
    8987.492     -7.332  -0.160  1.48314E-01  3.02732E-01 -1.54417E-01
    8987.535     -7.289  -0.120  1.52299E-01  3.12472E-01 -1.60172E-01
    8987.565     -7.259  -0.080  1.55226E-01  3.19486E-01 -1.64259E-01
    8987.589     -7.235   0.000  1.57646E-01  3.25119E-01 -1.67474E-01
    8987.644     -7.180   0.120  1.63062E-01  3.37804E-01 -1.74742E-01
    8987.687     -7.137   0.160  1.67325E-01  3.47667E-01 -1.80342E-01
    8987.742     -7.082   0.200  1.72900E-01  3.60233E-01 -1.87333E-01
    8987.809     -7.015   0.240  1.79893E-01  3.75341E-01 -1.95448E-01
    8987.888     -6.936   0.280  1.88380E-01  3.92653E-01 -2.04273E-01
    8987.980     -6.844   0.320  1.98523E-01  4.11707E-01 -2.13184E-01
    8988.083     -6.741   0.360  2.10532E-01  4.31915E-01 -2.21383E-01
    8988.199     -6.625   0.400  2.24729E-01  4.52690E-01 -2.27961E-01
    8988.327     -6.497   0.440  2.41492E-01  4.73480E-01 -2.31988E-01
    8988.467     -6.357   0.480  2.61166E-01  4.93821E-01 -2.32655E-01
    8988.620     -6.204   0.520  2.83759E-01  5.13440E-01 -2.29681E-01
    8988.784     -6.040   0.560  3.08545E-01  5.32214E-01 -2.23669E-01
    8988.961     -5.863   0.600  3.33613E-01  5.50113E-01 -2.16500E-01
    8989.150     -5.674   0.640  3.56280E-01  5.67219E-01 -2.10940E-01
    8989.351     -5.473   0.680  3.74238E-01  5.83575E-01 -2.09336E-01
    8989.564     -5.260   0.720  3.87039E-01  5.99315E-01 -2.12276E-01
    8989.790     -5.034   0.760  3.96397E-01  6.14540E-01 -2.18142E-01
    8990.028     -4.796   0.800  4.05909E-01  6.29334E-01 -2.23426E-01
    8990.278     -4.546   0.840  4.19962E-01  6.43792E-01 -2.23830E-01
    8990.540     -4.284   0.880  4.40154E-01  6.57951E-01 -2.17797E-01
    8990.814     -4.010   0.920  4.61446E-01  6.71899E-01 -2.10452E-01
    8991.101     -3.723   0.960  4.74488E-01  6.85627E-01 -2.11139E-01
    8991.399     -3.425   1.000  4.76518E-01  6.99199E-01 -2.22681E-01
    8991.710     -3.114   1.040  4.75467E-01  7.12606E-01 -2.37139E-01
    8992.033     -2.791   1.080  4.78126E-01  7.25872E-01 -2.47746E-01
    8992.369     -2.455   1.120  4.81396E-01  7.38974E-01 -2.57578E-01
    8992.716     -2.108   1.160  4.84118E-01  7.51925E-01 -2.67807E-01
    8993.076     -1.748   1.200  4.96764E-01  7.64713E-01 -2.67949E-01
    8993.448     -1.376   1.240  5.30142E-01  7.77321E-01 -2.47179E-01
    8993.832     -0.992   1.280  5.83304E-01  7.89730E-01 -2.06426E-01
    8994.228     -0.596   1.320  6.44926E-01  8.01918E-01 -1.56992E-01
    8994.636     -0.188   1.360  7.09371E-01  8.13884E-01 -1.04513E-01
    8995.057      0.233   1.400  7.86538E-01  8.25582E-01 -3.90439E-02
    8995.490      0.666   1.440  8.90869E-01  8.37028E-01  5.38401E-02
    8995.935      1.111   1.480  1.02421E+00  8.48177E-01  1.76029E-01
    8996.392      1.568   1.520  1.16618E+00  8.59000E-01  3.07175E-01
    8996.861      2.037   1.560  1.28487E+00  8.69512E-01  4.15357E-01
    8997.343      2.519   1.600  1.35363E+00  8.79670E-01  4.73965E-01
    8997.837      3.013   1.640  1.37012E+00  8.89466E-01  4.80650E-01
    8998.343      3.519   1.680  1.34608E+00  8.98897E-01  4.47187E-01
    8998.861      4.037   1.720  1.28922E+00  9.07937E-01  3.81281E-01
    8999.391      4.567   1.760  1.22669E+00  9.16584E-01  3.10107E-01
    8999.934      5.110   1.800  1.17754E+00  9.24814E-01  2.52725E-01
    9000.488      5.664   1.840  1.12820E+00  9.32648E-01  1.95551E-01
    9001.055      6.231   1.880  1.07821E+00  9.40062E-01  1.38144E-01
    9001.635      6.811   1.920  1.05025E+00  9.47057E-01  1.03189E-01
    9002.226      7.402   1.960  1.04596E+00  9.53654E-01  9.23013E-02
    9002.829      8.005   2.000  1.04322E+00  9.59814E-01  8.34092E-02
    9003.445      8.621   2.040  1.03490E+00  9.65580E-01  6.93211E-02
    9004.073      9.249   2.080  1.03301E+00  9.70914E-01  6.20980E-02
    9004.713      9.889   2.120  1.03673E+00  9.75882E-01  6.08510E-02
    9005.365     10.541   2.160  1.03581E+00  9.80446E-01  5.53640E-02
    9006.030     11.206   2.200  1.03186E+00  9.84612E-01  4.72515E-02
    9006.706     11.882   2.240  1.03346E+00  9.88426E-01  4.50310E-02
    9007.395     12.571   2.280  1.04842E+00  9.91875E-01  5.65490E-02
    9008.096     13.272   2.320  1.08300E+00  9.94964E-01  8.80320E-02
    9008.809     13.985   2.360  1.13297E+00  9.97740E-01  1.35234E-01
    9009.535     14.711   2.400  1.18152E+00  1.00017E+00  1.81346E-01
    9010.273     15.449   2.440  1.21406E+00  1.00233E+00  2.11732E-01
    9011.022     16.198   2.480  1.22391E+00  1.00417E+00  2.19744E-01
    9011.784     16.960   2.520  1.20513E+00  1.00573E+00  1.99398E-01
    9012.559     17.735   2.560  1.15705E+00  1.00704E+00  1.50011E-01
    9013.345     18.521   2.600  1.09042E+00  1.00812E+00  8.22969E-02
    9014.143     19.319   2.640  1.02879E+00  1.00894E+00  1.98438E-02
    9014.954     20.130   2.680  9.88490E-01  1.00957E+00 -2.10840E-02
    9015.777     20.953   2.720  9.67088E-01  1.00998E+00 -4.28946E-02
    9016.612     21.788   2.760  9.56940E-01  1.01022E+00 -5.32768E-02
    9017.460     22.636   2.800  9.48148E-01  1.01028E+00 -6.21359E-02
    9018.319     23.495   2.840  9.36754E-01  1.01021E+00 -7.34559E-02
    9019.191     24.367   2.880  9.22757E-01  1.00996E+00 -8.72053E-02
    9020.075     25.251   2.920  9.08393E-01  1.00961E+00 -1.01217E-01
    9020.971     26.147   2.960  8.95749E-01  1.00914E+00 -1.13390E-01
    9021.879     27.055   3.000  8.86124E-01  1.00857E+00 -1.22451E-01
    9022.800     27.976   3.040  8.79813E-01  1.00790E+00 -1.28090E-01
    9023.732     28.908   3.080  8.76548E-01  1.00717E+00 -1.30624E-01
    9024.677     29.853   3.120  8.75881E-01  1.00636E+00 -1.30483E-01
    9025.634     30.810   3.160  8.77331E-01  1.00549E+00 -1.28155E-01
    9026.604     31.780   3.200  8.80084E-01  1.00458E+00 -1.24501E-01
    9027.585     32.761   3.240  8.83481E-01  1.00364E+00 -1.20163E-01
    9028.579     33.755   3.280  8.86948E-01  1.00267E+00 -1.15720E-01
    9029.585     34.761   3.320  8.89917E-01  1.00166E+00 -1.11743E-01
    9030.603     35.779   3.360  8.92315E-01  1.00067E+00 -1.08352E-01
    9031.633     36.809   3.400  8.94732E-01  9.99651E-01 -1.04919E-01
    9032.675     37.851   3.440  8.98309E-01  9.98657E-01 -1.00348E-01
    9033.730     38.906   3.480  9.04153E-01  9.97667E-01 -9.35138E-02
    9034.797     39.973   3.520  9.13149E-01  9.96683E-01 -8.35341E-02
    9035.876     41.052   3.560  9.25650E-01  9.95730E-01 -7.00803E-02
    9036.967     42.143   3.600  9.41336E-01  9.94811E-01 -5.34751E-02
    9038.070     43.246   3.640  9.59371E-01  9.93927E-01 -3.45556E-02
    9039.186     44.362   3.680  9.78536E-01  9.93058E-01 -1.45223E-02
    9040.313     45.489   3.720  9.97399E-01  9.92228E-01  5.17136E-03
    9041.453     46.629   3.760  1.01457E+00  9.91460E-01  2.31075E-02
    9042.606     47.782   3.800  1.02886E+00  9.90732E-01  3.81254E-02
    9043.770     48.946   3.840  1.03939E+00  9.90025E-01  4.93612E-02
    9044.946     50.122   3.880  1.04599E+00  9.89385E-01  5.66014E-02
    9046.135     51.311   3.920  1.04925E+00  9.88811E-01  6.04377E-02
    9047.336     52.512   3.960  1.05030E+00  9.88284E-01  6.20190E-02
    9048.549     53.725   4.000  1.05045E+00  9.87800E-01  6.26472E-02
    9049.774     54.950   4.040  1.05086E+00  9.87362E-01  6.34949E-02
    9051.012     56.188   4.080  1.05227E+00  9.86991E-01  6.52833E-02
    9052.262     57.438   4.120  1.05484E+00  9.86667E-01  6.81717E-02
    9053.523     58.699   4.160  1.05822E+00  9.86409E-01  7.18101E-02
    9054.798     59.974   4.200  1.06169E+00  9.86176E-01  7.55149E-02
    9056.084     61.260   4.240  1.06447E+00  9.86032E-01  7.84355E-02
    9057.382     62.558   4.280  1.06569E+00  9.85911E-01  7.97818E-02
    9058.693     63.869   4.320  1.06491E+00  9.85855E-01  7.90557E-02
    9060.016     65.192   4.360  1.06187E+00  9.85844E-01  7.60220E-02
    9061.351     66.527   4.400  1.05657E+00  9.85874E-01  7.06987E-02
    9062.698     67.874   4.440  1.04935E+00  9.85946E-01  6.34000E-02
    9064.057     69.233   4.480  1.04072E+00  9.86082E-01  5.46393E-02
    9065.429     70.605   4.520  1.03125E+00  9.86235E-01  4.50103E-02
    9066.813     71.989   4.560  1.02156E+00  9.86428E-01  3.51337E-02
    9068.209     73.385   4.600  1.01222E+00  9.86680E-01  2.55377E-02
    9069.617     74.793   4.640  1.00353E+00  9.86947E-01  1.65850E-02
    9071.037     76.213   4.680  9.95774E-01  9.87248E-01  8.52616E-03
    9072.470     77.646   4.720  9.89013E-01  9.87560E-01  1.45317E-03
    9073.914     79.090   4.760  9.83187E-01  9.87905E-01 -4.71717E-03
    9075.371     80.547   4.800  9.78095E-01  9.88281E-01 -1.01860E-02
    9076.841     82.017   4.840  9.73465E-01  9.88667E-01 -1.52025E-02
    9078.322     83.498   4.880  9.69203E-01  9.89081E-01 -1.98781E-02
    9079.815     84.991   4.920  9.65441E-01  9.89500E-01 -2.40586E-02
    9081.321     86.497   4.960  9.62491E-01  9.89919E-01 -2.74288E-02
    9082.839     88.015   5.000  9.60695E-01  9.90340E-01 -2.96449E-02
    9084.369     89.545   5.040  9.60133E-01  9.90761E-01 -3.06281E-02
    9085.911     91.087   5.080  9.60454E-01  9.91181E-01 -3.07274E-02
    9087.466     92.642   5.120  9.61010E-01  9.91599E-01 -3.05880E-02
    9089.033     94.209   5.160  9.61054E-01  9.92013E-01 -3.09590E-02
    9090.611     95.787   5.200  9.60026E-01  9.92422E-01 -3.23965E-02
    9092.202     97.378   5.240  9.57578E-01  9.92803E-01 -3.52244E-02
    9093.806     98.982   5.280  9.53728E-01  9.93174E-01 -3.94453E-02
    9095.421    100.597   5.320  9.48836E-01  9.93514E-01 -4.46781E-02
    9097.049    102.225   5.360  9.43663E-01  9.93843E-01 -5.01802E-02
    9098.689    103.865   5.400  9.39168E-01  9.94141E-01 -5.49727E-02
    9100.341    105.517   5.440  9.36355E-01  9.94426E-01 -5.80712E-02
    9102.005    107.181   5.480  9.35971E-01  9.94677E-01 -5.87067E-02
    9103.681    108.857   5.520  9.38451E-01  9.94892E-01 -5.64408E-02
    9105.370    110.546   5.560  9.43907E-01  9.95091E-01 -5.11846E-02
    9107.070    112.246   5.600  9.52032E-01  9.95230E-01 -4.31980E-02
    9108.783    113.959   5.640  9.62244E-01  9.95352E-01 -3.31072E-02
    9110.509    115.685   5.680  9.73517E-01  9.95413E-01 -2.18957E-02
    9112.246    117.422   5.720  9.84741E-01  9.95457E-01 -1.07155E-02
    9113.996    119.172   5.760  9.94929E-01  9.95463E-01 -5.34755E-04
    9115.757    120.933   5.800  1.00357E+00  9.95432E-01  8.14212E-03
    9117.531    122.707   5.840  1.01064E+00  9.95362E-01  1.52828E-02
    9119.317    124.493   5.880  1.01633E+00  9.95252E-01  2.10801E-02
    9121.116    126.292   5.920  1.02078E+00  9.95104E-01  2.56787E-02
    9122.926    128.102   5.960  1.02398E+00  9.94914E-01  2.90655E-02
    9124.749    129.925   6.000  1.02572E+00  9.94661E-01  3.10602E-02
