# # comment:                                                     FEFF 9.9.1  
# # Source:
# # Structure
# # Reduced
# # space
# # abc:
# # angles:
# # sites:
# # POT  SCF 100  7.0000   0, screened core-hole, AFOLP (folp(0)= 1.150)
# # Abs   Z=29 Rmt= 1.167 Rnm= 1.264 K  shell
# # Pot 1 Z=39 Rmt= 1.678 Rnm= 1.720
# # Pot 2 Z=24 Rmt= 1.284 Rnm= 1.394
# # Pot 3 Z=29 Rmt= 1.170 Rnm= 1.266
# # Pot 4 Z= 8 Rmt= 1.017 Rnm= 1.090
# # Gam_ch=1.729E+00 H-L exch Vi= 0.000E+00 Vr= 0.000E+00
# # Mu=-9.923E+00eV kf=2.213E+00 Vint=-1.873E+01eV Rs_int= 1.639
# FMS rfms= 9.0000
# # PATH  Rmax=-1.000,  Keep_limit= 0.00, Heap_limit 0.00  Pwcrit= 2.50%
#  S02=0.950  Temp=   0.00  Debye_temp=   0.00  Global_sig2= 0.00000
#  Energy zero shift, vr, vi    0.00000E+00   0.00000E+00
#  Curved wave amplitude ratio filter   4.000%
#     file         sig2 tot  cw amp ratio   deg  nlegs   reff  inp sig2
#     0/   0 paths used
#  xsedge+ 50, used to normalize mu           2.4824E-04
#  -----------------------------------------------------------------------
#  omega    e    k    mu    mu0     chi     @#
    8984.661    -13.733  -1.000  3.53061E-02  5.14592E-02 -1.61531E-02
    8984.960    -13.434  -0.960  3.70898E-02  5.51339E-02 -1.80442E-02
    8985.246    -13.148  -0.920  3.90011E-02  5.92125E-02 -2.02114E-02
    8985.521    -12.873  -0.880  4.10530E-02  6.37541E-02 -2.27012E-02
    8985.783    -12.611  -0.840  4.32597E-02  6.88275E-02 -2.55678E-02
    8986.033    -12.361  -0.800  4.56377E-02  7.45124E-02 -2.88747E-02
    8986.270    -12.124  -0.760  4.82051E-02  8.09002E-02 -3.26951E-02
    8986.496    -11.898  -0.720  5.09819E-02  8.80940E-02 -3.71121E-02
    8986.709    -11.685  -0.680  5.39896E-02  9.62075E-02 -4.22179E-02
    8986.910    -11.483  -0.640  5.72498E-02  1.05360E-01 -4.81106E-02
    8987.099    -11.295  -0.600  6.07827E-02  1.15671E-01 -5.48879E-02
    8987.276    -11.118  -0.560  6.46024E-02  1.27238E-01 -6.26357E-02
    8987.441    -10.953  -0.520  6.87118E-02  1.40122E-01 -7.14104E-02
    8987.593    -10.801  -0.480  7.30945E-02  1.54309E-01 -8.12146E-02
    8987.733    -10.661  -0.440  7.77055E-02  1.69674E-01 -9.19688E-02
    8987.861    -10.533  -0.400  8.24645E-02  1.85951E-01 -1.03487E-01
    8987.977    -10.417  -0.360  8.72544E-02  2.02722E-01 -1.15467E-01
    8988.081    -10.313  -0.320  9.19309E-02  2.19441E-01 -1.27510E-01
    8988.172    -10.222  -0.280  9.63410E-02  2.35507E-01 -1.39166E-01
    8988.252    -10.142  -0.240  1.00346E-01  2.50336E-01 -1.49991E-01
    8988.319    -10.075  -0.200  1.03836E-01  2.63443E-01 -1.59607E-01
    8988.374    -10.020  -0.160  1.06741E-01  2.74471E-01 -1.67730E-01
    8988.416     -9.978  -0.120  1.09020E-01  2.83190E-01 -1.74170E-01
    8988.447     -9.947  -0.080  1.10654E-01  2.89472E-01 -1.78818E-01
    8988.471     -9.923   0.000  1.11965E-01  2.94520E-01 -1.82556E-01
    8988.526     -9.868   0.120  1.14949E-01  3.05904E-01 -1.90955E-01
    8988.569     -9.825   0.160  1.17227E-01  3.14763E-01 -1.97536E-01
    8988.623     -9.771   0.200  1.20094E-01  3.26072E-01 -2.05978E-01
    8988.691     -9.703   0.240  1.23525E-01  3.39680E-01 -2.16155E-01
    8988.770     -9.624   0.280  1.27483E-01  3.55322E-01 -2.27839E-01
    8988.861     -9.533   0.320  1.31930E-01  3.72587E-01 -2.40658E-01
    8988.965     -9.429   0.360  1.36916E-01  3.91010E-01 -2.54094E-01
    8989.081     -9.313   0.400  1.42653E-01  4.10074E-01 -2.67421E-01
    8989.209     -9.185   0.440  1.49407E-01  4.29268E-01 -2.79861E-01
    8989.349     -9.045   0.480  1.57701E-01  4.48245E-01 -2.90545E-01
    8989.501     -8.893   0.520  1.68150E-01  4.66777E-01 -2.98627E-01
    8989.666     -8.728   0.560  1.81238E-01  4.84714E-01 -3.03476E-01
    8989.843     -8.551   0.600  1.97210E-01  5.02051E-01 -3.04840E-01
    8990.032     -8.362   0.640  2.15685E-01  5.18838E-01 -3.03153E-01
    8990.233     -8.161   0.680  2.35513E-01  5.35142E-01 -2.99629E-01
    8990.446     -7.948   0.720  2.55369E-01  5.51042E-01 -2.95672E-01
    8990.672     -7.722   0.760  2.74730E-01  5.66656E-01 -2.91926E-01
    8990.909     -7.485   0.800  2.94287E-01  5.82013E-01 -2.87726E-01
    8991.159     -7.235   0.840  3.15653E-01  5.97189E-01 -2.81536E-01
    8991.421     -6.972   0.880  3.40889E-01  6.12247E-01 -2.71359E-01
    8991.696     -6.698   0.920  3.71645E-01  6.27200E-01 -2.55555E-01
    8991.982     -6.412   0.960  4.07109E-01  6.42088E-01 -2.34979E-01
    8992.281     -6.113   1.000  4.44960E-01  6.56902E-01 -2.11941E-01
    8992.592     -5.802   1.040  4.90858E-01  6.71642E-01 -1.80784E-01
    8992.915     -5.479   1.080  5.60862E-01  6.86345E-01 -1.25483E-01
    8993.250     -5.144   1.120  6.63808E-01  7.00940E-01 -3.71323E-02
    8993.598     -4.796   1.160  7.72429E-01  7.15451E-01  5.69781E-02
    8993.957     -4.437   1.200  8.17702E-01  7.29858E-01  8.78440E-02
    8994.329     -4.065   1.240  7.60757E-01  7.44117E-01  1.66396E-02
    8994.713     -3.681   1.280  6.46277E-01  7.58204E-01 -1.11926E-01
    8995.110     -3.284   1.320  5.40138E-01  7.72090E-01 -2.31952E-01
    8995.518     -2.876   1.360  4.75516E-01  7.85767E-01 -3.10251E-01
    8995.939     -2.455   1.400  4.55368E-01  7.99184E-01 -3.43816E-01
    8996.371     -2.023   1.440  4.69631E-01  8.12331E-01 -3.42700E-01
    8996.816     -1.578   1.480  5.05110E-01  8.25159E-01 -3.20048E-01
    8997.274     -1.120   1.520  5.45426E-01  8.37656E-01 -2.92231E-01
    8997.743     -0.651   1.560  5.84607E-01  8.49794E-01 -2.65187E-01
    8998.225     -0.169   1.600  6.33523E-01  8.61541E-01 -2.28018E-01
    8998.718      0.324   1.640  6.88721E-01  8.72889E-01 -1.84169E-01
    8999.224      0.830   1.680  7.24731E-01  8.83833E-01 -1.59103E-01
    8999.743      1.349   1.720  7.39009E-01  8.94323E-01 -1.55314E-01
    9000.273      1.879   1.760  7.67444E-01  9.04354E-01 -1.36910E-01
    9000.815      2.421   1.800  8.27302E-01  9.13922E-01 -8.66204E-02
    9001.370      2.976   1.840  8.89637E-01  9.23044E-01 -3.34066E-02
    9001.937      3.543   1.880  9.13884E-01  9.31656E-01 -1.77719E-02
    9002.516      4.122   1.920  9.21775E-01  9.39799E-01 -1.80240E-02
    9003.107      4.714   1.960  9.66287E-01  9.47450E-01  1.88363E-02
    9003.711      5.317   2.000  1.05005E+00  9.54635E-01  9.54123E-02
    9004.327      5.933   2.040  1.12819E+00  9.61334E-01  1.66854E-01
    9004.955      6.561   2.080  1.17855E+00  9.67569E-01  2.10981E-01
    9005.595      7.201   2.120  1.23683E+00  9.73324E-01  2.63508E-01
    9006.247      7.853   2.160  1.32108E+00  9.78625E-01  3.42456E-01
    9006.911      8.517   2.200  1.42326E+00  9.83479E-01  4.39780E-01
    9007.588      9.194   2.240  1.50282E+00  9.87911E-01  5.14906E-01
    9008.277      9.883   2.280  1.50738E+00  9.91929E-01  5.15448E-01
    9008.978     10.584   2.320  1.46108E+00  9.95519E-01  4.65561E-01
    9009.691     11.297   2.360  1.41617E+00  9.98730E-01  4.17444E-01
    9010.417     12.023   2.400  1.37502E+00  1.00157E+00  3.73453E-01
    9011.154     12.760   2.440  1.31948E+00  1.00407E+00  3.15413E-01
    9011.904     13.510   2.480  1.25333E+00  1.00622E+00  2.47110E-01
    9012.666     14.272   2.520  1.19306E+00  1.00804E+00  1.85021E-01
    9013.440     15.046   2.560  1.14832E+00  1.00954E+00  1.38778E-01
    9014.227     15.833   2.600  1.11571E+00  1.01078E+00  1.04930E-01
    9015.025     16.631   2.640  1.08199E+00  1.01175E+00  7.02399E-02
    9015.836     17.442   2.680  1.04653E+00  1.01247E+00  3.40662E-02
    9016.659     18.265   2.720  1.01670E+00  1.01296E+00  3.73916E-03
    9017.494     19.100   2.760  9.97747E-01  1.01323E+00 -1.54879E-02
    9018.341     19.947   2.800  9.88531E-01  1.01332E+00 -2.47928E-02
    9019.201     20.807   2.840  9.84714E-01  1.01322E+00 -2.85055E-02
    9020.073     21.679   2.880  9.80669E-01  1.01295E+00 -3.22816E-02
    9020.956     22.563   2.920  9.72565E-01  1.01252E+00 -3.99579E-02
    9021.853     23.459   2.960  9.59641E-01  1.01197E+00 -5.23272E-02
    9022.761     24.367   3.000  9.43178E-01  1.01129E+00 -6.81130E-02
    9023.681     25.287   3.040  9.25133E-01  1.01052E+00 -8.53870E-02
    9024.614     26.220   3.080  9.07710E-01  1.00964E+00 -1.01931E-01
    9025.559     27.165   3.120  8.93047E-01  1.00870E+00 -1.15655E-01
    9026.516     28.122   3.160  8.82185E-01  1.00769E+00 -1.25501E-01
    9027.485     29.091   3.200  8.75418E-01  1.00660E+00 -1.31183E-01
    9028.467     30.073   3.240  8.72317E-01  1.00549E+00 -1.33174E-01
    9029.460     31.066   3.280  8.71482E-01  1.00432E+00 -1.32840E-01
    9030.466     32.072   3.320  8.71558E-01  1.00314E+00 -1.31582E-01
    9031.484     33.090   3.360  8.71832E-01  1.00195E+00 -1.30118E-01
    9032.514     34.120   3.400  8.72215E-01  1.00075E+00 -1.28539E-01
    9033.557     35.163   3.440  8.72641E-01  9.99536E-01 -1.26895E-01
    9034.611     36.218   3.480  8.73439E-01  9.98341E-01 -1.24902E-01
    9035.678     37.284   3.520  8.75204E-01  9.97151E-01 -1.21946E-01
    9036.757     38.363   3.560  8.78738E-01  9.95990E-01 -1.17252E-01
    9037.848     39.454   3.600  8.84922E-01  9.94841E-01 -1.09919E-01
    9038.952     40.558   3.640  8.94625E-01  9.93725E-01 -9.91009E-02
    9040.067     41.673   3.680  9.08435E-01  9.92646E-01 -8.42111E-02
    9041.195     42.801   3.720  9.26169E-01  9.91606E-01 -6.54374E-02
    9042.335     43.941   3.760  9.46691E-01  9.90607E-01 -4.39158E-02
    9043.487     45.093   3.800  9.67535E-01  9.89651E-01 -2.21157E-02
    9044.652     46.258   3.840  9.85388E-01  9.88760E-01 -3.37218E-03
    9045.828     47.434   3.880  9.97417E-01  9.87913E-01  9.50393E-03
    9047.017     48.623   3.920  1.00244E+00  9.87113E-01  1.53281E-02
    9048.218     49.824   3.960  1.00100E+00  9.86381E-01  1.46221E-02
    9049.431     51.037   4.000  9.94789E-01  9.85695E-01  9.09404E-03
    9050.656     52.262   4.040  9.86213E-01  9.85056E-01  1.15716E-03
    9051.894     53.500   4.080  9.78168E-01  9.84487E-01 -6.31870E-03
    9053.143     54.749   4.120  9.73431E-01  9.83989E-01 -1.05578E-02
    9054.405     56.011   4.160  9.74095E-01  9.83539E-01 -9.44377E-03
    9055.679     57.285   4.200  9.80974E-01  9.83137E-01 -2.16257E-03
    9056.965     58.571   4.240  9.93192E-01  9.82803E-01  1.03885E-02
    9058.264     59.870   4.280  1.00832E+00  9.82540E-01  2.57753E-02
    9059.574     61.181   4.320  1.02331E+00  9.82304E-01  4.10067E-02
    9060.897     62.503   4.360  1.03604E+00  9.82155E-01  5.38877E-02
    9062.232     63.838   4.400  1.04568E+00  9.82033E-01  6.36424E-02
    9063.580     65.186   4.440  1.05234E+00  9.81977E-01  7.03655E-02
    9064.939     66.545   4.480  1.05574E+00  9.81989E-01  7.37490E-02
    9066.311     67.917   4.520  1.05535E+00  9.82023E-01  7.33247E-02
    9067.694     69.300   4.560  1.05167E+00  9.82118E-01  6.95524E-02
    9069.090     70.696   4.600  1.04634E+00  9.82234E-01  6.41029E-02
    9070.498     72.105   4.640  1.04141E+00  9.82412E-01  5.90024E-02
    9071.919     73.525   4.680  1.03838E+00  9.82630E-01  5.57499E-02
    9073.351     74.957   4.720  1.03793E+00  9.82887E-01  5.50429E-02
    9074.796     76.402   4.760  1.04015E+00  9.83160E-01  5.69867E-02
    9076.253     77.859   4.800  1.04471E+00  9.83488E-01  6.12216E-02
    9077.722     79.328   4.840  1.05073E+00  9.83827E-01  6.69046E-02
    9079.204     80.810   4.880  1.05683E+00  9.84178E-01  7.26536E-02
    9080.697     82.303   4.920  1.06115E+00  9.84581E-01  7.65671E-02
    9082.203     83.809   4.960  1.06185E+00  9.84970E-01  7.68808E-02
    9083.721     85.327   5.000  1.05813E+00  9.85389E-01  7.27408E-02
    9085.251     86.857   5.040  1.05029E+00  9.85834E-01  6.44523E-02
    9086.793     88.399   5.080  1.03929E+00  9.86261E-01  5.30280E-02
    9088.347     89.954   5.120  1.02631E+00  9.86712E-01  3.96018E-02
    9089.914     91.520   5.160  1.01220E+00  9.87166E-01  2.50340E-02
    9091.493     93.099   5.200  9.97334E-01  9.87618E-01  9.71597E-03
    9093.084     94.690   5.240  9.81666E-01  9.88066E-01 -6.40075E-03
    9094.687     96.293   5.280  9.65080E-01  9.88488E-01 -2.34076E-02
    9096.303     97.909   5.320  9.47949E-01  9.88904E-01 -4.09554E-02
    9097.930     99.536   5.360  9.31179E-01  9.89315E-01 -5.81362E-02
    9099.570    101.176   5.400  9.15966E-01  9.89721E-01 -7.37550E-02
    9101.222    102.828   5.440  9.03438E-01  9.90097E-01 -8.66584E-02
    9102.886    104.492   5.480  8.94589E-01  9.90461E-01 -9.58729E-02
    9104.563    106.169   5.520  8.90149E-01  9.90795E-01 -1.00646E-01
    9106.251    107.857   5.560  8.90569E-01  9.91116E-01 -1.00547E-01
    9107.952    109.558   5.600  8.95836E-01  9.91379E-01 -9.55436E-02
    9109.665    111.271   5.640  9.05653E-01  9.91651E-01 -8.59983E-02
    9111.390    112.996   5.680  9.19259E-01  9.91864E-01 -7.26056E-02
    9113.128    114.734   5.720  9.35719E-01  9.92039E-01 -5.63200E-02
    9114.877    116.483   5.760  9.54058E-01  9.92198E-01 -3.81395E-02
    9116.639    118.245   5.800  9.73288E-01  9.92296E-01 -1.90084E-02
    9118.413    120.019   5.840  9.92483E-01  9.92379E-01  1.04013E-04
    9120.199    121.805   5.880  1.01025E+00  9.92426E-01  1.78283E-02
    9121.997    123.603   5.920  1.02475E+00  9.92432E-01  3.23160E-02
    9123.808    125.414   5.960  1.03411E+00  9.92395E-01  4.17166E-02
    9125.630    127.236   6.000  1.03680E+00  9.92292E-01  4.45122E-02
