# # comment:                                                     FEFF 9.9.1  
# # Source:
# # Structure
# # Reduced
# # space
# # abc:
# # angles:
# # sites:
# # POT  SCF 100  7.0000   0, screened core-hole, AFOLP (folp(0)= 1.150)
# # Abs   Z=29 Rmt= 1.269 Rnm= 1.340 K  shell
# # Pot 1 Z= 3 Rmt= 1.280 Rnm= 1.322
# # Pot 2 Z=23 Rmt= 1.207 Rnm= 1.344
# # Pot 3 Z=29 Rmt= 1.275 Rnm= 1.348
# # Pot 4 Z= 8 Rmt= 1.000 Rnm= 1.091
# # Gam_ch=1.729E+00 H-L exch Vi= 0.000E+00 Vr= 0.000E+00
# # Mu=-1.034E+01eV kf=2.217E+00 Vint=-1.907E+01eV Rs_int= 1.636
# FMS rfms= 9.0000
# # PATH  Rmax=-1.000,  Keep_limit= 0.00, Heap_limit 0.00  Pwcrit= 2.50%
#  S02=0.950  Temp=   0.00  Debye_temp=   0.00  Global_sig2= 0.00000
#  Energy zero shift, vr, vi    0.00000E+00   0.00000E+00
#  Curved wave amplitude ratio filter   4.000%
#     file         sig2 tot  cw amp ratio   deg  nlegs   reff  inp sig2
#     0/   0 paths used
#  xsedge+ 50, used to normalize mu           2.5052E-04
#  -----------------------------------------------------------------------
#  omega    e    k    mu    mu0     chi     @#
    8984.386    -14.154  -1.000  3.51439E-02  4.72869E-02 -1.21430E-02
    8984.685    -13.855  -0.960  3.70276E-02  5.05546E-02 -1.35270E-02
    8984.971    -13.569  -0.920  3.90731E-02  5.41738E-02 -1.51007E-02
    8985.246    -13.294  -0.880  4.13020E-02  5.81955E-02 -1.68935E-02
    8985.508    -13.032  -0.840  4.37395E-02  6.26791E-02 -1.89396E-02
    8985.758    -12.782  -0.800  4.64150E-02  6.76930E-02 -2.12780E-02
    8985.996    -12.544  -0.760  4.93622E-02  7.33160E-02 -2.39538E-02
    8986.221    -12.319  -0.720  5.26197E-02  7.96367E-02 -2.70170E-02
    8986.434    -12.106  -0.680  5.62302E-02  8.67530E-02 -3.05229E-02
    8986.636    -11.904  -0.640  6.02387E-02  9.47678E-02 -3.45291E-02
    8986.825    -11.715  -0.600  6.46894E-02  1.03782E-01 -3.90925E-02
    8987.001    -11.539  -0.560  6.96190E-02  1.13881E-01 -4.42622E-02
    8987.166    -11.374  -0.520  7.50466E-02  1.25116E-01 -5.00695E-02
    8987.318    -11.222  -0.480  8.09598E-02  1.37474E-01 -5.65139E-02
    8987.459    -11.081  -0.440  8.72985E-02  1.50846E-01 -6.35475E-02
    8987.587    -10.953  -0.400  9.39418E-02  1.65002E-01 -7.10603E-02
    8987.702    -10.838  -0.360  1.00706E-01  1.79580E-01 -7.88747E-02
    8987.806    -10.734  -0.320  1.07357E-01  1.94110E-01 -8.67532E-02
    8987.898    -10.642  -0.280  1.13647E-01  2.08070E-01 -9.44224E-02
    8987.977    -10.563  -0.240  1.19351E-01  2.20956E-01 -1.01605E-01
    8988.044    -10.496  -0.200  1.24296E-01  2.32348E-01 -1.08052E-01
    8988.099    -10.441  -0.160  1.28377E-01  2.41934E-01 -1.13557E-01
    8988.141    -10.399  -0.120  1.31546E-01  2.49514E-01 -1.17969E-01
    8988.172    -10.368  -0.080  1.33791E-01  2.54978E-01 -1.21187E-01
    8988.196    -10.344   0.000  1.35551E-01  2.59370E-01 -1.23818E-01
    8988.251    -10.289   0.120  1.39469E-01  2.69287E-01 -1.29818E-01
    8988.294    -10.246   0.160  1.42458E-01  2.76987E-01 -1.34530E-01
    8988.349    -10.191   0.200  1.46224E-01  2.86847E-01 -1.40624E-01
    8988.416    -10.124   0.240  1.50589E-01  2.98700E-01 -1.48111E-01
    8988.495    -10.045   0.280  1.55405E-01  3.12340E-01 -1.56935E-01
    8988.586     -9.954   0.320  1.60538E-01  3.27456E-01 -1.66917E-01
    8988.690     -9.850   0.360  1.65817E-01  3.43595E-01 -1.77778E-01
    8988.806     -9.734   0.400  1.71276E-01  3.60316E-01 -1.89040E-01
    8988.934     -9.606   0.440  1.77197E-01  3.77259E-01 -2.00061E-01
    8989.074     -9.466   0.480  1.84079E-01  3.94050E-01 -2.09972E-01
    8989.226     -9.314   0.520  1.92628E-01  4.10516E-01 -2.17888E-01
    8989.391     -9.149   0.560  2.03503E-01  4.26568E-01 -2.23065E-01
    8989.568     -8.972   0.600  2.17139E-01  4.42201E-01 -2.25061E-01
    8989.757     -8.783   0.640  2.33579E-01  4.57443E-01 -2.23864E-01
    8989.958     -8.582   0.680  2.52264E-01  4.72353E-01 -2.20089E-01
    8990.171     -8.369   0.720  2.71363E-01  4.87037E-01 -2.15674E-01
    8990.397     -8.143   0.760  2.87800E-01  5.01542E-01 -2.13742E-01
    8990.635     -7.905   0.800  2.99363E-01  5.15967E-01 -2.16604E-01
    8990.885     -7.655   0.840  3.07004E-01  5.30360E-01 -2.23356E-01
    8991.147     -7.393   0.880  3.14594E-01  5.44758E-01 -2.30165E-01
    8991.421     -7.119   0.920  3.26607E-01  5.59191E-01 -2.32584E-01
    8991.707     -6.833   0.960  3.46409E-01  5.73713E-01 -2.27304E-01
    8992.006     -6.534   1.000  3.73967E-01  5.88294E-01 -2.14327E-01
    8992.317     -6.223   1.040  4.02490E-01  6.02974E-01 -2.00485E-01
    8992.640     -5.900   1.080  4.17651E-01  6.17748E-01 -2.00098E-01
    8992.975     -5.565   1.120  4.09338E-01  6.32585E-01 -2.23247E-01
    8993.323     -5.217   1.160  3.88042E-01  6.47488E-01 -2.59446E-01
    8993.683     -4.857   1.200  3.73857E-01  6.62438E-01 -2.88581E-01
    8994.054     -4.486   1.240  3.73915E-01  6.77411E-01 -3.03496E-01
    8994.438     -4.102   1.280  3.84541E-01  6.92382E-01 -3.07841E-01
    8994.835     -3.705   1.320  4.04924E-01  7.07343E-01 -3.02420E-01
    8995.243     -3.297   1.360  4.39691E-01  7.22224E-01 -2.82533E-01
    8995.664     -2.876   1.400  4.93778E-01  7.37011E-01 -2.43233E-01
    8996.097     -2.443   1.440  5.69161E-01  7.51693E-01 -1.82532E-01
    8996.542     -1.998   1.480  6.63478E-01  7.66216E-01 -1.02739E-01
    8996.999     -1.541   1.520  7.68998E-01  7.80548E-01 -1.15495E-02
    8997.468     -1.072   1.560  8.65556E-01  7.94653E-01  7.09035E-02
    8997.950     -0.590   1.600  9.13933E-01  8.08516E-01  1.05417E-01
    8998.444     -0.096   1.640  8.97935E-01  8.22084E-01  7.58515E-02
    8998.950      0.410   1.680  8.60459E-01  8.35343E-01  2.51159E-02
    8999.468      0.928   1.720  8.41324E-01  8.48239E-01 -6.91535E-03
    8999.998      1.458   1.760  8.49416E-01  8.60780E-01 -1.13638E-02
    9000.541      2.001   1.800  8.85422E-01  8.72913E-01  1.25085E-02
    9001.095      2.555   1.840  9.48615E-01  8.84631E-01  6.39838E-02
    9001.662      3.122   1.880  1.02976E+00  8.95920E-01  1.33839E-01
    9002.241      3.701   1.920  1.11997E+00  9.06733E-01  2.13239E-01
    9002.833      4.293   1.960  1.22028E+00  9.17062E-01  3.03222E-01
    9003.436      4.896   2.000  1.32053E+00  9.26921E-01  3.93606E-01
    9004.052      5.512   2.040  1.38497E+00  9.36263E-01  4.48711E-01
    9004.680      6.140   2.080  1.39323E+00  9.45086E-01  4.48140E-01
    9005.320      6.780   2.120  1.37421E+00  9.53406E-01  4.20800E-01
    9005.972      7.432   2.160  1.36215E+00  9.61181E-01  4.00972E-01
    9006.637      8.097   2.200  1.35648E+00  9.68452E-01  3.88025E-01
    9007.313      8.773   2.240  1.34002E+00  9.75202E-01  3.64822E-01
    9008.002      9.462   2.280  1.29888E+00  9.81429E-01  3.17447E-01
    9008.703     10.163   2.320  1.22516E+00  9.87160E-01  2.37996E-01
    9009.416     10.876   2.360  1.13111E+00  9.92377E-01  1.38734E-01
    9010.142     11.602   2.400  1.03953E+00  9.97104E-01  4.24217E-02
    9010.879     12.339   2.440  9.63472E-01  1.00133E+00 -3.78566E-02
    9011.629     13.089   2.480  9.12405E-01  1.00512E+00 -9.27141E-02
    9012.391     13.851   2.520  8.93329E-01  1.00844E+00 -1.15112E-01
    9013.165     14.625   2.560  9.02976E-01  1.01132E+00 -1.08345E-01
    9013.952     15.412   2.600  9.26852E-01  1.01379E+00 -8.69382E-02
    9014.750     16.210   2.640  9.49382E-01  1.01586E+00 -6.64741E-02
    9015.561     17.021   2.680  9.60429E-01  1.01753E+00 -5.70999E-02
    9016.384     17.844   2.720  9.65193E-01  1.01884E+00 -5.36449E-02
    9017.219     18.679   2.760  9.67582E-01  1.01981E+00 -5.22328E-02
    9018.066     19.526   2.800  9.69885E-01  1.02047E+00 -5.05832E-02
    9018.926     20.386   2.840  9.72445E-01  1.02081E+00 -4.83627E-02
    9019.798     21.258   2.880  9.74178E-01  1.02086E+00 -4.66862E-02
    9020.682     22.142   2.920  9.73702E-01  1.02067E+00 -4.69665E-02
    9021.578     23.038   2.960  9.70413E-01  1.02021E+00 -4.97987E-02
    9022.486     23.946   3.000  9.64246E-01  1.01956E+00 -5.53152E-02
    9023.407     24.867   3.040  9.55182E-01  1.01869E+00 -6.35055E-02
    9024.339     25.799   3.080  9.43877E-01  1.01762E+00 -7.37450E-02
    9025.284     26.744   3.120  9.32070E-01  1.01641E+00 -8.43427E-02
    9026.241     27.701   3.160  9.22020E-01  1.01505E+00 -9.30284E-02
    9027.210     28.670   3.200  9.15554E-01  1.01356E+00 -9.80057E-02
    9028.192     29.652   3.240  9.13303E-01  1.01195E+00 -9.86491E-02
    9029.186     30.646   3.280  9.14027E-01  1.01024E+00 -9.62082E-02
    9030.191     31.651   3.320  9.16024E-01  1.00846E+00 -9.24343E-02
    9031.209     32.669   3.360  9.17825E-01  1.00661E+00 -8.87823E-02
    9032.240     33.700   3.400  9.18713E-01  1.00471E+00 -8.59972E-02
    9033.282     34.742   3.440  9.18698E-01  1.00278E+00 -8.40772E-02
    9034.337     35.797   3.480  9.18418E-01  1.00083E+00 -8.24095E-02
    9035.403     36.863   3.520  9.18816E-01  9.98851E-01 -8.00352E-02
    9036.482     37.942   3.560  9.20653E-01  9.96873E-01 -7.62203E-02
    9037.574     39.034   3.600  9.24442E-01  9.94919E-01 -7.04772E-02
    9038.677     40.137   3.640  9.30379E-01  9.92974E-01 -6.25951E-02
    9039.793     41.253   3.680  9.38433E-01  9.91062E-01 -5.26293E-02
    9040.920     42.380   3.720  9.48407E-01  9.89166E-01 -4.07594E-02
    9042.060     43.520   3.760  9.60058E-01  9.87333E-01 -2.72748E-02
    9043.212     44.672   3.800  9.72868E-01  9.85566E-01 -1.26975E-02
    9044.377     45.837   3.840  9.86051E-01  9.83827E-01  2.22382E-03
    9045.553     47.013   3.880  9.98989E-01  9.82181E-01  1.68084E-02
    9046.742     48.202   3.920  1.01124E+00  9.80588E-01  3.06506E-02
    9047.943     49.403   3.960  1.02268E+00  9.79072E-01  4.36100E-02
    9049.156     50.616   4.000  1.03345E+00  9.77656E-01  5.57888E-02
    9050.381     51.841   4.040  1.04357E+00  9.76301E-01  6.72705E-02
    9051.619     53.079   4.080  1.05302E+00  9.75026E-01  7.79899E-02
    9052.868     54.328   4.120  1.06167E+00  9.73856E-01  8.78158E-02
    9054.130     55.590   4.160  1.06947E+00  9.72771E-01  9.66995E-02
    9055.404     56.864   4.200  1.07636E+00  9.71792E-01  1.04567E-01
    9056.691     58.151   4.240  1.08211E+00  9.70878E-01  1.11229E-01
    9057.989     59.449   4.280  1.08643E+00  9.70092E-01  1.16339E-01
    9059.300     60.760   4.320  1.08859E+00  9.69371E-01  1.19221E-01
    9060.622     62.082   4.360  1.08762E+00  9.68755E-01  1.18870E-01
    9061.958     63.418   4.400  1.08239E+00  9.68226E-01  1.14159E-01
    9063.305     64.765   4.440  1.07198E+00  9.67805E-01  1.04177E-01
    9064.664     66.124   4.480  1.05605E+00  9.67469E-01  8.85786E-02
    9066.036     67.496   4.520  1.03518E+00  9.67217E-01  6.79588E-02
    9067.419     68.880   4.560  1.01105E+00  9.67068E-01  4.39813E-02
    9068.815     70.275   4.600  9.85952E-01  9.66980E-01  1.89717E-02
    9070.224     71.684   4.640  9.62346E-01  9.66994E-01 -4.64871E-03
    9071.644     73.104   4.680  9.42138E-01  9.67088E-01 -2.49503E-02
    9073.077     74.537   4.720  9.26353E-01  9.67239E-01 -4.08858E-02
    9074.521     75.981   4.760  9.15276E-01  9.67486E-01 -5.22098E-02
    9075.978     77.438   4.800  9.08520E-01  9.67787E-01 -5.92671E-02
    9077.447     78.907   4.840  9.05424E-01  9.68162E-01 -6.27388E-02
    9078.929     80.389   4.880  9.05191E-01  9.68607E-01 -6.34161E-02
    9080.422     81.882   4.920  9.07021E-01  9.69079E-01 -6.20579E-02
    9081.928     83.388   4.960  9.10423E-01  9.69637E-01 -5.92144E-02
    9083.446     84.906   5.000  9.15142E-01  9.70218E-01 -5.50762E-02
    9084.976     86.436   5.040  9.21294E-01  9.70861E-01 -4.95665E-02
    9086.518     87.978   5.080  9.29043E-01  9.71519E-01 -4.24764E-02
    9088.073     89.533   5.120  9.38443E-01  9.72213E-01 -3.37707E-02
    9089.639     91.099   5.160  9.49122E-01  9.72943E-01 -2.38204E-02
    9091.218     92.678   5.200  9.60198E-01  9.73705E-01 -1.35065E-02
    9092.809     94.269   5.240  9.70294E-01  9.74473E-01 -4.17953E-03
    9094.412     95.872   5.280  9.78013E-01  9.75244E-01  2.76862E-03
    9096.028     97.488   5.320  9.82344E-01  9.76016E-01  6.32797E-03
    9097.656     99.116   5.360  9.82947E-01  9.76790E-01  6.15640E-03
    9099.295    100.755   5.400  9.80239E-01  9.77584E-01  2.65522E-03
    9100.947    102.407   5.440  9.75242E-01  9.78350E-01 -3.10824E-03
    9102.612    104.072   5.480  9.69386E-01  9.79085E-01 -9.69914E-03
    9104.288    105.748   5.520  9.64076E-01  9.79810E-01 -1.57340E-02
    9105.977    107.437   5.560  9.60205E-01  9.80503E-01 -2.02974E-02
    9107.677    109.137   5.600  9.58006E-01  9.81183E-01 -2.31769E-02
    9109.390    110.850   5.640  9.56916E-01  9.81826E-01 -2.49099E-02
    9111.115    112.575   5.680  9.56020E-01  9.82427E-01 -2.64077E-02
    9112.853    114.313   5.720  9.54552E-01  9.82965E-01 -2.84134E-02
    9114.602    116.062   5.760  9.52330E-01  9.83482E-01 -3.11518E-02
    9116.364    117.824   5.800  9.49518E-01  9.83931E-01 -3.44134E-02
    9118.138    119.598   5.840  9.46586E-01  9.84335E-01 -3.77494E-02
    9119.924    121.384   5.880  9.44129E-01  9.84691E-01 -4.05620E-02
    9121.722    123.182   5.920  9.42939E-01  9.84970E-01 -4.20311E-02
    9123.533    124.993   5.960  9.44147E-01  9.85163E-01 -4.10159E-02
    9125.356    126.816   6.000  9.49406E-01  9.85270E-01 -3.58638E-02
