# # comment:                                                     FEFF 9.9.1  
# # Source:
# # Structure
# # Reduced
# # space
# # abc:
# # angles:109.346902
# # sites:
# # POT  SCF 100  7.0000   0, screened core-hole, AFOLP (folp(0)= 1.150)
# # Abs   Z=29 Rmt= 1.258 Rnm= 1.341 K  shell
# # Pot 1 Z=12 Rmt= 1.678 Rnm= 1.704
# # Pot 2 Z=29 Rmt= 1.260 Rnm= 1.342
# # Pot 3 Z=42 Rmt= 1.343 Rnm= 1.453
# # Pot 4 Z= 8 Rmt= 1.025 Rnm= 1.097
# # Gam_ch=1.729E+00 H-L exch Vi= 0.000E+00 Vr= 0.000E+00
# # Mu=-6.547E+00eV kf=2.206E+00 Vint=-1.615E+01eV Rs_int= 1.644
# FMS rfms= 9.0000
# # PATH  Rmax=-1.000,  Keep_limit= 0.00, Heap_limit 0.00  Pwcrit= 2.50%
#  S02=0.950  Temp=   0.00  Debye_temp=   0.00  Global_sig2= 0.00000
#  Energy zero shift, vr, vi    0.00000E+00   0.00000E+00
#  Curved wave amplitude ratio filter   4.000%
#     file         sig2 tot  cw amp ratio   deg  nlegs   reff  inp sig2
#     0/   0 paths used
#  xsedge+ 50, used to normalize mu           2.4593E-04
#  -----------------------------------------------------------------------
#  omega    e    k    mu    mu0     chi     @#
    8983.720    -10.357  -1.000  4.71911E-02  5.66588E-02 -9.46774E-03
    8984.018    -10.059  -0.960  5.01392E-02  6.08625E-02 -1.07233E-02
    8984.305     -9.772  -0.920  5.33552E-02  6.55411E-02 -1.21860E-02
    8984.579     -9.498  -0.880  5.68708E-02  7.07655E-02 -1.38947E-02
    8984.841     -9.236  -0.840  6.07220E-02  7.66177E-02 -1.58957E-02
    8985.091     -8.986  -0.800  6.49495E-02  8.31932E-02 -1.82437E-02
    8985.329     -8.748  -0.760  6.95983E-02  9.06015E-02 -2.10032E-02
    8985.554     -8.523  -0.720  7.47182E-02  9.89665E-02 -2.42483E-02
    8985.768     -8.309  -0.680  8.03621E-02  1.08425E-01 -2.80626E-02
    8985.969     -8.108  -0.640  8.65839E-02  1.19120E-01 -3.25365E-02
    8986.158     -7.919  -0.600  9.34334E-02  1.31195E-01 -3.77620E-02
    8986.335     -7.742  -0.560  1.00949E-01  1.44771E-01 -4.38224E-02
    8986.499     -7.578  -0.520  1.09143E-01  1.59920E-01 -5.07770E-02
    8986.652     -7.425  -0.480  1.17989E-01  1.76627E-01 -5.86383E-02
    8986.792     -7.285  -0.440  1.27398E-01  1.94746E-01 -6.73474E-02
    8986.920     -7.157  -0.400  1.37208E-01  2.13958E-01 -7.67501E-02
    8987.036     -7.041  -0.360  1.47177E-01  2.33766E-01 -8.65894E-02
    8987.139     -6.938  -0.320  1.57001E-01  2.53520E-01 -9.65196E-02
    8987.231     -6.846  -0.280  1.66353E-01  2.72501E-01 -1.06148E-01
    8987.310     -6.767  -0.240  1.74926E-01  2.90018E-01 -1.15092E-01
    8987.377     -6.700  -0.200  1.82470E-01  3.05492E-01 -1.23023E-01
    8987.432     -6.645  -0.160  1.88802E-01  3.18504E-01 -1.29701E-01
    8987.475     -6.602  -0.120  1.93809E-01  3.28785E-01 -1.34976E-01
    8987.505     -6.572  -0.080  1.97422E-01  3.36188E-01 -1.38766E-01
    8987.530     -6.547   0.000  2.00333E-01  3.42134E-01 -1.41801E-01
    8987.584     -6.493   0.120  2.06882E-01  3.55546E-01 -1.48663E-01
    8987.627     -6.450   0.160  2.11971E-01  3.65953E-01 -1.53982E-01
    8987.682     -6.395   0.200  2.18505E-01  3.79231E-01 -1.60726E-01
    8987.749     -6.328   0.240  2.26485E-01  3.95189E-01 -1.68704E-01
    8987.828     -6.249   0.280  2.35890E-01  4.13475E-01 -1.77585E-01
    8987.920     -6.157   0.320  2.46730E-01  4.33607E-01 -1.86876E-01
    8988.023     -6.054   0.360  2.59149E-01  4.55006E-01 -1.95856E-01
    8988.139     -5.938   0.400  2.73393E-01  4.76997E-01 -2.03604E-01
    8988.267     -5.810   0.440  2.89966E-01  4.99001E-01 -2.09034E-01
    8988.407     -5.670   0.480  3.09625E-01  5.20568E-01 -2.10943E-01
    8988.560     -5.517   0.520  3.33233E-01  5.41374E-01 -2.08141E-01
    8988.724     -5.353   0.560  3.61755E-01  5.61307E-01 -1.99552E-01
    8988.901     -5.176   0.600  3.96231E-01  5.80331E-01 -1.84099E-01
    8989.090     -4.987   0.640  4.38003E-01  5.98471E-01 -1.60468E-01
    8989.291     -4.786   0.680  4.88329E-01  6.15851E-01 -1.27522E-01
    8989.505     -4.572   0.720  5.46401E-01  6.32549E-01 -8.61483E-02
    8989.730     -4.347   0.760  6.07071E-01  6.48685E-01 -4.16143E-02
    8989.968     -4.109   0.800  6.61635E-01  6.64327E-01 -2.69219E-03
    8990.218     -3.859   0.840  7.02175E-01  6.79570E-01  2.26060E-02
    8990.480     -3.597   0.880  7.23413E-01  6.94450E-01  2.89637E-02
    8990.754     -3.323   0.920  7.23488E-01  7.09034E-01  1.44544E-02
    8991.041     -3.036   0.960  7.05113E-01  7.23355E-01 -1.82417E-02
    8991.340     -2.737   1.000  6.72653E-01  7.37432E-01 -6.47789E-02
    8991.650     -2.427   1.040  6.31957E-01  7.51234E-01 -1.19276E-01
    8991.973     -2.103   1.080  5.91959E-01  7.64826E-01 -1.72867E-01
    8992.309     -1.768   1.120  5.60371E-01  7.78162E-01 -2.17792E-01
    8992.656     -1.421   1.160  5.42052E-01  7.91234E-01 -2.49182E-01
    8993.016     -1.061   1.200  5.40852E-01  8.04045E-01 -2.63193E-01
    8993.388     -0.689   1.240  5.58477E-01  8.16560E-01 -2.58083E-01
    8993.772     -0.305   1.280  5.97086E-01  8.28780E-01 -2.31694E-01
    8994.168      0.091   1.320  6.63131E-01  8.40660E-01 -1.77529E-01
    8994.576      0.499   1.360  7.54419E-01  8.52221E-01 -9.78021E-02
    8994.997      0.920   1.400  8.47325E-01  8.63397E-01 -1.60723E-02
    8995.430      1.353   1.440  9.07360E-01  8.74205E-01  3.31549E-02
    8995.875      1.798   1.480  9.15735E-01  8.84619E-01  3.11155E-02
    8996.332      2.255   1.520  8.86151E-01  8.94617E-01 -8.46629E-03
    8996.802      2.725   1.560  8.44718E-01  9.04196E-01 -5.94773E-02
    8997.283      3.206   1.600  8.12117E-01  9.13352E-01 -1.01235E-01
    8997.777      3.700   1.640  8.04432E-01  9.22044E-01 -1.17612E-01
    8998.283      4.206   1.680  8.24847E-01  9.30309E-01 -1.05462E-01
    8998.801      4.724   1.720  8.66956E-01  9.38088E-01 -7.11326E-02
    8999.331      5.254   1.760  9.31967E-01  9.45444E-01 -1.34767E-02
    8999.874      5.797   1.800  1.02161E+00  9.52334E-01  6.92711E-02
    9000.429      6.352   1.840  1.12140E+00  9.58764E-01  1.62636E-01
    9000.996      6.919   1.880  1.20628E+00  9.64756E-01  2.41522E-01
    9001.575      7.498   1.920  1.26518E+00  9.70294E-01  2.94886E-01
    9002.166      8.089   1.960  1.31311E+00  9.75406E-01  3.37703E-01
    9002.769      8.692   2.000  1.35740E+00  9.80097E-01  3.77302E-01
    9003.385      9.308   2.040  1.38593E+00  9.84392E-01  4.01543E-01
    9004.013      9.936   2.080  1.38963E+00  9.88280E-01  4.01350E-01
    9004.653     10.576   2.120  1.37371E+00  9.91788E-01  3.81926E-01
    9005.305     11.228   2.160  1.35937E+00  9.94925E-01  3.64444E-01
    9005.970     11.893   2.200  1.36844E+00  9.97719E-01  3.70722E-01
    9006.647     12.570   2.240  1.40120E+00  1.00018E+00  4.01016E-01
    9007.335     13.258   2.280  1.42829E+00  1.00234E+00  4.25955E-01
    9008.036     13.959   2.320  1.40071E+00  1.00417E+00  3.96533E-01
    9008.750     14.673   2.360  1.29725E+00  1.00573E+00  2.91527E-01
    9009.475     15.398   2.400  1.16663E+00  1.00702E+00  1.59607E-01
    9010.213     16.136   2.440  1.06113E+00  1.00807E+00  5.30656E-02
    9010.962     16.885   2.480  9.85484E-01  1.00889E+00 -2.34088E-02
    9011.724     17.647   2.520  9.28781E-01  1.00951E+00 -8.07298E-02
    9012.499     18.422   2.560  8.89235E-01  1.00993E+00 -1.20692E-01
    9013.285     19.208   2.600  8.70243E-01  1.01015E+00 -1.39904E-01
    9014.084     20.007   2.640  8.75539E-01  1.01023E+00 -1.34686E-01
    9014.894     20.817   2.680  8.87050E-01  1.01017E+00 -1.23116E-01
    9015.717     21.640   2.720  8.95589E-01  1.00996E+00 -1.14368E-01
    9016.552     22.475   2.760  8.98478E-01  1.00963E+00 -1.11150E-01
    9017.400     23.323   2.800  8.97236E-01  1.00921E+00 -1.11969E-01
    9018.259     24.182   2.840  8.93020E-01  1.00869E+00 -1.15675E-01
    9019.131     25.054   2.880  8.86616E-01  1.00810E+00 -1.21489E-01
    9020.015     25.938   2.920  8.78965E-01  1.00746E+00 -1.28495E-01
    9020.911     26.834   2.960  8.71326E-01  1.00675E+00 -1.35419E-01
    9021.819     27.742   3.000  8.64779E-01  1.00601E+00 -1.41230E-01
    9022.740     28.663   3.040  8.60034E-01  1.00521E+00 -1.45178E-01
    9023.673     29.596   3.080  8.57784E-01  1.00440E+00 -1.46619E-01
    9024.617     30.540   3.120  8.58441E-01  1.00359E+00 -1.45146E-01
    9025.575     31.498   3.160  8.61574E-01  1.00277E+00 -1.41192E-01
    9026.544     32.467   3.200  8.67398E-01  1.00194E+00 -1.34546E-01
    9027.525     33.448   3.240  8.76625E-01  1.00112E+00 -1.24498E-01
    9028.519     34.442   3.280  8.89828E-01  1.00031E+00 -1.10480E-01
    9029.525     35.448   3.320  9.07222E-01  9.99521E-01 -9.22990E-02
    9030.543     36.466   3.360  9.28340E-01  9.98767E-01 -7.04277E-02
    9031.573     37.496   3.400  9.51924E-01  9.98026E-01 -4.61013E-02
    9032.615     38.538   3.440  9.75864E-01  9.97319E-01 -2.14549E-02
    9033.670     39.593   3.480  9.97803E-01  9.96653E-01  1.14994E-03
    9034.737     40.660   3.520  1.01511E+00  9.96047E-01  1.90592E-02
    9035.816     41.739   3.560  1.02539E+00  9.95460E-01  2.99271E-02
    9036.907     42.830   3.600  1.02744E+00  9.94915E-01  3.25253E-02
    9038.010     43.933   3.640  1.02145E+00  9.94435E-01  2.70128E-02
    9039.126     45.049   3.680  1.00910E+00  9.93999E-01  1.50996E-02
    9040.254     46.177   3.720  9.93452E-01  9.93609E-01 -1.56623E-04
    9041.394     47.317   3.760  9.78286E-01  9.93285E-01 -1.49987E-02
    9042.546     48.469   3.800  9.66795E-01  9.93005E-01 -2.62101E-02
    9043.710     49.633   3.840  9.60974E-01  9.92770E-01 -3.17959E-02
    9044.887     50.810   3.880  9.61721E-01  9.92579E-01 -3.08587E-02
    9046.075     51.998   3.920  9.69164E-01  9.92454E-01 -2.32906E-02
    9047.276     53.199   3.960  9.82953E-01  9.92376E-01 -9.42255E-03
    9048.489     54.412   4.000  1.00224E+00  9.92342E-01  9.90311E-03
    9049.715     55.638   4.040  1.02561E+00  9.92372E-01  3.32391E-02
    9050.952     56.875   4.080  1.05078E+00  9.92444E-01  5.83391E-02
    9052.202     58.125   4.120  1.07469E+00  9.92537E-01  8.21533E-02
    9053.464     59.387   4.160  1.09448E+00  9.92690E-01  1.01789E-01
    9054.738     60.661   4.200  1.10797E+00  9.92885E-01  1.15080E-01
    9056.024     61.947   4.240  1.11427E+00  9.93118E-01  1.21156E-01
    9057.322     63.245   4.280  1.11355E+00  9.93367E-01  1.20182E-01
    9058.633     64.556   4.320  1.10653E+00  9.93673E-01  1.12857E-01
    9059.956     65.879   4.360  1.09421E+00  9.93994E-01  1.00216E-01
    9061.291     67.214   4.400  1.07809E+00  9.94349E-01  8.37385E-02
    9062.638     68.561   4.440  1.06012E+00  9.94738E-01  6.53805E-02
    9063.997     69.920   4.480  1.04246E+00  9.95137E-01  4.73223E-02
    9065.369     71.292   4.520  1.02732E+00  9.95565E-01  3.17597E-02
    9066.753     72.676   4.560  1.01619E+00  9.96000E-01  2.01916E-02
    9068.149     74.072   4.600  1.00939E+00  9.96462E-01  1.29310E-02
    9069.557     75.480   4.640  1.00624E+00  9.96905E-01  9.33494E-03
    9070.977     76.900   4.680  1.00560E+00  9.97371E-01  8.22762E-03
    9072.410     78.333   4.720  1.00616E+00  9.97840E-01  8.32079E-03
    9073.855     79.778   4.760  1.00672E+00  9.98309E-01  8.41454E-03
    9075.312     81.235   4.800  1.00624E+00  9.98775E-01  7.46579E-03
    9076.781     82.704   4.840  1.00392E+00  9.99237E-01  4.68556E-03
    9078.262     84.185   4.880  9.99431E-01  9.99674E-01 -2.42899E-04
    9079.756     85.679   4.920  9.92985E-01  1.00013E+00 -7.14137E-03
    9081.261     87.184   4.960  9.84998E-01  1.00055E+00 -1.55513E-02
    9082.779     88.702   5.000  9.75918E-01  1.00094E+00 -2.50228E-02
    9084.309     90.232   5.040  9.66154E-01  1.00132E+00 -3.51699E-02
    9085.852     91.775   5.080  9.56331E-01  1.00170E+00 -4.53669E-02
    9087.406     93.329   5.120  9.47371E-01  1.00204E+00 -5.46684E-02
    9088.973     94.896   5.160  9.40336E-01  1.00237E+00 -6.20321E-02
    9090.552     96.475   5.200  9.36065E-01  1.00264E+00 -6.65722E-02
    9092.143     98.066   5.240  9.35118E-01  1.00289E+00 -6.77759E-02
    9093.746     99.669   5.280  9.37475E-01  1.00314E+00 -6.56625E-02
    9095.361    101.284   5.320  9.42456E-01  1.00332E+00 -6.08630E-02
    9096.989    102.912   5.360  9.49274E-01  1.00348E+00 -5.42093E-02
    9098.629    104.552   5.400  9.57498E-01  1.00359E+00 -4.60897E-02
    9100.281    106.204   5.440  9.67368E-01  1.00367E+00 -3.63064E-02
    9101.945    107.868   5.480  9.78915E-01  1.00372E+00 -2.48088E-02
    9103.621    109.544   5.520  9.91210E-01  1.00373E+00 -1.25231E-02
    9105.310    111.233   5.560  1.00230E+00  1.00371E+00 -1.40329E-03
    9107.011    112.934   5.600  1.01044E+00  1.00366E+00  6.78149E-03
    9108.724    114.647   5.640  1.01513E+00  1.00355E+00  1.15761E-02
    9110.449    116.372   5.680  1.01703E+00  1.00341E+00  1.36219E-02
    9112.186    118.109   5.720  1.01650E+00  1.00324E+00  1.32571E-02
    9113.936    119.859   5.760  1.01274E+00  1.00302E+00  9.72497E-03
    9115.697    121.620   5.800  1.00482E+00  1.00278E+00  2.04423E-03
    9117.471    123.394   5.840  9.93157E-01  1.00251E+00 -9.34998E-03
    9119.257    125.180   5.880  9.80173E-01  1.00220E+00 -2.20242E-02
    9121.056    126.979   5.920  9.69370E-01  1.00185E+00 -3.24830E-02
    9122.866    128.789   5.960  9.63824E-01  1.00148E+00 -3.76520E-02
    9124.689    130.612   6.000  9.65060E-01  1.00107E+00 -3.60084E-02
