# # comment:                                                     FEFF 9.9.1  
# # Source:
# # Structure
# # Reduced
# # space
# # abc:
# # angles:
# # sites:
# # POT  SCF 100  7.0000   0, screened core-hole, AFOLP (folp(0)= 1.150)
# # Abs   Z=29 Rmt= 1.366 Rnm= 1.416 K  shell
# # Pot 1 Z= 3 Rmt= 1.240 Rnm= 1.301
# # Pot 2 Z=29 Rmt= 1.366 Rnm= 1.416
# # Pot 3 Z= 6 Rmt= 0.716 Rnm= 0.930
# # Pot 4 Z= 8 Rmt= 0.905 Rnm= 1.020
# # Gam_ch=1.729E+00 H-L exch Vi= 0.000E+00 Vr= 0.000E+00
# # Mu=-7.262E+00eV kf=2.558E+00 Vint=-1.883E+01eV Rs_int= 1.418
# FMS rfms= 9.0000
# # PATH  Rmax=-1.000,  Keep_limit= 0.00, Heap_limit 0.00  Pwcrit= 2.50%
#  S02=0.950  Temp=   0.00  Debye_temp=   0.00  Global_sig2= 0.00000
#  Energy zero shift, vr, vi    0.00000E+00   0.00000E+00
#  Curved wave amplitude ratio filter   4.000%
#     file         sig2 tot  cw amp ratio   deg  nlegs   reff  inp sig2
#     0/   0 paths used
#  xsedge+ 50, used to normalize mu           2.4831E-04
#  -----------------------------------------------------------------------
#  omega    e    k    mu    mu0     chi     @#
    8983.564    -11.072  -1.000  4.72453E-02  5.08047E-02 -3.55943E-03
    8983.863    -10.773  -0.960  5.02476E-02  5.44127E-02 -4.16506E-03
    8984.150    -10.487  -0.920  5.35402E-02  5.84182E-02 -4.87799E-03
    8984.424    -10.212  -0.880  5.71616E-02  6.28798E-02 -5.71820E-03
    8984.686     -9.950  -0.840  6.11561E-02  6.78657E-02 -6.70954E-03
    8984.936     -9.700  -0.800  6.55747E-02  7.34550E-02 -7.88031E-03
    8985.174     -9.463  -0.760  7.04748E-02  7.97386E-02 -9.26378E-03
    8985.399     -9.237  -0.720  7.59207E-02  8.68192E-02 -1.08985E-02
    8985.613     -9.024  -0.680  8.19819E-02  9.48098E-02 -1.28280E-02
    8985.814     -8.822  -0.640  8.87308E-02  1.03830E-01 -1.50994E-02
    8986.003     -8.634  -0.600  9.62370E-02  1.13998E-01 -1.77605E-02
    8986.180     -8.457  -0.560  1.04558E-01  1.25412E-01 -2.08539E-02
    8986.344     -8.292  -0.520  1.13727E-01  1.38134E-01 -2.44073E-02
    8986.497     -8.140  -0.480  1.23729E-01  1.52150E-01 -2.84210E-02
    8986.637     -8.000  -0.440  1.34484E-01  1.67336E-01 -3.28522E-02
    8986.765     -7.872  -0.400  1.45825E-01  1.83428E-01 -3.76026E-02
    8986.881     -7.756  -0.360  1.57492E-01  2.00009E-01 -4.25164E-02
    8986.984     -7.652  -0.320  1.69145E-01  2.16539E-01 -4.73942E-02
    8987.076     -7.561  -0.280  1.80395E-01  2.32417E-01 -5.20224E-02
    8987.155     -7.481  -0.240  1.90858E-01  2.47069E-01 -5.62102E-02
    8987.222     -7.414  -0.200  2.00194E-01  2.60011E-01 -5.98173E-02
    8987.277     -7.359  -0.160  2.08129E-01  2.70893E-01 -6.27637E-02
    8987.320     -7.317  -0.120  2.14470E-01  2.79491E-01 -6.50210E-02
    8987.350     -7.286  -0.080  2.19087E-01  2.85683E-01 -6.65958E-02
    8987.374     -7.262   0.000  2.22849E-01  2.90656E-01 -6.78064E-02
    8987.429     -7.207   0.120  2.31199E-01  3.01869E-01 -7.06701E-02
    8987.472     -7.164   0.160  2.37783E-01  3.10584E-01 -7.28010E-02
    8987.527     -7.110   0.200  2.46293E-01  3.21699E-01 -7.54063E-02
    8987.594     -7.042   0.240  2.56734E-01  3.35055E-01 -7.83208E-02
    8987.673     -6.963   0.280  2.69062E-01  3.50371E-01 -8.13091E-02
    8987.765     -6.872   0.320  2.83166E-01  3.67249E-01 -8.40833E-02
    8987.868     -6.768   0.360  2.98857E-01  3.85191E-01 -8.63335E-02
    8987.984     -6.652   0.400  3.15935E-01  4.03666E-01 -8.77312E-02
    8988.112     -6.524   0.440  3.34175E-01  4.22196E-01 -8.80218E-02
    8988.252     -6.384   0.480  3.53314E-01  4.40391E-01 -8.70762E-02
    8988.405     -6.232   0.520  3.73041E-01  4.58036E-01 -8.49946E-02
    8988.569     -6.067   0.560  3.92833E-01  4.75009E-01 -8.21760E-02
    8988.746     -5.890   0.600  4.11932E-01  4.91303E-01 -7.93714E-02
    8988.935     -5.701   0.640  4.29413E-01  5.06978E-01 -7.75652E-02
    8989.136     -5.500   0.680  4.44484E-01  5.22129E-01 -7.76442E-02
    8989.350     -5.287   0.720  4.57038E-01  5.36821E-01 -7.97840E-02
    8989.575     -5.061   0.760  4.68200E-01  5.51205E-01 -8.30044E-02
    8989.813     -4.824   0.800  4.79706E-01  5.65335E-01 -8.56295E-02
    8990.063     -4.574   0.840  4.92467E-01  5.79302E-01 -8.68354E-02
    8990.325     -4.311   0.880  5.05252E-01  5.93179E-01 -8.79261E-02
    8990.599     -4.037   0.920  5.15645E-01  6.07007E-01 -9.13621E-02
    8990.886     -3.751   0.960  5.22691E-01  6.20839E-01 -9.81486E-02
    8991.184     -3.452   1.000  5.28039E-01  6.34715E-01 -1.06676E-01
    8991.495     -3.141   1.040  5.33753E-01  6.48605E-01 -1.14852E-01
    8991.818     -2.818   1.080  5.41066E-01  6.62575E-01 -1.21509E-01
    8992.154     -2.483   1.120  5.51808E-01  6.76602E-01 -1.24795E-01
    8992.501     -2.135   1.160  5.68966E-01  6.90699E-01 -1.21734E-01
    8992.861     -1.776   1.200  5.94749E-01  7.04832E-01 -1.10082E-01
    8993.233     -1.404   1.240  6.30848E-01  7.19025E-01 -8.81765E-02
    8993.617     -1.020   1.280  6.80011E-01  7.33236E-01 -5.32250E-02
    8994.013     -0.623   1.320  7.43137E-01  7.47442E-01 -4.30552E-03
    8994.421     -0.215   1.360  8.14648E-01  7.61638E-01  5.30098E-02
    8994.842      0.206   1.400  8.87524E-01  7.75776E-01  1.11748E-01
    8995.275      0.638   1.440  9.59201E-01  7.89845E-01  1.69356E-01
    8995.720      1.083   1.480  1.02633E+00  8.03814E-01  2.22512E-01
    8996.177      1.541   1.520  1.09129E+00  8.17651E-01  2.73644E-01
    8996.646      2.010   1.560  1.15754E+00  8.31320E-01  3.26216E-01
    8997.128      2.492   1.600  1.20953E+00  8.44768E-01  3.64759E-01
    8997.622      2.985   1.640  1.23124E+00  8.57979E-01  3.73259E-01
    8998.128      3.491   1.680  1.22427E+00  8.70940E-01  3.53334E-01
    8998.646      4.010   1.720  1.19991E+00  8.83595E-01  3.16317E-01
    8999.176      4.540   1.760  1.17369E+00  8.95908E-01  2.77785E-01
    8999.719      5.082   1.800  1.16424E+00  9.07845E-01  2.56392E-01
    9000.274      5.637   1.840  1.17811E+00  9.19393E-01  2.58715E-01
    9000.840      6.204   1.880  1.19970E+00  9.30518E-01  2.69182E-01
    9001.420      6.783   1.920  1.21391E+00  9.41188E-01  2.72718E-01
    9002.011      7.375   1.960  1.20874E+00  9.51391E-01  2.57346E-01
    9002.614      7.978   2.000  1.17507E+00  9.61098E-01  2.13974E-01
    9003.230      8.594   2.040  1.12756E+00  9.70280E-01  1.57278E-01
    9003.858      9.222   2.080  1.09797E+00  9.78930E-01  1.19045E-01
    9004.498      9.862   2.120  1.09968E+00  9.87060E-01  1.12623E-01
    9005.150     10.514   2.160  1.11756E+00  9.94609E-01  1.22948E-01
    9005.815     11.178   2.200  1.13142E+00  1.00163E+00  1.29784E-01
    9006.491     11.855   2.240  1.13434E+00  1.00807E+00  1.26276E-01
    9007.180     12.544   2.280  1.12481E+00  1.01396E+00  1.10857E-01
    9007.881     13.245   2.320  1.10262E+00  1.01928E+00  8.33454E-02
    9008.595     13.958   2.360  1.07302E+00  1.02404E+00  4.89865E-02
    9009.320     14.684   2.400  1.04017E+00  1.02826E+00  1.19045E-02
    9010.058     15.421   2.440  1.00361E+00  1.03195E+00 -2.83445E-02
    9010.807     16.171   2.480  9.63896E-01  1.03511E+00 -7.12164E-02
    9011.569     16.933   2.520  9.24859E-01  1.03778E+00 -1.12920E-01
    9012.344     17.707   2.560  8.90958E-01  1.03994E+00 -1.48978E-01
    9013.130     18.494   2.600  8.64357E-01  1.04163E+00 -1.77276E-01
    9013.928     19.292   2.640  8.43537E-01  1.04288E+00 -1.99346E-01
    9014.739     20.103   2.680  8.26074E-01  1.04372E+00 -2.17642E-01
    9015.562     20.926   2.720  8.13319E-01  1.04415E+00 -2.30826E-01
    9016.397     21.761   2.760  8.11646E-01  1.04418E+00 -2.32534E-01
    9017.245     22.608   2.800  8.27632E-01  1.04387E+00 -2.16243E-01
    9018.104     23.468   2.840  8.60534E-01  1.04322E+00 -1.82688E-01
    9018.976     24.340   2.880  8.97020E-01  1.04230E+00 -1.45276E-01
    9019.860     25.224   2.920  9.21298E-01  1.04107E+00 -1.19770E-01
    9020.756     26.120   2.960  9.29897E-01  1.03959E+00 -1.09695E-01
    9021.664     27.028   3.000  9.33136E-01  1.03790E+00 -1.04766E-01
    9022.585     27.948   3.040  9.37394E-01  1.03601E+00 -9.86164E-02
    9023.517     28.881   3.080  9.43978E-01  1.03395E+00 -8.99704E-02
    9024.462     29.826   3.120  9.52872E-01  1.03173E+00 -7.88564E-02
    9025.419     30.783   3.160  9.63451E-01  1.02936E+00 -6.59097E-02
    9026.389     31.752   3.200  9.74917E-01  1.02692E+00 -5.20011E-02
    9027.370     32.734   3.240  9.86590E-01  1.02437E+00 -3.77808E-02
    9028.364     33.727   3.280  9.98095E-01  1.02175E+00 -2.36557E-02
    9029.370     34.733   3.320  1.00934E+00  1.01911E+00 -9.76692E-03
    9030.388     35.751   3.360  1.02065E+00  1.01642E+00  4.22958E-03
    9031.418     36.781   3.400  1.03264E+00  1.01372E+00  1.89209E-02
    9032.460     37.824   3.440  1.04570E+00  1.01103E+00  3.46625E-02
    9033.515     38.879   3.480  1.05990E+00  1.00838E+00  5.15224E-02
    9034.582     39.945   3.520  1.07468E+00  1.00575E+00  6.89313E-02
    9035.661     41.024   3.560  1.08879E+00  1.00317E+00  8.56144E-02
    9036.752     42.115   3.600  1.10068E+00  1.00065E+00  1.00029E-01
    9037.855     43.219   3.640  1.10898E+00  9.98206E-01  1.10774E-01
    9038.971     44.334   3.680  1.11281E+00  9.95863E-01  1.16952E-01
    9040.099     45.462   3.720  1.11198E+00  9.93585E-01  1.18393E-01
    9041.238     46.602   3.760  1.10720E+00  9.91439E-01  1.15763E-01
    9042.391     47.754   3.800  1.09946E+00  9.89385E-01  1.10071E-01
    9043.555     48.919   3.840  1.08980E+00  9.87427E-01  1.02372E-01
    9044.731     50.095   3.880  1.07926E+00  9.85610E-01  9.36529E-02
    9045.920     51.284   3.920  1.06855E+00  9.83917E-01  8.46348E-02
    9047.121     52.485   3.960  1.05805E+00  9.82371E-01  7.56747E-02
    9048.334     53.698   4.000  1.04775E+00  9.80930E-01  6.68219E-02
    9049.559     54.923   4.040  1.03753E+00  9.79657E-01  5.78719E-02
    9050.797     56.161   4.080  1.02696E+00  9.78492E-01  4.84680E-02
    9052.047     57.410   4.120  1.01585E+00  9.77476E-01  3.83737E-02
    9053.308     58.672   4.160  1.00419E+00  9.76588E-01  2.75985E-02
    9054.583     59.946   4.200  9.92211E-01  9.75851E-01  1.63597E-02
    9055.869     61.232   4.240  9.80264E-01  9.75264E-01  5.00046E-03
    9057.167     62.531   4.280  9.68722E-01  9.74785E-01 -6.06242E-03
    9058.478     63.842   4.320  9.57953E-01  9.74473E-01 -1.65200E-02
    9059.801     65.164   4.360  9.47995E-01  9.74266E-01 -2.62710E-02
    9061.136     66.499   4.400  9.38863E-01  9.74203E-01 -3.53405E-02
    9062.483     67.847   4.440  9.30495E-01  9.74242E-01 -4.37473E-02
    9063.842     69.206   4.480  9.23072E-01  9.74422E-01 -5.13493E-02
    9065.214     70.578   4.520  9.16939E-01  9.74719E-01 -5.77800E-02
    9066.598     71.961   4.560  9.12536E-01  9.75111E-01 -6.25744E-02
    9067.994     73.357   4.600  9.10225E-01  9.75614E-01 -6.53893E-02
    9069.402     74.766   4.640  9.10115E-01  9.76206E-01 -6.60908E-02
    9070.822     76.186   4.680  9.12106E-01  9.76905E-01 -6.47987E-02
    9072.255     77.618   4.720  9.15841E-01  9.77686E-01 -6.18445E-02
    9073.700     79.063   4.760  9.20895E-01  9.78524E-01 -5.76289E-02
    9075.156     80.520   4.800  9.26941E-01  9.79460E-01 -5.25188E-02
    9076.626     81.989   4.840  9.33606E-01  9.80445E-01 -4.68388E-02
    9078.107     83.471   4.880  9.40718E-01  9.81474E-01 -4.07565E-02
    9079.600     84.964   4.920  9.48180E-01  9.82547E-01 -3.43677E-02
    9081.106     86.470   4.960  9.55912E-01  9.83680E-01 -2.77687E-02
    9082.624     87.988   5.000  9.63758E-01  9.84826E-01 -2.10682E-02
    9084.154     89.518   5.040  9.71598E-01  9.85981E-01 -1.43822E-02
    9085.696     91.060   5.080  9.79339E-01  9.87162E-01 -7.82317E-03
    9087.251     92.615   5.120  9.86750E-01  9.88344E-01 -1.59409E-03
    9088.818     94.181   5.160  9.93468E-01  9.89524E-01  3.94452E-03
    9090.396     95.760   5.200  9.99007E-01  9.90674E-01  8.33295E-03
    9091.987     97.351   5.240  1.00303E+00  9.91814E-01  1.12125E-02
    9093.591     98.954   5.280  1.00539E+00  9.92918E-01  1.24676E-02
    9095.206    100.570   5.320  1.00624E+00  9.93982E-01  1.22609E-02
    9096.834    102.197   5.360  1.00600E+00  9.95003E-01  1.09967E-02
    9098.474    103.837   5.400  1.00522E+00  9.95977E-01  9.24009E-03
    9100.126    105.489   5.440  1.00453E+00  9.96880E-01  7.65371E-03
    9101.790    107.153   5.480  1.00461E+00  9.97707E-01  6.90630E-03
    9103.466    108.830   5.520  1.00603E+00  9.98477E-01  7.55279E-03
    9105.155    110.518   5.560  1.00901E+00  9.99148E-01  9.86155E-03
    9106.856    112.219   5.600  1.01343E+00  9.99757E-01  1.36754E-02
    9108.568    113.932   5.640  1.01866E+00  1.00026E+00  1.84024E-02
    9110.294    115.657   5.680  1.02387E+00  1.00068E+00  2.31871E-02
    9112.031    117.395   5.720  1.02819E+00  1.00101E+00  2.71763E-02
    9113.781    119.144   5.760  1.03099E+00  1.00124E+00  2.97545E-02
    9115.542    120.906   5.800  1.03209E+00  1.00138E+00  3.07153E-02
    9117.316    122.680   5.840  1.03170E+00  1.00143E+00  3.02728E-02
    9119.102    124.466   5.880  1.03028E+00  1.00137E+00  2.89109E-02
    9120.901    126.264   5.920  1.02840E+00  1.00120E+00  2.72001E-02
    9122.711    128.075   5.960  1.02653E+00  1.00092E+00  2.56074E-02
    9124.534    129.897   6.000  1.02482E+00  1.00050E+00  2.43154E-02
