# # comment:                                                     FEFF 9.9.1  
# # Source:
# # Structure
# # Reduced
# # space
# # abc:
# # angles:119.132139
# # sites:
# # POT  SCF 100  7.0000   0, screened core-hole, AFOLP (folp(0)= 1.150)
# # Abs   Z=29 Rmt= 1.146 Rnm= 1.278 K  shell
# # Pot 1 Z=25 Rmt= 1.196 Rnm= 1.344
# # Pot 2 Z=29 Rmt= 1.146 Rnm= 1.278
# # Pot 3 Z= 8 Rmt= 0.989 Rnm= 1.128
# # Gam_ch=1.729E+00 H-L exch Vi= 0.000E+00 Vr= 0.000E+00
# # Mu=-9.960E+00eV kf=2.147E+00 Vint=-1.555E+01eV Rs_int= 1.689
# FMS rfms= 9.0000
# # PATH  Rmax=-1.000,  Keep_limit= 0.00, Heap_limit 0.00  Pwcrit= 2.50%
#  S02=0.950  Temp=   0.00  Debye_temp=   0.00  Global_sig2= 0.00000
#  Energy zero shift, vr, vi    0.00000E+00   0.00000E+00
#  Curved wave amplitude ratio filter   4.000%
#     file         sig2 tot  cw amp ratio   deg  nlegs   reff  inp sig2
#     0/   0 paths used
#  xsedge+ 50, used to normalize mu           2.4494E-04
#  -----------------------------------------------------------------------
#  omega    e    k    mu    mu0     chi     @#
    8983.921    -13.770  -1.000  2.92694E-02  4.76465E-02 -1.83771E-02
    8984.220    -13.471  -0.960  3.06744E-02  5.08256E-02 -2.01512E-02
    8984.506    -13.185  -0.920  3.22068E-02  5.43302E-02 -2.21234E-02
    8984.780    -12.910  -0.880  3.38872E-02  5.82055E-02 -2.43183E-02
    8985.043    -12.648  -0.840  3.57405E-02  6.25036E-02 -2.67631E-02
    8985.293    -12.398  -0.800  3.77967E-02  6.72848E-02 -2.94881E-02
    8985.530    -12.161  -0.760  4.00913E-02  7.26177E-02 -3.25264E-02
    8985.756    -11.935  -0.720  4.26656E-02  7.85795E-02 -3.59138E-02
    8985.969    -11.722  -0.680  4.55668E-02  8.52544E-02 -3.96876E-02
    8986.170    -11.520  -0.640  4.88461E-02  9.27311E-02 -4.38850E-02
    8986.359    -11.331  -0.600  5.25552E-02  1.01095E-01 -4.85402E-02
    8986.536    -11.155  -0.560  5.67398E-02  1.10420E-01 -5.36799E-02
    8986.701    -10.990  -0.520  6.14279E-02  1.20745E-01 -5.93169E-02
    8986.853    -10.838  -0.480  6.66146E-02  1.32056E-01 -6.54414E-02
    8986.993    -10.697  -0.440  7.22446E-02  1.44256E-01 -7.20112E-02
    8987.121    -10.569  -0.400  7.81969E-02  1.57139E-01 -7.89425E-02
    8987.237    -10.454  -0.360  8.42841E-02  1.70388E-01 -8.61037E-02
    8987.341    -10.350  -0.320  9.02690E-02  1.83587E-01 -9.33176E-02
    8987.432    -10.259  -0.280  9.59026E-02  1.96274E-01 -1.00372E-01
    8987.511    -10.179  -0.240  1.00967E-01  2.08002E-01 -1.07035E-01
    8987.578    -10.112  -0.200  1.05307E-01  2.18390E-01 -1.13083E-01
    8987.633    -10.057  -0.160  1.08841E-01  2.27151E-01 -1.18310E-01
    8987.676    -10.015  -0.120  1.11546E-01  2.34096E-01 -1.22550E-01
    8987.707     -9.984  -0.080  1.13439E-01  2.39112E-01 -1.25673E-01
    8987.731     -9.960   0.000  1.14918E-01  2.43153E-01 -1.28235E-01
    8987.786     -9.905   0.120  1.18462E-01  2.52282E-01 -1.33820E-01
    8987.828     -9.862   0.160  1.21026E-01  2.59411E-01 -1.38385E-01
    8987.883     -9.807   0.200  1.24089E-01  2.68558E-01 -1.44469E-01
    8987.950     -9.740   0.240  1.27436E-01  2.79644E-01 -1.52208E-01
    8988.030     -9.661   0.280  1.30761E-01  2.92503E-01 -1.61742E-01
    8988.121     -9.570   0.320  1.33688E-01  3.06887E-01 -1.73199E-01
    8988.225     -9.466   0.360  1.35799E-01  3.22472E-01 -1.86673E-01
    8988.340     -9.350   0.400  1.36747E-01  3.38920E-01 -2.02174E-01
    8988.469     -9.222   0.440  1.36359E-01  3.55919E-01 -2.19561E-01
    8988.609     -9.082   0.480  1.34800E-01  3.73203E-01 -2.38404E-01
    8988.761     -8.930   0.520  1.32654E-01  3.90617E-01 -2.57963E-01
    8988.926     -8.765   0.560  1.30876E-01  4.08091E-01 -2.77215E-01
    8989.102     -8.588   0.600  1.30492E-01  4.25596E-01 -2.95105E-01
    8989.291     -8.399   0.640  1.32457E-01  4.43148E-01 -3.10691E-01
    8989.493     -8.198   0.680  1.37417E-01  4.60820E-01 -3.23403E-01
    8989.706     -7.985   0.720  1.45352E-01  4.78614E-01 -3.33262E-01
    8989.932     -7.759   0.760  1.55278E-01  4.96606E-01 -3.41327E-01
    8990.169     -7.521   0.800  1.65000E-01  5.14826E-01 -3.49826E-01
    8990.419     -7.272   0.840  1.71995E-01  5.33252E-01 -3.61257E-01
    8990.681     -7.009   0.880  1.74583E-01  5.51934E-01 -3.77351E-01
    8990.956     -6.735   0.920  1.71906E-01  5.70807E-01 -3.98901E-01
    8991.242     -6.449   0.960  1.64915E-01  5.89900E-01 -4.24985E-01
    8991.541     -6.150   1.000  1.57254E-01  6.09174E-01 -4.51921E-01
    8991.852     -5.839   1.040  1.53217E-01  6.28561E-01 -4.75344E-01
    8992.175     -5.516   1.080  1.55061E-01  6.48027E-01 -4.92965E-01
    8992.510     -5.181   1.120  1.63319E-01  6.67513E-01 -5.04194E-01
    8992.858     -4.833   1.160  1.78283E-01  6.86979E-01 -5.08695E-01
    8993.217     -4.473   1.200  2.00569E-01  7.06337E-01 -5.05768E-01
    8993.589     -4.102   1.240  2.32021E-01  7.25541E-01 -4.93521E-01
    8993.973     -3.718   1.280  2.75755E-01  7.44523E-01 -4.68767E-01
    8994.369     -3.321   1.320  3.33879E-01  7.63211E-01 -4.29332E-01
    8994.778     -2.913   1.360  4.02082E-01  7.81538E-01 -3.79456E-01
    8995.198     -2.492   1.400  4.66830E-01  7.99453E-01 -3.32623E-01
    8995.631     -2.059   1.440  5.18532E-01  8.16890E-01 -2.98358E-01
    8996.076     -1.614   1.480  5.59232E-01  8.33803E-01 -2.74572E-01
    8996.533     -1.157   1.520  5.80001E-01  8.50128E-01 -2.70127E-01
    8997.003     -0.688   1.560  5.73427E-01  8.65822E-01 -2.92395E-01
    8997.484     -0.206   1.600  5.64416E-01  8.80848E-01 -3.16432E-01
    8997.978      0.287   1.640  5.85209E-01  8.95190E-01 -3.09981E-01
    8998.484      0.793   1.680  6.36558E-01  9.08815E-01 -2.72257E-01
    8999.002      1.312   1.720  6.92678E-01  9.21672E-01 -2.28994E-01
    8999.533      1.842   1.760  7.37505E-01  9.33774E-01 -1.96269E-01
    9000.075      2.384   1.800  7.75202E-01  9.45098E-01 -1.69896E-01
    9000.630      2.939   1.840  8.13445E-01  9.55662E-01 -1.42217E-01
    9001.197      3.506   1.880  8.55167E-01  9.65448E-01 -1.10280E-01
    9001.776      4.085   1.920  8.94694E-01  9.74479E-01 -7.97851E-02
    9002.367      4.677   1.960  9.36528E-01  9.82741E-01 -4.62132E-02
    9002.971      5.280   2.000  1.00675E+00  9.90264E-01  1.64854E-02
    9003.587      5.896   2.040  1.12785E+00  9.97076E-01  1.30775E-01
    9004.214      6.524   2.080  1.30420E+00  1.00319E+00  3.01014E-01
    9004.854      7.164   2.120  1.50322E+00  1.00864E+00  4.94580E-01
    9005.507      7.816   2.160  1.61153E+00  1.01344E+00  5.98090E-01
    9006.171      8.480   2.200  1.55349E+00  1.01762E+00  5.35865E-01
    9006.848      9.157   2.240  1.43907E+00  1.02122E+00  4.17852E-01
    9007.537      9.846   2.280  1.35757E+00  1.02426E+00  3.33315E-01
    9008.238     10.547   2.320  1.31048E+00  1.02679E+00  2.83690E-01
    9008.951     11.260   2.360  1.30323E+00  1.02883E+00  2.74393E-01
    9009.676     11.986   2.400  1.33908E+00  1.03042E+00  3.08654E-01
    9010.414     12.723   2.440  1.36555E+00  1.03160E+00  3.33952E-01
    9011.164     13.473   2.480  1.33805E+00  1.03239E+00  3.05653E-01
    9011.926     14.235   2.520  1.27166E+00  1.03282E+00  2.38833E-01
    9012.700     15.009   2.560  1.19330E+00  1.03293E+00  1.60378E-01
    9013.486     15.796   2.600  1.12419E+00  1.03272E+00  9.14789E-02
    9014.285     16.594   2.640  1.07333E+00  1.03227E+00  4.10615E-02
    9015.096     17.405   2.680  1.04502E+00  1.03156E+00  1.34597E-02
    9015.919     18.228   2.720  1.03633E+00  1.03066E+00  5.67322E-03
    9016.754     19.063   2.760  1.04044E+00  1.02956E+00  1.08806E-02
    9017.601     19.910   2.800  1.05064E+00  1.02830E+00  2.23353E-02
    9018.461     20.770   2.840  1.06050E+00  1.02689E+00  3.36142E-02
    9019.332     21.642   2.880  1.06426E+00  1.02537E+00  3.88811E-02
    9020.216     22.526   2.920  1.05797E+00  1.02375E+00  3.42212E-02
    9021.112     23.422   2.960  1.04256E+00  1.02206E+00  2.04972E-02
    9022.021     24.330   3.000  1.02283E+00  1.02030E+00  2.53253E-03
    9022.941     25.250   3.040  1.00426E+00  1.01850E+00 -1.42344E-02
    9023.874     26.183   3.080  9.90161E-01  1.01666E+00 -2.64950E-02
    9024.819     27.128   3.120  9.80999E-01  1.01481E+00 -3.38071E-02
    9025.776     28.085   3.160  9.75248E-01  1.01296E+00 -3.77074E-02
    9026.745     29.054   3.200  9.70734E-01  1.01113E+00 -4.03958E-02
    9027.727     30.036   3.240  9.64752E-01  1.00929E+00 -4.45406E-02
    9028.720     31.029   3.280  9.55406E-01  1.00751E+00 -5.21057E-02
    9029.726     32.035   3.320  9.42304E-01  1.00577E+00 -6.34650E-02
    9030.744     33.053   3.360  9.26604E-01  1.00405E+00 -7.74453E-02
    9031.774     34.084   3.400  9.10136E-01  1.00242E+00 -9.22833E-02
    9032.817     35.126   3.440  8.94489E-01  1.00084E+00 -1.06352E-01
    9033.871     36.181   3.480  8.80956E-01  9.99316E-01 -1.18360E-01
    9034.938     37.247   3.520  8.70285E-01  9.97890E-01 -1.27604E-01
    9036.017     38.326   3.560  8.62777E-01  9.96522E-01 -1.33744E-01
    9037.108     39.418   3.600  8.58669E-01  9.95255E-01 -1.36586E-01
    9038.212     40.521   3.640  8.58013E-01  9.94050E-01 -1.36037E-01
    9039.327     41.636   3.680  8.60415E-01  9.92950E-01 -1.32535E-01
    9040.455     42.764   3.720  8.65069E-01  9.91936E-01 -1.26867E-01
    9041.595     43.904   3.760  8.70984E-01  9.91009E-01 -1.20025E-01
    9042.747     45.056   3.800  8.77344E-01  9.90191E-01 -1.12847E-01
    9043.911     46.221   3.840  8.83713E-01  9.89461E-01 -1.05747E-01
    9045.088     47.397   3.880  8.90324E-01  9.88841E-01 -9.85173E-02
    9046.277     48.586   3.920  8.97764E-01  9.88308E-01 -9.05440E-02
    9047.478     49.787   3.960  9.06785E-01  9.87859E-01 -8.10743E-02
    9048.691     51.000   4.000  9.18041E-01  9.87499E-01 -6.94570E-02
    9049.916     52.225   4.040  9.31943E-01  9.87245E-01 -5.53021E-02
    9051.153     53.463   4.080  9.48481E-01  9.87078E-01 -3.85971E-02
    9052.403     54.712   4.120  9.67391E-01  9.86996E-01 -1.96046E-02
    9053.665     55.974   4.160  9.88190E-01  9.87017E-01  1.17304E-03
    9054.939     57.248   4.200  1.00976E+00  9.87099E-01  2.26594E-02
    9056.225     58.535   4.240  1.03055E+00  9.87262E-01  4.32835E-02
    9057.524     59.833   4.280  1.04914E+00  9.87527E-01  6.16138E-02
    9058.834     61.144   4.320  1.06468E+00  9.87848E-01  7.68331E-02
    9060.157     62.466   4.360  1.07718E+00  9.88246E-01  8.89368E-02
    9061.492     63.801   4.400  1.08723E+00  9.88717E-01  9.85143E-02
    9062.839     65.149   4.440  1.09537E+00  9.89240E-01  1.06126E-01
    9064.199     66.508   4.480  1.10179E+00  9.89833E-01  1.11958E-01
    9065.570     67.880   4.520  1.10638E+00  9.90475E-01  1.15905E-01
    9066.954     69.263   4.560  1.10887E+00  9.91160E-01  1.17707E-01
    9068.350     70.659   4.600  1.10885E+00  9.91909E-01  1.16943E-01
    9069.758     72.068   4.640  1.10563E+00  9.92678E-01  1.12953E-01
    9071.179     73.488   4.680  1.09839E+00  9.93506E-01  1.04885E-01
    9072.611     74.920   4.720  1.08666E+00  9.94350E-01  9.23067E-02
    9074.056     76.365   4.760  1.07098E+00  9.95226E-01  7.57566E-02
    9075.513     77.822   4.800  1.05286E+00  9.96111E-01  5.67494E-02
    9076.982     79.291   4.840  1.03418E+00  9.97025E-01  3.71563E-02
    9078.463     80.773   4.880  1.01668E+00  9.97945E-01  1.87334E-02
    9079.957     82.266   4.920  1.00163E+00  9.98868E-01  2.75812E-03
    9081.463     83.772   4.960  9.89810E-01  9.99813E-01 -1.00029E-02
    9082.980     85.290   5.000  9.81614E-01  1.00073E+00 -1.91205E-02
    9084.511     86.820   5.040  9.77185E-01  1.00165E+00 -2.44656E-02
    9086.053     88.362   5.080  9.76222E-01  1.00256E+00 -2.63384E-02
    9087.607     89.917   5.120  9.77959E-01  1.00344E+00 -2.54801E-02
    9089.174     91.483   5.160  9.81512E-01  1.00431E+00 -2.27953E-02
    9090.753     93.062   5.200  9.86198E-01  1.00514E+00 -1.89425E-02
    9092.344     94.653   5.240  9.91740E-01  1.00594E+00 -1.41970E-02
    9093.947     96.256   5.280  9.98219E-01  1.00672E+00 -8.49660E-03
    9095.563     97.872   5.320  1.00574E+00  1.00743E+00 -1.69091E-03
    9097.190     99.499   5.360  1.01430E+00  1.00813E+00  6.17023E-03
    9098.830    101.139   5.400  1.02332E+00  1.00876E+00  1.45555E-02
    9100.482    102.791   5.440  1.03170E+00  1.00935E+00  2.23514E-02
    9102.146    104.455   5.480  1.03790E+00  1.00989E+00  2.80180E-02
    9103.823    106.132   5.520  1.04042E+00  1.01036E+00  3.00643E-02
    9105.511    107.820   5.560  1.03843E+00  1.01080E+00  2.76304E-02
    9107.212    109.521   5.600  1.03197E+00  1.01115E+00  2.08240E-02
    9108.925    111.234   5.640  1.02197E+00  1.01145E+00  1.05246E-02
    9110.650    112.959   5.680  1.00955E+00  1.01170E+00 -2.15385E-03
    9112.387    114.697   5.720  9.95565E-01  1.01187E+00 -1.63097E-02
    9114.137    116.446   5.760  9.80732E-01  1.01198E+00 -3.12440E-02
    9115.899    118.208   5.800  9.65930E-01  1.01203E+00 -4.60977E-02
    9117.673    119.982   5.840  9.52429E-01  1.01201E+00 -5.95758E-02
    9119.459    121.768   5.880  9.41648E-01  1.01193E+00 -7.02857E-02
    9121.257    123.566   5.920  9.34360E-01  1.01179E+00 -7.74276E-02
    9123.068    125.377   5.960  9.30589E-01  1.01158E+00 -8.09950E-02
    9124.890    127.200   6.000  9.30008E-01  1.01123E+00 -8.12187E-02
