# # comment:                                                     FEFF 9.9.1  
# # Source:
# # Structure
# # Reduced
# # space
# # abc:
# # angles:
# # sites:
# # POT  SCF 100  7.0000   0, screened core-hole, AFOLP (folp(0)= 1.150)
# # Abs   Z=29 Rmt= 1.370 Rnm= 1.424 K  shell
# # Pot 1 Z= 3 Rmt= 1.272 Rnm= 1.335
# # Pot 2 Z=29 Rmt= 1.304 Rnm= 1.375
# # Pot 3 Z=15 Rmt= 0.947 Rnm= 1.158
# # Pot 4 Z= 8 Rmt= 0.942 Rnm= 1.041
# # Gam_ch=1.729E+00 H-L exch Vi= 0.000E+00 Vr= 0.000E+00
# # Mu=-6.144E+00eV kf=2.391E+00 Vint=-1.746E+01eV Rs_int= 1.517
# FMS rfms= 9.0000
# # PATH  Rmax=-1.000,  Keep_limit= 0.00, Heap_limit 0.00  Pwcrit= 2.50%
#  S02=0.950  Temp=   0.00  Debye_temp=   0.00  Global_sig2= 0.00000
#  Energy zero shift, vr, vi    0.00000E+00   0.00000E+00
#  Curved wave amplitude ratio filter   4.000%
#     file         sig2 tot  cw amp ratio   deg  nlegs   reff  inp sig2
#     0/   0 paths used
#  xsedge+ 50, used to normalize mu           2.4413E-04
#  -----------------------------------------------------------------------
#  omega    e    k    mu    mu0     chi     @#
    8983.603     -9.954  -1.000  5.26688E-02  5.61136E-02 -3.44482E-03
    8983.901     -9.655  -0.960  5.61770E-02  6.02161E-02 -4.03911E-03
    8984.188     -9.369  -0.920  6.00406E-02  6.47779E-02 -4.73728E-03
    8984.462     -9.094  -0.880  6.43090E-02  6.98667E-02 -5.55777E-03
    8984.724     -8.832  -0.840  6.90398E-02  7.55620E-02 -6.52227E-03
    8984.974     -8.582  -0.800  7.42995E-02  8.19556E-02 -7.65610E-03
    8985.212     -8.345  -0.760  8.01644E-02  8.91529E-02 -8.98853E-03
    8985.437     -8.119  -0.720  8.67204E-02  9.72733E-02 -1.05529E-02
    8985.651     -7.906  -0.680  9.40621E-02  1.06448E-01 -1.23863E-02
    8985.852     -7.705  -0.640  1.02289E-01  1.16817E-01 -1.45282E-02
    8986.041     -7.516  -0.600  1.11498E-01  1.28516E-01 -1.70178E-02
    8986.218     -7.339  -0.560  1.21772E-01  1.41662E-01 -1.98896E-02
    8986.382     -7.174  -0.520  1.33158E-01  1.56324E-01 -2.31658E-02
    8986.535     -7.022  -0.480  1.45643E-01  1.72489E-01 -2.68460E-02
    8986.675     -6.882  -0.440  1.59117E-01  1.90013E-01 -3.08954E-02
    8986.803     -6.754  -0.400  1.73354E-01  2.08590E-01 -3.52353E-02
    8986.919     -6.638  -0.360  1.87998E-01  2.27738E-01 -3.97402E-02
    8987.022     -6.534  -0.320  2.02583E-01  2.46831E-01 -4.42472E-02
    8987.114     -6.443  -0.280  2.16596E-01  2.65173E-01 -4.85773E-02
    8987.193     -6.364  -0.240  2.29536E-01  2.82098E-01 -5.25624E-02
    8987.260     -6.296  -0.200  2.40982E-01  2.97049E-01 -5.60667E-02
    8987.315     -6.242  -0.160  2.50623E-01  3.09619E-01 -5.89962E-02
    8987.358     -6.199  -0.120  2.58253E-01  3.19550E-01 -6.12970E-02
    8987.388     -6.168  -0.080  2.63755E-01  3.26701E-01 -6.29459E-02
    8987.413     -6.144   0.000  2.68172E-01  3.32444E-01 -6.42720E-02
    8987.467     -6.089   0.120  2.78058E-01  3.45399E-01 -6.73412E-02
    8987.510     -6.047   0.160  2.85760E-01  3.55437E-01 -6.96770E-02
    8987.565     -5.992   0.200  2.95659E-01  3.68274E-01 -7.26151E-02
    8987.632     -5.925   0.240  3.07592E-01  3.83684E-01 -7.60921E-02
    8987.711     -5.845   0.280  3.21350E-01  4.01345E-01 -7.99955E-02
    8987.803     -5.754   0.320  3.36633E-01  4.20807E-01 -8.41748E-02
    8987.906     -5.650   0.360  3.52978E-01  4.41450E-01 -8.84722E-02
    8988.022     -5.534   0.400  3.69955E-01  4.62701E-01 -9.27460E-02
    8988.150     -5.406   0.440  3.87039E-01  4.83958E-01 -9.69186E-02
    8988.290     -5.266   0.480  4.03797E-01  5.04809E-01 -1.01012E-01
    8988.443     -5.114   0.520  4.19804E-01  5.24962E-01 -1.05158E-01
    8988.607     -4.949   0.560  4.34750E-01  5.44273E-01 -1.09523E-01
    8988.784     -4.772   0.600  4.48605E-01  5.62752E-01 -1.14147E-01
    8988.973     -4.583   0.640  4.61713E-01  5.80446E-01 -1.18733E-01
    8989.174     -4.382   0.680  4.75060E-01  5.97461E-01 -1.22401E-01
    8989.388     -4.169   0.720  4.90287E-01  6.13879E-01 -1.23592E-01
    8989.613     -3.943   0.760  5.09525E-01  6.29861E-01 -1.20335E-01
    8989.851     -3.706   0.800  5.34424E-01  6.45457E-01 -1.11033E-01
    8990.101     -3.456   0.840  5.65258E-01  6.60765E-01 -9.55071E-02
    8990.363     -3.194   0.880  5.99754E-01  6.75867E-01 -7.61128E-02
    8990.637     -2.919   0.920  6.32389E-01  6.90810E-01 -5.84215E-02
    8990.924     -2.633   0.960  6.56263E-01  7.05630E-01 -4.93671E-02
    8991.223     -2.334   1.000  6.68603E-01  7.20351E-01 -5.17478E-02
    8991.533     -2.023   1.040  6.74081E-01  7.35003E-01 -6.09215E-02
    8991.856     -1.700   1.080  6.81189E-01  7.49572E-01 -6.83828E-02
    8992.192     -1.365   1.120  6.97061E-01  7.64074E-01 -6.70135E-02
    8992.539     -1.017   1.160  7.25392E-01  7.78480E-01 -5.30877E-02
    8992.899     -0.658   1.200  7.65112E-01  7.92793E-01 -2.76812E-02
    8993.271     -0.286   1.240  8.10098E-01  8.06996E-01  3.10166E-03
    8993.655      0.098   1.280  8.54400E-01  8.21045E-01  3.33549E-02
    8994.051      0.494   1.320  8.96730E-01  8.34912E-01  6.18179E-02
    8994.459      0.903   1.360  9.38784E-01  8.48591E-01  9.01927E-02
    8994.880      1.324   1.400  9.82519E-01  8.62052E-01  1.20467E-01
    8995.313      1.756   1.440  1.03100E+00  8.75241E-01  1.55761E-01
    8995.758      2.201   1.480  1.08718E+00  8.88126E-01  1.99059E-01
    8996.215      2.659   1.520  1.14910E+00  9.00674E-01  2.48423E-01
    8996.685      3.128   1.560  1.20988E+00  9.12870E-01  2.97010E-01
    8997.166      3.610   1.600  1.25826E+00  9.24662E-01  3.33602E-01
    8997.660      4.103   1.640  1.28234E+00  9.36014E-01  3.46325E-01
    8998.166      4.609   1.680  1.28314E+00  9.46938E-01  3.36200E-01
    8998.684      5.127   1.720  1.27380E+00  9.57360E-01  3.16443E-01
    8999.214      5.658   1.760  1.26026E+00  9.67290E-01  2.92969E-01
    8999.757      6.200   1.800  1.23628E+00  9.76698E-01  2.59582E-01
    9000.312      6.755   1.840  1.20035E+00  9.85556E-01  2.14791E-01
    9000.879      7.322   1.880  1.16447E+00  9.93858E-01  1.70612E-01
    9001.458      7.901   1.920  1.14444E+00  1.00158E+00  1.42866E-01
    9002.049      8.492   1.960  1.14601E+00  1.00873E+00  1.37284E-01
    9002.652      9.096   2.000  1.16024E+00  1.01528E+00  1.44969E-01
    9003.268      9.712   2.040  1.16997E+00  1.02126E+00  1.48711E-01
    9003.896     10.339   2.080  1.16458E+00  1.02665E+00  1.37929E-01
    9004.536     10.980   2.120  1.14504E+00  1.03146E+00  1.13571E-01
    9005.188     11.632   2.160  1.11489E+00  1.03572E+00  7.91691E-02
    9005.853     12.296   2.200  1.07971E+00  1.03941E+00  4.03043E-02
    9006.530     12.973   2.240  1.04894E+00  1.04255E+00  6.38297E-03
    9007.218     13.662   2.280  1.02766E+00  1.04518E+00 -1.75201E-02
    9007.919     14.363   2.320  1.01310E+00  1.04729E+00 -3.41870E-02
    9008.633     15.076   2.360  1.00166E+00  1.04892E+00 -4.72626E-02
    9009.358     15.801   2.400  9.91858E-01  1.05007E+00 -5.82145E-02
    9010.096     16.539   2.440  9.83606E-01  1.05080E+00 -6.71911E-02
    9010.845     17.289   2.480  9.76677E-01  1.05111E+00 -7.44297E-02
    9011.607     18.051   2.520  9.69218E-01  1.05104E+00 -8.18179E-02
    9012.382     18.825   2.560  9.60904E-01  1.05060E+00 -8.96934E-02
    9013.168     19.611   2.600  9.53426E-01  1.04985E+00 -9.64228E-02
    9013.967     20.410   2.640  9.47646E-01  1.04876E+00 -1.01115E-01
    9014.777     21.221   2.680  9.43400E-01  1.04743E+00 -1.04030E-01
    9015.600     22.044   2.720  9.39425E-01  1.04583E+00 -1.06406E-01
    9016.435     22.879   2.760  9.34220E-01  1.04402E+00 -1.09797E-01
    9017.283     23.726   2.800  9.31223E-01  1.04202E+00 -1.10800E-01
    9018.142     24.586   2.840  9.31377E-01  1.03986E+00 -1.08485E-01
    9019.014     25.457   2.880  9.32888E-01  1.03755E+00 -1.04659E-01
    9019.898     26.341   2.920  9.34128E-01  1.03511E+00 -1.00980E-01
    9020.794     27.238   2.960  9.34984E-01  1.03260E+00 -9.76194E-02
    9021.702     28.146   3.000  9.36500E-01  1.03000E+00 -9.35008E-02
    9022.623     29.066   3.040  9.39775E-01  1.02737E+00 -8.75978E-02
    9023.556     29.999   3.080  9.45246E-01  1.02471E+00 -7.94620E-02
    9024.500     30.944   3.120  9.52904E-01  1.02204E+00 -6.91345E-02
    9025.458     31.901   3.160  9.62276E-01  1.01937E+00 -5.70963E-02
    9026.427     32.870   3.200  9.72608E-01  1.01674E+00 -4.41320E-02
    9027.408     33.852   3.240  9.83377E-01  1.01415E+00 -3.07717E-02
    9028.402     34.845   3.280  9.94038E-01  1.01163E+00 -1.75873E-02
    9029.408     35.851   3.320  1.00400E+00  1.00916E+00 -5.15318E-03
    9030.426     36.869   3.360  1.01289E+00  1.00677E+00  6.12344E-03
    9031.456     37.899   3.400  1.02071E+00  1.00449E+00  1.62179E-02
    9032.498     38.942   3.440  1.02767E+00  1.00233E+00  2.53393E-02
    9033.553     39.996   3.480  1.03403E+00  1.00026E+00  3.37675E-02
    9034.620     41.063   3.520  1.03992E+00  9.98310E-01  4.16133E-02
    9035.699     42.142   3.560  1.04527E+00  9.96487E-01  4.87851E-02
    9036.790     43.233   3.600  1.04990E+00  9.94813E-01  5.50906E-02
    9037.893     44.337   3.640  1.05360E+00  9.93269E-01  6.03347E-02
    9039.009     45.452   3.680  1.05628E+00  9.91878E-01  6.44004E-02
    9040.137     46.580   3.720  1.05787E+00  9.90621E-01  6.72518E-02
    9041.277     47.720   3.760  1.05855E+00  9.89520E-01  6.90282E-02
    9042.429     48.872   3.800  1.05845E+00  9.88576E-01  6.98737E-02
    9043.593     50.036   3.840  1.05764E+00  9.87767E-01  6.98712E-02
    9044.770     51.213   3.880  1.05618E+00  9.87115E-01  6.90681E-02
    9045.958     52.402   3.920  1.05406E+00  9.86622E-01  6.74419E-02
    9047.159     53.603   3.960  1.05115E+00  9.86283E-01  6.48702E-02
    9048.372     54.816   4.000  1.04716E+00  9.86077E-01  6.10841E-02
    9049.598     56.041   4.040  1.04180E+00  9.86002E-01  5.58015E-02
    9050.835     57.278   4.080  1.03484E+00  9.86077E-01  4.87652E-02
    9052.085     58.528   4.120  1.02628E+00  9.86283E-01  3.99938E-02
    9053.347     59.790   4.160  1.01654E+00  9.86635E-01  2.99055E-02
    9054.621     61.064   4.200  1.00628E+00  9.87090E-01  1.91931E-02
    9055.907     62.350   4.240  9.96228E-01  9.87686E-01  8.54198E-03
    9057.205     63.649   4.280  9.86885E-01  9.88376E-01 -1.49140E-03
    9058.516     64.959   4.320  9.78551E-01  9.89160E-01 -1.06094E-02
    9059.839     66.282   4.360  9.71337E-01  9.90075E-01 -1.87380E-02
    9061.174     67.617   4.400  9.65207E-01  9.91053E-01 -2.58457E-02
    9062.521     68.964   4.440  9.60305E-01  9.92112E-01 -3.18076E-02
    9063.880     70.324   4.480  9.56870E-01  9.93250E-01 -3.63794E-02
    9065.252     71.695   4.520  9.55209E-01  9.94460E-01 -3.92508E-02
    9066.636     73.079   4.560  9.55446E-01  9.95717E-01 -4.02715E-02
    9068.032     74.475   4.600  9.57380E-01  9.97017E-01 -3.96378E-02
    9069.440     75.883   4.640  9.60528E-01  9.98356E-01 -3.78277E-02
    9070.860     77.304   4.680  9.64368E-01  9.99729E-01 -3.53610E-02
    9072.293     78.736   4.720  9.68467E-01  1.00111E+00 -3.26441E-02
    9073.738     80.181   4.760  9.72659E-01  1.00252E+00 -2.98577E-02
    9075.195     81.638   4.800  9.76843E-01  1.00390E+00 -2.70559E-02
    9076.664     83.107   4.840  9.81004E-01  1.00527E+00 -2.42678E-02
    9078.145     84.588   4.880  9.85138E-01  1.00661E+00 -2.14765E-02
    9079.639     86.082   4.920  9.89331E-01  1.00794E+00 -1.86103E-02
    9081.144     87.588   4.960  9.93606E-01  1.00923E+00 -1.56229E-02
    9082.662     89.106   5.000  9.97876E-01  1.01045E+00 -1.25730E-02
    9084.192     90.636   5.040  1.00193E+00  1.01164E+00 -9.70788E-03
    9085.734     92.178   5.080  1.00537E+00  1.01274E+00 -7.36589E-03
    9087.289     93.732   5.120  1.00798E+00  1.01378E+00 -5.80371E-03
    9088.856     95.299   5.160  1.00967E+00  1.01474E+00 -5.06971E-03
    9090.434     96.878   5.200  1.01062E+00  1.01562E+00 -5.00365E-03
    9092.026     98.469   5.240  1.01106E+00  1.01641E+00 -5.34896E-03
    9093.629    100.072   5.280  1.01122E+00  1.01709E+00 -5.86881E-03
    9095.244    101.688   5.320  1.01128E+00  1.01769E+00 -6.41093E-03
    9096.872    103.315   5.360  1.01126E+00  1.01819E+00 -6.93165E-03
    9098.512    104.955   5.400  1.01115E+00  1.01858E+00 -7.42950E-03
    9100.164    106.607   5.440  1.01106E+00  1.01887E+00 -7.81802E-03
    9101.828    108.271   5.480  1.01126E+00  1.01905E+00 -7.79244E-03
    9103.504    109.948   5.520  1.01228E+00  1.01912E+00 -6.83491E-03
    9105.193    111.636   5.560  1.01468E+00  1.01909E+00 -4.40566E-03
    9106.894    113.337   5.600  1.01876E+00  1.01895E+00 -1.88758E-04
    9108.607    115.050   5.640  1.02443E+00  1.01871E+00  5.71897E-03
    9110.332    116.775   5.680  1.03113E+00  1.01837E+00  1.27665E-02
    9112.069    118.513   5.720  1.03796E+00  1.01793E+00  2.00319E-02
    9113.819    120.262   5.760  1.04380E+00  1.01739E+00  2.64109E-02
    9115.580    122.024   5.800  1.04763E+00  1.01679E+00  3.08379E-02
    9117.354    123.798   5.840  1.04861E+00  1.01608E+00  3.25277E-02
    9119.140    125.584   5.880  1.04658E+00  1.01530E+00  3.12737E-02
    9120.939    127.382   5.920  1.04213E+00  1.01448E+00  2.76516E-02
    9122.749    129.193   5.960  1.03641E+00  1.01359E+00  2.28144E-02
    9124.572    131.015   6.000  1.03049E+00  1.01261E+00  1.78830E-02
