# # comment:                                                     FEFF 9.9.1  
# # Source:
# # Structure
# # Reduced
# # space
# # abc:
# # angles:
# # sites:
# # POT  SCF 100  7.0000   0, screened core-hole, AFOLP (folp(0)= 1.150)
# # Abs   Z=29 Rmt= 1.273 Rnm= 1.359 K  shell
# # Pot 1 Z= 3 Rmt= 1.268 Rnm= 1.339
# # Pot 2 Z=29 Rmt= 1.273 Rnm= 1.359
# # Pot 3 Z=14 Rmt= 1.018 Rnm= 1.226
# # Pot 4 Z= 8 Rmt= 0.909 Rnm= 1.070
# # Gam_ch=1.729E+00 H-L exch Vi= 0.000E+00 Vr= 0.000E+00
# # Mu=-8.029E+00eV kf=2.315E+00 Vint=-1.656E+01eV Rs_int= 1.567
# FMS rfms= 9.0000
# # PATH  Rmax=-1.000,  Keep_limit= 0.00, Heap_limit 0.00  Pwcrit= 2.50%
#  S02=0.950  Temp=   0.00  Debye_temp=   0.00  Global_sig2= 0.00000
#  Energy zero shift, vr, vi    0.00000E+00   0.00000E+00
#  Curved wave amplitude ratio filter   4.000%
#     file         sig2 tot  cw amp ratio   deg  nlegs   reff  inp sig2
#     0/   0 paths used
#  xsedge+ 50, used to normalize mu           2.4814E-04
#  -----------------------------------------------------------------------
#  omega    e    k    mu    mu0     chi     @#
    8983.494    -11.839  -1.000  3.51838E-02  4.92882E-02 -1.41045E-02
    8983.792    -11.541  -0.960  3.68758E-02  5.27541E-02 -1.58783E-02
    8984.079    -11.254  -0.920  3.86758E-02  5.65970E-02 -1.79212E-02
    8984.353    -10.980  -0.880  4.05927E-02  6.08719E-02 -2.02792E-02
    8984.615    -10.718  -0.840  4.26363E-02  6.56426E-02 -2.30063E-02
    8984.865    -10.468  -0.800  4.48170E-02  7.09829E-02 -2.61659E-02
    8985.103    -10.230  -0.760  4.71461E-02  7.69778E-02 -2.98317E-02
    8985.329    -10.004  -0.720  4.96353E-02  8.37228E-02 -3.40875E-02
    8985.542     -9.791  -0.680  5.22963E-02  9.13233E-02 -3.90270E-02
    8985.743     -9.590  -0.640  5.51401E-02  9.98903E-02 -4.47502E-02
    8985.932     -9.401  -0.600  5.81754E-02  1.09533E-01 -5.13572E-02
    8986.109     -9.224  -0.560  6.14068E-02  1.20343E-01 -5.89361E-02
    8986.273     -9.060  -0.520  6.48314E-02  1.32376E-01 -6.75445E-02
    8986.426     -8.907  -0.480  6.84349E-02  1.45618E-01 -7.71832E-02
    8986.566     -8.767  -0.440  7.21868E-02  1.59954E-01 -8.77667E-02
    8986.694     -8.639  -0.400  7.60373E-02  1.75134E-01 -9.90971E-02
    8986.810     -8.523  -0.360  7.99150E-02  1.90772E-01 -1.10857E-01
    8986.914     -8.420  -0.320  8.37306E-02  2.06360E-01 -1.22629E-01
    8987.005     -8.328  -0.280  8.73842E-02  2.21337E-01 -1.33953E-01
    8987.084     -8.249  -0.240  9.07745E-02  2.35164E-01 -1.44390E-01
    8987.151     -8.182  -0.200  9.38084E-02  2.47386E-01 -1.53578E-01
    8987.206     -8.127  -0.160  9.64055E-02  2.57671E-01 -1.61266E-01
    8987.249     -8.084  -0.120  9.85010E-02  2.65804E-01 -1.67303E-01
    8987.279     -8.054  -0.080  1.00045E-01  2.71665E-01 -1.71620E-01
    8987.304     -8.029   0.000  1.01333E-01  2.76375E-01 -1.75042E-01
    8987.359     -7.975   0.120  1.04288E-01  2.87016E-01 -1.82727E-01
    8987.401     -7.932   0.160  1.06562E-01  2.95277E-01 -1.88714E-01
    8987.456     -7.877   0.200  1.09519E-01  3.05835E-01 -1.96316E-01
    8987.523     -7.810   0.240  1.13231E-01  3.18555E-01 -2.05324E-01
    8987.602     -7.731   0.280  1.17708E-01  3.33171E-01 -2.15463E-01
    8987.694     -7.639   0.320  1.23071E-01  3.49347E-01 -2.26275E-01
    8987.797     -7.536   0.360  1.29402E-01  3.66615E-01 -2.37214E-01
    8987.913     -7.420   0.400  1.36840E-01  3.84522E-01 -2.47682E-01
    8988.041     -7.292   0.440  1.45532E-01  4.02591E-01 -2.57059E-01
    8988.181     -7.152   0.480  1.55728E-01  4.20510E-01 -2.64782E-01
    8988.334     -6.999   0.520  1.67643E-01  4.38043E-01 -2.70400E-01
    8988.498     -6.835   0.560  1.81559E-01  4.55073E-01 -2.73514E-01
    8988.675     -6.658   0.600  1.97788E-01  4.71634E-01 -2.73845E-01
    8988.864     -6.469   0.640  2.16453E-01  4.87715E-01 -2.71262E-01
    8989.065     -6.268   0.680  2.37356E-01  5.03398E-01 -2.66042E-01
    8989.279     -6.054   0.720  2.59371E-01  5.18773E-01 -2.59402E-01
    8989.504     -5.829   0.760  2.80086E-01  5.33910E-01 -2.53825E-01
    8989.742     -5.591   0.800  2.96854E-01  5.48893E-01 -2.52039E-01
    8989.992     -5.341   0.840  3.08582E-01  5.63771E-01 -2.55189E-01
    8990.254     -5.079   0.880  3.16601E-01  5.78586E-01 -2.61985E-01
    8990.528     -4.805   0.920  3.23283E-01  5.93344E-01 -2.70062E-01
    8990.815     -4.518   0.960  3.30578E-01  6.08122E-01 -2.77544E-01
    8991.114     -4.219   1.000  3.39955E-01  6.22869E-01 -2.82914E-01
    8991.425     -3.909   1.040  3.53199E-01  6.37625E-01 -2.84426E-01
    8991.748     -3.585   1.080  3.72752E-01  6.52383E-01 -2.79631E-01
    8992.083     -3.250   1.120  4.01333E-01  6.67130E-01 -2.65797E-01
    8992.430     -2.903   1.160  4.40622E-01  6.81809E-01 -2.41187E-01
    8992.790     -2.543   1.200  4.89973E-01  6.96459E-01 -2.06486E-01
    8993.162     -2.171   1.240  5.46389E-01  7.11017E-01 -1.64628E-01
    8993.546     -1.787   1.280  6.07633E-01  7.25456E-01 -1.17823E-01
    8993.942     -1.391   1.320  6.74406E-01  7.39788E-01 -6.53824E-02
    8994.351     -0.982   1.360  7.46753E-01  7.53921E-01 -7.16869E-03
    8994.771     -0.562   1.400  8.16766E-01  7.67866E-01  4.88998E-02
    8995.204     -0.129   1.440  8.70573E-01  7.81591E-01  8.89828E-02
    8995.649      0.316   1.480  9.01675E-01  7.95063E-01  1.06613E-01
    8996.106      0.773   1.520  9.21155E-01  8.08231E-01  1.12924E-01
    8996.576      1.243   1.560  9.50018E-01  8.21103E-01  1.28915E-01
    8997.057      1.724   1.600  9.98942E-01  8.33627E-01  1.65314E-01
    8997.551      2.218   1.640  1.05805E+00  8.45774E-01  2.12281E-01
    8998.057      2.724   1.680  1.11126E+00  8.57552E-01  2.53712E-01
    8998.575      3.242   1.720  1.14064E+00  8.68894E-01  2.71742E-01
    8999.105      3.772   1.760  1.13609E+00  8.79830E-01  2.56257E-01
    8999.648      4.315   1.800  1.11656E+00  8.90315E-01  2.26243E-01
    9000.203      4.870   1.840  1.10095E+00  9.00364E-01  2.00588E-01
    9000.770      5.437   1.880  1.08949E+00  9.09930E-01  1.79556E-01
    9001.349      6.016   1.920  1.08108E+00  9.19011E-01  1.62072E-01
    9001.940      6.607   1.960  1.07754E+00  9.27645E-01  1.49893E-01
    9002.544      7.211   2.000  1.07596E+00  9.35771E-01  1.40194E-01
    9003.159      7.826   2.040  1.07084E+00  9.43428E-01  1.27413E-01
    9003.787      8.454   2.080  1.06302E+00  9.50597E-01  1.12426E-01
    9004.427      9.094   2.120  1.06175E+00  9.57282E-01  1.04464E-01
    9005.080      9.746   2.160  1.07169E+00  9.63506E-01  1.08185E-01
    9005.744     10.411   2.200  1.08802E+00  9.69253E-01  1.18769E-01
    9006.421     11.088   2.240  1.10511E+00  9.74568E-01  1.30541E-01
    9007.110     11.776   2.280  1.11846E+00  9.79438E-01  1.39026E-01
    9007.811     12.477   2.320  1.12440E+00  9.83867E-01  1.40534E-01
    9008.524     13.191   2.360  1.12077E+00  9.87882E-01  1.32889E-01
    9009.249     13.916   2.400  1.10734E+00  9.91492E-01  1.15851E-01
    9009.987     14.654   2.440  1.08641E+00  9.94705E-01  9.17058E-02
    9010.737     15.404   2.480  1.06004E+00  9.97569E-01  6.24679E-02
    9011.499     16.166   2.520  1.03115E+00  1.00007E+00  3.10800E-02
    9012.273     16.940   2.560  1.00344E+00  1.00222E+00  1.21253E-03
    9013.059     17.726   2.600  9.78946E-01  1.00407E+00 -2.51265E-02
    9013.858     18.525   2.640  9.58391E-01  1.00561E+00 -4.72180E-02
    9014.669     19.335   2.680  9.42211E-01  1.00688E+00 -6.46703E-02
    9015.491     20.158   2.720  9.33921E-01  1.00788E+00 -7.39588E-02
    9016.327     20.994   2.760  9.32883E-01  1.00863E+00 -7.57483E-02
    9017.174     21.841   2.800  9.35918E-01  1.00917E+00 -7.32482E-02
    9018.033     22.700   2.840  9.40338E-01  1.00947E+00 -6.91334E-02
    9018.905     23.572   2.880  9.43685E-01  1.00958E+00 -6.58927E-02
    9019.789     24.456   2.920  9.45703E-01  1.00951E+00 -6.38101E-02
    9020.685     25.352   2.960  9.47320E-01  1.00931E+00 -6.19856E-02
    9021.594     26.260   3.000  9.49280E-01  1.00892E+00 -5.96436E-02
    9022.514     27.181   3.040  9.51436E-01  1.00843E+00 -5.69976E-02
    9023.447     28.114   3.080  9.53140E-01  1.00780E+00 -5.46651E-02
    9024.392     29.059   3.120  9.53808E-01  1.00710E+00 -5.32955E-02
    9025.349     30.016   3.160  9.52971E-01  1.00629E+00 -5.33237E-02
    9026.318     30.985   3.200  9.50842E-01  1.00541E+00 -5.45637E-02
    9027.299     31.966   3.240  9.48185E-01  1.00444E+00 -5.62566E-02
    9028.293     32.960   3.280  9.46021E-01  1.00345E+00 -5.74308E-02
    9029.299     33.966   3.320  9.45021E-01  1.00240E+00 -5.73773E-02
    9030.317     34.984   3.360  9.45672E-01  1.00133E+00 -5.56561E-02
    9031.347     36.014   3.400  9.47963E-01  1.00023E+00 -5.22623E-02
    9032.390     37.056   3.440  9.51482E-01  9.99094E-01 -4.76118E-02
    9033.444     38.111   3.480  9.55819E-01  9.97980E-01 -4.21614E-02
    9034.511     39.178   3.520  9.60709E-01  9.96867E-01 -3.61579E-02
    9035.590     40.257   3.560  9.66145E-01  9.95758E-01 -2.96126E-02
    9036.681     41.348   3.600  9.72243E-01  9.94677E-01 -2.24337E-02
    9037.784     42.451   3.640  9.79142E-01  9.93607E-01 -1.44644E-02
    9038.900     43.567   3.680  9.86882E-01  9.92569E-01 -5.68748E-03
    9040.028     44.695   3.720  9.95326E-01  9.91567E-01  3.75908E-03
    9041.168     45.835   3.760  1.00417E+00  9.90582E-01  1.35846E-02
    9042.320     46.987   3.800  1.01300E+00  9.89658E-01  2.33411E-02
    9043.484     48.151   3.840  1.02119E+00  9.88777E-01  3.24132E-02
    9044.661     49.328   3.880  1.02830E+00  9.87962E-01  4.03347E-02
    9045.849     50.516   3.920  1.03394E+00  9.87169E-01  4.67707E-02
    9047.050     51.717   3.960  1.03792E+00  9.86442E-01  5.14757E-02
    9048.263     52.930   4.000  1.04005E+00  9.85764E-01  5.42887E-02
    9049.489     54.156   4.040  1.04026E+00  9.85153E-01  5.51077E-02
    9050.726     55.393   4.080  1.03842E+00  9.84591E-01  5.38261E-02
    9051.976     56.643   4.120  1.03443E+00  9.84100E-01  5.03332E-02
    9053.238     57.905   4.160  1.02834E+00  9.83679E-01  4.46616E-02
    9054.512     59.179   4.200  1.02035E+00  9.83286E-01  3.70675E-02
    9055.798     60.465   4.240  1.01109E+00  9.82983E-01  2.81107E-02
    9057.096     61.763   4.280  1.00128E+00  9.82707E-01  1.85689E-02
    9058.407     63.074   4.320  9.91766E-01  9.82520E-01  9.24550E-03
    9059.730     64.397   4.360  9.83169E-01  9.82361E-01  8.07827E-04
    9061.065     65.732   4.400  9.75986E-01  9.82270E-01 -6.28388E-03
    9062.412     67.079   4.440  9.70487E-01  9.82247E-01 -1.17602E-02
    9063.772     68.439   4.480  9.66804E-01  9.82271E-01 -1.54675E-02
    9065.143     69.810   4.520  9.65020E-01  9.82338E-01 -1.73183E-02
    9066.527     71.194   4.560  9.65077E-01  9.82447E-01 -1.73693E-02
    9067.923     72.590   4.600  9.66692E-01  9.82597E-01 -1.59054E-02
    9069.331     73.998   4.640  9.69409E-01  9.82811E-01 -1.34023E-02
    9070.751     75.418   4.680  9.72652E-01  9.83044E-01 -1.03923E-02
    9072.184     76.851   4.720  9.76050E-01  9.83337E-01 -7.28620E-03
    9073.629     78.296   4.760  9.79385E-01  9.83644E-01 -4.25928E-03
    9075.086     79.753   4.800  9.82677E-01  9.83987E-01 -1.31015E-03
    9076.555     81.222   4.840  9.85935E-01  9.84365E-01  1.57005E-03
    9078.036     82.703   4.880  9.88989E-01  9.84753E-01  4.23676E-03
    9079.530     84.197   4.920  9.91536E-01  9.85173E-01  6.36346E-03
    9081.035     85.702   4.960  9.93183E-01  9.85624E-01  7.55881E-03
    9082.553     87.220   5.000  9.93599E-01  9.86080E-01  7.51876E-03
    9084.083     88.750   5.040  9.92733E-01  9.86539E-01  6.19404E-03
    9085.626     90.293   5.080  9.90846E-01  9.87001E-01  3.84541E-03
    9087.180     91.847   5.120  9.88436E-01  9.87464E-01  9.71687E-04
    9088.747     93.414   5.160  9.86126E-01  9.87949E-01 -1.82298E-03
    9090.326     94.993   5.200  9.84437E-01  9.88411E-01 -3.97444E-03
    9091.917     96.584   5.240  9.83780E-01  9.88869E-01 -5.08937E-03
    9093.520     98.187   5.280  9.84273E-01  9.89323E-01 -5.04911E-03
    9095.135     99.802   5.320  9.85762E-01  9.89771E-01 -4.00932E-03
    9096.763    101.430   5.360  9.87872E-01  9.90190E-01 -2.31870E-03
    9098.403    103.070   5.400  9.90178E-01  9.90599E-01 -4.20779E-04
    9100.055    104.722   5.440  9.92205E-01  9.90976E-01  1.22905E-03
    9101.719    106.386   5.480  9.93604E-01  9.91342E-01  2.26162E-03
    9103.395    108.062   5.520  9.94148E-01  9.91674E-01  2.47424E-03
    9105.084    109.751   5.560  9.93807E-01  9.91971E-01  1.83549E-03
    9106.785    111.452   5.600  9.92723E-01  9.92254E-01  4.69196E-04
    9108.498    113.165   5.640  9.91155E-01  9.92498E-01 -1.34264E-03
    9110.223    114.890   5.680  9.89538E-01  9.92680E-01 -3.14224E-03
    9111.960    116.627   5.720  9.88466E-01  9.92847E-01 -4.38009E-03
    9113.710    118.377   5.760  9.88364E-01  9.92974E-01 -4.60971E-03
    9115.472    120.138   5.800  9.89398E-01  9.93062E-01 -3.66477E-03
    9117.245    121.912   5.840  9.91401E-01  9.93112E-01 -1.71124E-03
    9119.032    123.699   5.880  9.93933E-01  9.93121E-01  8.12124E-04
    9120.830    125.497   5.920  9.96370E-01  9.93087E-01  3.28285E-03
    9122.640    127.307   5.960  9.97983E-01  9.92983E-01  4.99959E-03
    9124.463    129.130   6.000  9.98118E-01  9.92840E-01  5.27863E-03
