# # comment:                                                     FEFF 9.9.1  
# # Source:
# # Structure
# # Reduced
# # space
# # abc:
# # angles:
# # sites:
# # POT  SCF 100  7.0000   0, screened core-hole, AFOLP (folp(0)= 1.150)
# # Abs   Z=29 Rmt= 1.288 Rnm= 1.369 K  shell
# # Pot 1 Z= 3 Rmt= 1.187 Rnm= 1.269
# # Pot 2 Z=29 Rmt= 1.304 Rnm= 1.380
# # Pot 3 Z= 6 Rmt= 0.716 Rnm= 0.929
# # Pot 4 Z= 8 Rmt= 0.872 Rnm= 1.012
# # Gam_ch=1.729E+00 H-L exch Vi= 0.000E+00 Vr= 0.000E+00
# # Mu=-7.531E+00eV kf=2.522E+00 Vint=-1.836E+01eV Rs_int= 1.438
# FMS rfms= 9.0000
# # PATH  Rmax=-1.000,  Keep_limit= 0.00, Heap_limit 0.00  Pwcrit= 2.50%
#  S02=0.950  Temp=   0.00  Debye_temp=   0.00  Global_sig2= 0.00000
#  Energy zero shift, vr, vi    0.00000E+00   0.00000E+00
#  Curved wave amplitude ratio filter   4.000%
#     file         sig2 tot  cw amp ratio   deg  nlegs   reff  inp sig2
#     0/   0 paths used
#  xsedge+ 50, used to normalize mu           2.5013E-04
#  -----------------------------------------------------------------------
#  omega    e    k    mu    mu0     chi     @#
    8983.608    -11.341  -1.000  4.68537E-02  5.17633E-02 -4.90953E-03
    8983.907    -11.042  -0.960  5.01088E-02  5.54941E-02 -5.38533E-03
    8984.193    -10.755  -0.920  5.37355E-02  5.96401E-02 -5.90458E-03
    8984.468    -10.481  -0.880  5.77931E-02  6.42626E-02 -6.46947E-03
    8984.730    -10.219  -0.840  6.23515E-02  6.94332E-02 -7.08163E-03
    8984.980     -9.969  -0.800  6.74930E-02  7.52348E-02 -7.74177E-03
    8985.217     -9.731  -0.760  7.33134E-02  8.17628E-02 -8.44937E-03
    8985.443     -9.506  -0.720  7.99225E-02  8.91248E-02 -9.20230E-03
    8985.656     -9.292  -0.680  8.74433E-02  9.74398E-02 -9.99651E-03
    8985.857     -9.091  -0.640  9.60072E-02  1.06833E-01 -1.08259E-02
    8986.046     -8.902  -0.600  1.05745E-01  1.17428E-01 -1.16827E-02
    8986.223     -8.725  -0.560  1.16771E-01  1.29330E-01 -1.25588E-02
    8986.388     -8.561  -0.520  1.29154E-01  1.42602E-01 -1.34482E-02
    8986.540     -8.408  -0.480  1.42880E-01  1.57231E-01 -1.43506E-02
    8986.680     -8.268  -0.440  1.57812E-01  1.73087E-01 -1.52754E-02
    8986.808     -8.140  -0.400  1.73650E-01  1.89894E-01 -1.62437E-02
    8986.924     -8.024  -0.360  1.89931E-01  2.07216E-01 -1.72846E-02
    8987.028     -7.921  -0.320  2.06062E-01  2.24487E-01 -1.84247E-02
    8987.119     -7.829  -0.280  2.21406E-01  2.41078E-01 -1.96725E-02
    8987.199     -7.750  -0.240  2.35382E-01  2.56388E-01 -2.10055E-02
    8987.266     -7.683  -0.200  2.47545E-01  2.69911E-01 -2.23661E-02
    8987.320     -7.628  -0.160  2.57610E-01  2.81282E-01 -2.36716E-02
    8987.363     -7.585  -0.120  2.65430E-01  2.90266E-01 -2.48359E-02
    8987.394     -7.555  -0.080  2.70949E-01  2.96737E-01 -2.57876E-02
    8987.418     -7.531   0.000  2.75184E-01  3.01934E-01 -2.67500E-02
    8987.473     -7.476   0.120  2.85054E-01  3.13636E-01 -2.85812E-02
    8987.516     -7.433   0.160  2.92795E-01  3.22738E-01 -2.99423E-02
    8987.570     -7.378   0.200  3.02578E-01  3.34332E-01 -3.17540E-02
    8987.637     -7.311   0.240  3.14181E-01  3.48290E-01 -3.41093E-02
    8987.717     -7.232   0.280  3.27152E-01  3.64264E-01 -3.71112E-02
    8987.808     -7.140   0.320  3.40995E-01  3.81870E-01 -4.08745E-02
    8987.912     -7.037   0.360  3.55068E-01  4.00585E-01 -4.55168E-02
    8988.028     -6.921   0.400  3.68649E-01  4.19814E-01 -5.11653E-02
    8988.156     -6.793   0.440  3.81102E-01  4.39093E-01 -5.79904E-02
    8988.296     -6.653   0.480  3.91793E-01  4.57970E-01 -6.61771E-02
    8988.448     -6.500   0.520  4.00444E-01  4.76262E-01 -7.58178E-02
    8988.613     -6.336   0.560  4.07035E-01  4.93795E-01 -8.67595E-02
    8988.790     -6.159   0.600  4.12045E-01  5.10581E-01 -9.85367E-02
    8988.979     -5.970   0.640  4.16209E-01  5.26662E-01 -1.10453E-01
    8989.180     -5.769   0.680  4.20425E-01  5.42134E-01 -1.21709E-01
    8989.393     -5.555   0.720  4.25559E-01  5.57087E-01 -1.31527E-01
    8989.619     -5.330   0.760  4.32229E-01  5.71630E-01 -1.39401E-01
    8989.856     -5.092   0.800  4.40396E-01  5.85864E-01 -1.45468E-01
    8990.106     -4.842   0.840  4.49124E-01  5.99859E-01 -1.50735E-01
    8990.368     -4.580   0.880  4.56889E-01  6.13670E-01 -1.56781E-01
    8990.643     -4.306   0.920  4.62403E-01  6.27360E-01 -1.64957E-01
    8990.929     -4.019   0.960  4.66129E-01  6.40941E-01 -1.74812E-01
    8991.228     -3.721   1.000  4.71119E-01  6.54492E-01 -1.83372E-01
    8991.539     -3.410   1.040  4.80114E-01  6.67964E-01 -1.87850E-01
    8991.862     -3.087   1.080  4.93126E-01  6.81423E-01 -1.88296E-01
    8992.197     -2.751   1.120  5.09812E-01  6.94845E-01 -1.85033E-01
    8992.545     -2.404   1.160  5.31598E-01  7.08223E-01 -1.76625E-01
    8992.904     -2.044   1.200  5.57629E-01  7.21565E-01 -1.63935E-01
    8993.276     -1.672   1.240  5.82653E-01  7.34834E-01 -1.52180E-01
    8993.660     -1.288   1.280  6.01475E-01  7.48050E-01 -1.46575E-01
    8994.056     -0.892   1.320  6.14974E-01  7.61172E-01 -1.46197E-01
    8994.465     -0.484   1.360  6.30171E-01  7.74154E-01 -1.43983E-01
    8994.886     -0.063   1.400  6.53199E-01  7.87031E-01 -1.33832E-01
    8995.318      0.370   1.440  6.85127E-01  7.99737E-01 -1.14609E-01
    8995.763      0.815   1.480  7.22844E-01  8.12261E-01 -8.94174E-02
    8996.221      1.272   1.520  7.60127E-01  8.24577E-01 -6.44500E-02
    8996.690      1.741   1.560  7.91514E-01  8.36653E-01 -4.51390E-02
    8997.172      2.223   1.600  8.17078E-01  8.48481E-01 -3.14029E-02
    8997.665      2.717   1.640  8.43275E-01  8.60031E-01 -1.67554E-02
    8998.171      3.223   1.680  8.78378E-01  8.71252E-01  7.12614E-03
    8998.689      3.741   1.720  9.25118E-01  8.82178E-01  4.29407E-02
    8999.220      4.271   1.760  9.78143E-01  8.92737E-01  8.54066E-02
    8999.762      4.814   1.800  1.03008E+00  9.02942E-01  1.27137E-01
    9000.317      5.368   1.840  1.07352E+00  9.12767E-01  1.60758E-01
    9000.884      5.935   1.880  1.10647E+00  9.22183E-01  1.84286E-01
    9001.463      6.515   1.920  1.13590E+00  9.31204E-01  2.04697E-01
    9002.054      7.106   1.960  1.16212E+00  9.39786E-01  2.22338E-01
    9002.658      7.709   2.000  1.18242E+00  9.47945E-01  2.34479E-01
    9003.274      8.325   2.040  1.20206E+00  9.55657E-01  2.46408E-01
    9003.901      8.953   2.080  1.21645E+00  9.62920E-01  2.53528E-01
    9004.542      9.593   2.120  1.21428E+00  9.69732E-01  2.44551E-01
    9005.194     10.245   2.160  1.19353E+00  9.76115E-01  2.17419E-01
    9005.858     10.910   2.200  1.16051E+00  9.82026E-01  1.78482E-01
    9006.535     11.586   2.240  1.12119E+00  9.87488E-01  1.33705E-01
    9007.224     12.275   2.280  1.08581E+00  9.92503E-01  9.33043E-02
    9007.925     12.976   2.320  1.06693E+00  9.97077E-01  6.98496E-02
    9008.638     13.689   2.360  1.06567E+00  1.00123E+00  6.44411E-02
    9009.363     14.415   2.400  1.07237E+00  1.00497E+00  6.73999E-02
    9010.101     15.153   2.440  1.07818E+00  1.00828E+00  6.98959E-02
    9010.851     15.902   2.480  1.07834E+00  1.01119E+00  6.71476E-02
    9011.613     16.664   2.520  1.07133E+00  1.01373E+00  5.76021E-02
    9012.387     17.439   2.560  1.05759E+00  1.01589E+00  4.17024E-02
    9013.173     18.225   2.600  1.03930E+00  1.01769E+00  2.16052E-02
    9013.972     19.023   2.640  1.02072E+00  1.01917E+00  1.55316E-03
    9014.783     19.834   2.680  1.00561E+00  1.02029E+00 -1.46816E-02
    9015.606     20.657   2.720  9.96076E-01  1.02112E+00 -2.50406E-02
    9016.441     21.492   2.760  9.93603E-01  1.02164E+00 -2.80339E-02
    9017.288     22.340   2.800  9.96994E-01  1.02190E+00 -2.49042E-02
    9018.148     23.199   2.840  9.99391E-01  1.02191E+00 -2.25189E-02
    9019.019     24.071   2.880  9.91870E-01  1.02166E+00 -2.97895E-02
    9019.903     24.955   2.920  9.75534E-01  1.02122E+00 -4.56844E-02
    9020.800     25.851   2.960  9.61973E-01  1.02055E+00 -5.85795E-02
    9021.708     26.759   3.000  9.54456E-01  1.01969E+00 -6.52344E-02
    9022.628     27.680   3.040  9.51892E-01  1.01868E+00 -6.67904E-02
    9023.561     28.612   3.080  9.52108E-01  1.01750E+00 -6.53889E-02
    9024.506     29.557   3.120  9.53322E-01  1.01620E+00 -6.28792E-02
    9025.463     30.514   3.160  9.54464E-01  1.01476E+00 -6.03000E-02
    9026.432     31.484   3.200  9.55168E-01  1.01323E+00 -5.80649E-02
    9027.414     32.465   3.240  9.55531E-01  1.01159E+00 -5.60623E-02
    9028.407     33.459   3.280  9.56081E-01  1.00989E+00 -5.38139E-02
    9029.413     34.465   3.320  9.57254E-01  1.00812E+00 -5.08698E-02
    9030.431     35.483   3.360  9.59115E-01  1.00631E+00 -4.71931E-02
    9031.461     36.513   3.400  9.61543E-01  1.00445E+00 -4.29100E-02
    9032.504     37.555   3.440  9.64415E-01  1.00258E+00 -3.81693E-02
    9033.558     38.610   3.480  9.67474E-01  1.00069E+00 -3.32115E-02
    9034.625     39.677   3.520  9.70557E-01  9.98784E-01 -2.82272E-02
    9035.704     40.756   3.560  9.73472E-01  9.96884E-01 -2.34128E-02
    9036.795     41.847   3.600  9.75889E-01  9.95014E-01 -1.91253E-02
    9037.899     42.950   3.640  9.77563E-01  9.93176E-01 -1.56131E-02
    9039.014     44.066   3.680  9.78464E-01  9.91353E-01 -1.28890E-02
    9040.142     45.193   3.720  9.78793E-01  9.89590E-01 -1.07974E-02
    9041.282     46.333   3.760  9.78689E-01  9.87849E-01 -9.16045E-03
    9042.434     47.486   3.800  9.78283E-01  9.86196E-01 -7.91341E-03
    9043.598     48.650   3.840  9.77420E-01  9.84573E-01 -7.15253E-03
    9044.775     49.826   3.880  9.75970E-01  9.83041E-01 -7.07073E-03
    9045.964     51.015   3.920  9.73805E-01  9.81563E-01 -7.75831E-03
    9047.165     52.216   3.960  9.71049E-01  9.80162E-01 -9.11248E-03
    9048.378     53.429   4.000  9.67960E-01  9.78837E-01 -1.08773E-02
    9049.603     54.654   4.040  9.64936E-01  9.77593E-01 -1.26571E-02
    9050.840     55.892   4.080  9.62430E-01  9.76430E-01 -1.40001E-02
    9052.090     57.142   4.120  9.60866E-01  9.75348E-01 -1.44814E-02
    9053.352     58.403   4.160  9.60625E-01  9.74371E-01 -1.37458E-02
    9054.626     59.678   4.200  9.61943E-01  9.73478E-01 -1.15351E-02
    9055.912     60.964   4.240  9.64980E-01  9.72669E-01 -7.68881E-03
    9057.211     62.262   4.280  9.69782E-01  9.71943E-01 -2.16161E-03
    9058.521     63.573   4.320  9.76307E-01  9.71324E-01  4.98231E-03
    9059.844     64.896   4.360  9.84322E-01  9.70790E-01  1.35325E-02
    9061.179     66.231   4.400  9.93469E-01  9.70339E-01  2.31300E-02
    9062.526     67.578   4.440  1.00331E+00  9.69992E-01  3.33159E-02
    9063.886     68.937   4.480  1.01323E+00  9.69707E-01  4.35227E-02
    9065.257     70.309   4.520  1.02255E+00  9.69526E-01  5.30255E-02
    9066.641     71.693   4.560  1.03039E+00  9.69426E-01  6.09632E-02
    9068.037     73.089   4.600  1.03588E+00  9.69406E-01  6.64759E-02
    9069.445     74.497   4.640  1.03840E+00  9.69465E-01  6.89314E-02
    9070.866     75.917   4.680  1.03774E+00  9.69602E-01  6.81411E-02
    9072.298     77.350   4.720  1.03424E+00  9.69814E-01  6.44216E-02
    9073.743     78.795   4.760  1.02854E+00  9.70078E-01  5.84664E-02
    9075.200     80.251   4.800  1.02157E+00  9.70415E-01  5.11567E-02
    9076.669     81.721   4.840  1.01414E+00  9.70823E-01  4.33137E-02
    9078.150     83.202   4.880  1.00674E+00  9.71278E-01  3.54669E-02
    9079.644     84.695   4.920  9.99605E-01  9.71776E-01  2.78297E-02
    9081.150     86.201   4.960  9.92711E-01  9.72316E-01  2.03951E-02
    9082.668     87.719   5.000  9.85977E-01  9.72920E-01  1.30570E-02
    9084.198     89.249   5.040  9.79242E-01  9.73542E-01  5.69926E-03
    9085.740     90.791   5.080  9.72451E-01  9.74222E-01 -1.77107E-03
    9087.294     92.346   5.120  9.65534E-01  9.74914E-01 -9.38017E-03
    9088.861     93.913   5.160  9.58583E-01  9.75614E-01 -1.70308E-02
    9090.440     95.491   5.200  9.51867E-01  9.76345E-01 -2.44785E-02
    9092.031     97.082   5.240  9.45724E-01  9.77103E-01 -3.13796E-02
    9093.634     98.686   5.280  9.40449E-01  9.77843E-01 -3.73941E-02
    9095.250    100.301   5.320  9.36397E-01  9.78605E-01 -4.22072E-02
    9096.877    101.929   5.360  9.33787E-01  9.79343E-01 -4.55563E-02
    9098.517    103.569   5.400  9.32855E-01  9.80099E-01 -4.72446E-02
    9100.169    105.221   5.440  9.33632E-01  9.80827E-01 -4.71941E-02
    9101.833    106.885   5.480  9.36051E-01  9.81522E-01 -4.54714E-02
    9103.510    108.561   5.520  9.39894E-01  9.82206E-01 -4.23122E-02
    9105.198    110.250   5.560  9.44769E-01  9.82856E-01 -3.80869E-02
    9106.899    111.951   5.600  9.50295E-01  9.83468E-01 -3.31731E-02
    9108.612    113.663   5.640  9.56189E-01  9.84065E-01 -2.78759E-02
    9110.337    115.389   5.680  9.62196E-01  9.84601E-01 -2.24041E-02
    9112.075    117.126   5.720  9.68212E-01  9.85116E-01 -1.69044E-02
    9113.824    118.876   5.760  9.74078E-01  9.85566E-01 -1.14885E-02
    9115.586    120.637   5.800  9.79703E-01  9.85969E-01 -6.26607E-03
    9117.360    122.411   5.840  9.84902E-01  9.86302E-01 -1.39978E-03
    9119.146    124.197   5.880  9.89439E-01  9.86586E-01  2.85252E-03
    9120.944    125.996   5.920  9.92977E-01  9.86822E-01  6.15550E-03
    9122.755    127.806   5.960  9.95155E-01  9.86972E-01  8.18245E-03
    9124.577    129.629   6.000  9.95760E-01  9.87037E-01  8.72304E-03
