# # comment:                                                     FEFF 9.9.1  
# # Source:
# # Structure
# # Reduced
# # space
# # abc:
# # angles:
# # sites:
# # POT  SCF 100  7.0000   0, screened core-hole, AFOLP (folp(0)= 1.150)
# # Abs   Z=29 Rmt= 1.191 Rnm= 1.349 K  shell
# # Pot 1 Z=29 Rmt= 1.225 Rnm= 1.349
# # Pot 2 Z= 8 Rmt= 0.991 Rnm= 1.097
# # Gam_ch=1.729E+00 H-L exch Vi= 0.000E+00 Vr= 0.000E+00
# # Mu=-6.839E+00eV kf=2.105E+00 Vint=-1.483E+01eV Rs_int= 1.723
# FMS rfms= 9.0000
# # PATH  Rmax=-1.000,  Keep_limit= 0.00, Heap_limit 0.00  Pwcrit= 2.50%
#  S02=0.950  Temp=   0.00  Debye_temp=   0.00  Global_sig2= 0.00000
#  Energy zero shift, vr, vi    0.00000E+00   0.00000E+00
#  Curved wave amplitude ratio filter   4.000%
#     file         sig2 tot  cw amp ratio   deg  nlegs   reff  inp sig2
#     0/   0 paths used
#  xsedge+ 50, used to normalize mu           2.4387E-04
#  -----------------------------------------------------------------------
#  omega    e    k    mu    mu0     chi     @#
    8983.592    -10.649  -1.000  4.56759E-02  5.69788E-02 -1.13029E-02
    8983.890    -10.351  -0.960  4.85185E-02  6.11591E-02 -1.26406E-02
    8984.177    -10.064  -0.920  5.16226E-02  6.58048E-02 -1.41823E-02
    8984.451     -9.790  -0.880  5.50188E-02  7.09842E-02 -1.59654E-02
    8984.713     -9.528  -0.840  5.87417E-02  7.67767E-02 -1.80350E-02
    8984.963     -9.278  -0.800  6.28296E-02  8.32742E-02 -2.04447E-02
    8985.201     -9.040  -0.760  6.73244E-02  9.05823E-02 -2.32579E-02
    8985.427     -8.814  -0.720  7.22713E-02  9.88199E-02 -2.65486E-02
    8985.640     -8.601  -0.680  7.77173E-02  1.08118E-01 -3.04009E-02
    8985.841     -8.400  -0.640  8.37089E-02  1.18615E-01 -3.49065E-02
    8986.030     -8.211  -0.600  9.02880E-02  1.30447E-01 -4.01590E-02
    8986.207     -8.034  -0.560  9.74854E-02  1.43729E-01 -4.62435E-02
    8986.371     -7.870  -0.520  1.05311E-01  1.58529E-01 -5.32186E-02
    8986.524     -7.717  -0.480  1.13741E-01  1.74833E-01 -6.10923E-02
    8986.664     -7.577  -0.440  1.22703E-01  1.92496E-01 -6.97931E-02
    8986.792     -7.449  -0.400  1.32068E-01  2.11213E-01 -7.91459E-02
    8986.908     -7.333  -0.360  1.41638E-01  2.30503E-01 -8.88644E-02
    8987.011     -7.229  -0.320  1.51165E-01  2.49738E-01 -9.85735E-02
    8987.103     -7.138  -0.280  1.60364E-01  2.68225E-01 -1.07861E-01
    8987.182     -7.059  -0.240  1.68950E-01  2.85293E-01 -1.16343E-01
    8987.249     -6.992  -0.200  1.76660E-01  3.00382E-01 -1.23722E-01
    8987.304     -6.937  -0.160  1.83270E-01  3.13079E-01 -1.29809E-01
    8987.347     -6.894  -0.120  1.88603E-01  3.23119E-01 -1.34516E-01
    8987.377     -6.864  -0.080  1.92524E-01  3.30354E-01 -1.37830E-01
    8987.402     -6.839   0.000  1.95765E-01  3.36168E-01 -1.40403E-01
    8987.457     -6.784   0.120  2.03175E-01  3.49282E-01 -1.46106E-01
    8987.499     -6.742   0.160  2.09017E-01  3.59480E-01 -1.50463E-01
    8987.554     -6.687   0.200  2.16699E-01  3.72521E-01 -1.55821E-01
    8987.621     -6.620   0.240  2.26336E-01  3.88195E-01 -1.61859E-01
    8987.700     -6.541   0.280  2.38168E-01  4.06241E-01 -1.68073E-01
    8987.792     -6.449   0.320  2.52404E-01  4.26175E-01 -1.73771E-01
    8987.895     -6.346   0.360  2.69379E-01  4.47442E-01 -1.78064E-01
    8988.011     -6.230   0.400  2.89513E-01  4.69431E-01 -1.79918E-01
    8988.139     -6.102   0.440  3.13348E-01  4.91621E-01 -1.78273E-01
    8988.279     -5.961   0.480  3.41359E-01  5.13552E-01 -1.72193E-01
    8988.432     -5.809   0.520  3.73958E-01  5.34956E-01 -1.60998E-01
    8988.596     -5.645   0.560  4.11191E-01  5.55686E-01 -1.44495E-01
    8988.773     -5.468   0.600  4.52425E-01  5.75706E-01 -1.23281E-01
    8988.962     -5.279   0.640  4.95716E-01  5.95071E-01 -9.93555E-02
    8989.163     -5.078   0.680  5.36608E-01  6.13812E-01 -7.72037E-02
    8989.377     -4.864   0.720  5.67709E-01  6.32034E-01 -6.43254E-02
    8989.602     -4.639   0.760  5.81513E-01  6.49841E-01 -6.83279E-02
    8989.840     -4.401   0.800  5.76690E-01  6.67265E-01 -9.05755E-02
    8990.090     -4.151   0.840  5.60823E-01  6.84365E-01 -1.23542E-01
    8990.352     -3.889   0.880  5.44839E-01  7.01206E-01 -1.56367E-01
    8990.626     -3.615   0.920  5.35943E-01  7.17778E-01 -1.81835E-01
    8990.913     -3.328   0.960  5.34586E-01  7.34098E-01 -1.99512E-01
    8991.212     -3.029   1.000  5.35072E-01  7.50174E-01 -2.15102E-01
    8991.523     -2.718   1.040  5.30609E-01  7.66004E-01 -2.35395E-01
    8991.846     -2.395   1.080  5.20211E-01  7.81558E-01 -2.61347E-01
    8992.181     -2.060   1.120  5.08750E-01  7.96800E-01 -2.88050E-01
    8992.528     -1.713   1.160  5.00647E-01  8.11709E-01 -3.11063E-01
    8992.888     -1.353   1.200  4.99523E-01  8.26263E-01 -3.26740E-01
    8993.260     -0.981   1.240  5.10087E-01  8.40437E-01 -3.30351E-01
    8993.644     -0.597   1.280  5.34373E-01  8.54182E-01 -3.19809E-01
    8994.040     -0.201   1.320  5.68292E-01  8.67489E-01 -2.99196E-01
    8994.449      0.208   1.360  6.04477E-01  8.80309E-01 -2.75832E-01
    8994.869      0.628   1.400  6.38655E-01  8.92615E-01 -2.53960E-01
    8995.302      1.061   1.440  6.70706E-01  9.04396E-01 -2.33691E-01
    8995.747      1.506   1.480  7.02003E-01  9.15629E-01 -2.13626E-01
    8996.204      1.963   1.520  7.37242E-01  9.26287E-01 -1.89045E-01
    8996.674      2.433   1.560  7.83910E-01  9.36366E-01 -1.52456E-01
    8997.155      2.914   1.600  8.45270E-01  9.45864E-01 -1.00594E-01
    8997.649      3.408   1.640  9.24838E-01  9.54760E-01 -2.99217E-02
    8998.155      3.914   1.680  1.03374E+00  9.63053E-01  7.06864E-02
    8998.673      4.432   1.720  1.17228E+00  9.70748E-01  2.01534E-01
    8999.203      4.962   1.760  1.31541E+00  9.77848E-01  3.37564E-01
    8999.746      5.505   1.800  1.42688E+00  9.84378E-01  4.42502E-01
    9000.301      6.060   1.840  1.48659E+00  9.90327E-01  4.96260E-01
    9000.868      6.627   1.880  1.49445E+00  9.95720E-01  4.98734E-01
    9001.447      7.206   1.920  1.45940E+00  1.00057E+00  4.58832E-01
    9002.038      7.797   1.960  1.39056E+00  1.00490E+00  3.85662E-01
    9002.642      8.401   2.000  1.30430E+00  1.00873E+00  2.95570E-01
    9003.257      9.016   2.040  1.22662E+00  1.01207E+00  2.14550E-01
    9003.885      9.644   2.080  1.16962E+00  1.01497E+00  1.54645E-01
    9004.525     10.284   2.120  1.12832E+00  1.01743E+00  1.10897E-01
    9005.178     10.937   2.160  1.09012E+00  1.01949E+00  7.06300E-02
    9005.842     11.601   2.200  1.04691E+00  1.02114E+00  2.57663E-02
    9006.519     12.278   2.240  1.00546E+00  1.02246E+00 -1.69921E-02
    9007.207     12.967   2.280  9.77193E-01  1.02344E+00 -4.62433E-02
    9007.908     13.668   2.320  9.66837E-01  1.02412E+00 -5.72790E-02
    9008.622     14.381   2.360  9.68561E-01  1.02451E+00 -5.59466E-02
    9009.347     15.106   2.400  9.74323E-01  1.02464E+00 -5.03195E-02
    9010.085     15.844   2.440  9.82295E-01  1.02454E+00 -4.22413E-02
    9010.835     16.594   2.480  9.93448E-01  1.02422E+00 -3.07710E-02
    9011.597     17.356   2.520  1.00635E+00  1.02372E+00 -1.73731E-02
    9012.371     18.130   2.560  1.01727E+00  1.02306E+00 -5.79268E-03
    9013.157     18.916   2.600  1.02578E+00  1.02224E+00  3.53979E-03
    9013.956     19.715   2.640  1.03396E+00  1.02131E+00  1.26523E-02
    9014.766     20.526   2.680  1.04308E+00  1.02024E+00  2.28374E-02
    9015.589     21.348   2.720  1.05330E+00  1.01911E+00  3.41929E-02
    9016.425     22.184   2.760  1.06381E+00  1.01790E+00  4.59129E-02
    9017.272     23.031   2.800  1.07339E+00  1.01661E+00  5.67782E-02
    9018.131     23.890   2.840  1.08069E+00  1.01530E+00  6.53963E-02
    9019.003     24.762   2.880  1.08429E+00  1.01393E+00  7.03588E-02
    9019.887     25.646   2.920  1.08303E+00  1.01257E+00  7.04623E-02
    9020.783     26.542   2.960  1.07626E+00  1.01119E+00  6.50731E-02
    9021.691     27.451   3.000  1.06425E+00  1.00983E+00  5.44274E-02
    9022.612     28.371   3.040  1.04797E+00  1.00847E+00  3.95018E-02
    9023.545     29.304   3.080  1.02868E+00  1.00712E+00  2.15562E-02
    9024.490     30.249   3.120  1.00780E+00  1.00583E+00  1.96633E-03
    9025.447     31.206   3.160  9.86813E-01  1.00456E+00 -1.77489E-02
    9026.416     32.175   3.200  9.67159E-01  1.00333E+00 -3.61731E-02
    9027.397     33.156   3.240  9.49993E-01  1.00217E+00 -5.21762E-02
    9028.391     34.150   3.280  9.35737E-01  1.00108E+00 -6.53408E-02
    9029.397     35.156   3.320  9.24389E-01  1.00004E+00 -7.56473E-02
    9030.415     36.174   3.360  9.15889E-01  9.99046E-01 -8.31575E-02
    9031.445     37.204   3.400  9.10174E-01  9.98153E-01 -8.79787E-02
    9032.487     38.247   3.440  9.07094E-01  9.97316E-01 -9.02217E-02
    9033.542     39.301   3.480  9.06621E-01  9.96556E-01 -8.99349E-02
    9034.609     40.368   3.520  9.08674E-01  9.95876E-01 -8.72021E-02
    9035.688     41.447   3.560  9.12818E-01  9.95275E-01 -8.24568E-02
    9036.779     42.538   3.600  9.18533E-01  9.94754E-01 -7.62209E-02
    9037.882     43.641   3.640  9.25486E-01  9.94315E-01 -6.88286E-02
    9038.998     44.757   3.680  9.33536E-01  9.93956E-01 -6.04194E-02
    9040.126     45.885   3.720  9.42611E-01  9.93676E-01 -5.10642E-02
    9041.266     47.025   3.760  9.52616E-01  9.93474E-01 -4.08589E-02
    9042.418     48.177   3.800  9.63251E-01  9.93333E-01 -3.00820E-02
    9043.582     49.341   3.840  9.74149E-01  9.93291E-01 -1.91418E-02
    9044.759     50.518   3.880  9.84985E-01  9.93327E-01 -8.34250E-03
    9045.947     51.706   3.920  9.95552E-01  9.93418E-01  2.13379E-03
    9047.148     52.907   3.960  1.00560E+00  9.93585E-01  1.20190E-02
    9048.361     54.120   4.000  1.01471E+00  9.93826E-01  2.08819E-02
    9049.587     55.346   4.040  1.02229E+00  9.94120E-01  2.81702E-02
    9050.824     56.583   4.080  1.02780E+00  9.94486E-01  3.33136E-02
    9052.074     57.833   4.120  1.03079E+00  9.94921E-01  3.58662E-02
    9053.336     59.095   4.160  1.03103E+00  9.95381E-01  3.56496E-02
    9054.610     60.369   4.200  1.02868E+00  9.95909E-01  3.27737E-02
    9055.896     61.655   4.240  1.02413E+00  9.96503E-01  2.76320E-02
    9057.194     62.953   4.280  1.01807E+00  9.97115E-01  2.09517E-02
    9058.505     64.264   4.320  1.01152E+00  9.97765E-01  1.37582E-02
    9059.828     65.587   4.360  1.00572E+00  9.98453E-01  7.26260E-03
    9061.163     66.922   4.400  1.00175E+00  9.99175E-01  2.57592E-03
    9062.510     68.269   4.440  1.00036E+00  9.99909E-01  4.53463E-04
    9063.870     69.629   4.480  1.00181E+00  1.00067E+00  1.13468E-03
    9065.241     71.000   4.520  1.00566E+00  1.00144E+00  4.21644E-03
    9066.625     72.384   4.560  1.01094E+00  1.00224E+00  8.69248E-03
    9068.021     73.780   4.600  1.01623E+00  1.00305E+00  1.31854E-02
    9069.429     75.188   4.640  1.02025E+00  1.00385E+00  1.64076E-02
    9070.849     76.608   4.680  1.02222E+00  1.00462E+00  1.75958E-02
    9072.282     78.041   4.720  1.02202E+00  1.00542E+00  1.66018E-02
    9073.727     79.486   4.760  1.01998E+00  1.00619E+00  1.37984E-02
    9075.184     80.943   4.800  1.01695E+00  1.00697E+00  9.98291E-03
    9076.653     82.412   4.840  1.01395E+00  1.00770E+00  6.24945E-03
    9078.134     83.893   4.880  1.01225E+00  1.00842E+00  3.83473E-03
    9079.628     85.387   4.920  1.01298E+00  1.00912E+00  3.86287E-03
    9081.133     86.892   4.960  1.01675E+00  1.00977E+00  6.98157E-03
    9082.651     88.410   5.000  1.02356E+00  1.01040E+00  1.31666E-02
    9084.181     89.940   5.040  1.03286E+00  1.01099E+00  2.18751E-02
    9085.724     91.483   5.080  1.04380E+00  1.01154E+00  3.22629E-02
    9087.278     93.037   5.120  1.05526E+00  1.01205E+00  4.32161E-02
    9088.845     94.604   5.160  1.06577E+00  1.01251E+00  5.32584E-02
    9090.424     96.183   5.200  1.07362E+00  1.01293E+00  6.06903E-02
    9092.015     97.774   5.240  1.07732E+00  1.01328E+00  6.40414E-02
    9093.618     99.377   5.280  1.07602E+00  1.01361E+00  6.24125E-02
    9095.233    100.992   5.320  1.06943E+00  1.01387E+00  5.55566E-02
    9096.861    102.620   5.360  1.05788E+00  1.01406E+00  4.38155E-02
    9098.501    104.260   5.400  1.04232E+00  1.01422E+00  2.80990E-02
    9100.153    105.912   5.440  1.02418E+00  1.01432E+00  9.85515E-03
    9101.817    107.576   5.480  1.00534E+00  1.01437E+00 -9.03317E-03
    9103.493    109.252   5.520  9.87786E-01  1.01434E+00 -2.65590E-02
    9105.182    110.941   5.560  9.73225E-01  1.01427E+00 -4.10491E-02
    9106.883    112.642   5.600  9.62706E-01  1.01416E+00 -5.14492E-02
    9108.596    114.355   5.640  9.56575E-01  1.01397E+00 -5.73927E-02
    9110.321    116.080   5.680  9.54557E-01  1.01373E+00 -5.91782E-02
    9112.058    117.817   5.720  9.55652E-01  1.01346E+00 -5.78075E-02
    9113.808    119.567   5.760  9.58341E-01  1.01314E+00 -5.48002E-02
    9115.570    121.329   5.800  9.61103E-01  1.01278E+00 -5.16777E-02
    9117.343    123.102   5.840  9.63170E-01  1.01235E+00 -4.91835E-02
    9119.130    124.889   5.880  9.64961E-01  1.01189E+00 -4.69283E-02
    9120.928    126.687   5.920  9.67641E-01  1.01141E+00 -4.37727E-02
    9122.738    128.497   5.960  9.72173E-01  1.01088E+00 -3.87061E-02
    9124.561    130.320   6.000  9.78840E-01  1.01031E+00 -3.14653E-02
