# # comment:                                                     FEFF 9.9.1  
# # Source:
# # Structure
# # Reduced
# # space
# # abc:
# # angles:
# # sites:
# # POT  SCF 100  7.0000   0, screened core-hole, AFOLP (folp(0)= 1.150)
# # Abs   Z=29 Rmt= 1.292 Rnm= 1.377 K  shell
# # Pot 1 Z= 3 Rmt= 1.307 Rnm= 1.372
# # Pot 2 Z=29 Rmt= 1.292 Rnm= 1.377
# # Pot 3 Z=15 Rmt= 0.946 Rnm= 1.157
# # Pot 4 Z= 8 Rmt= 0.918 Rnm= 1.043
# # Gam_ch=1.729E+00 H-L exch Vi= 0.000E+00 Vr= 0.000E+00
# # Mu=-6.284E+00eV kf=2.328E+00 Vint=-1.706E+01eV Rs_int= 1.558
# FMS rfms= 9.0000
# # PATH  Rmax=-1.000,  Keep_limit= 0.00, Heap_limit 0.00  Pwcrit= 2.50%
#  S02=0.950  Temp=   0.00  Debye_temp=   0.00  Global_sig2= 0.00000
#  Energy zero shift, vr, vi    0.00000E+00   0.00000E+00
#  Curved wave amplitude ratio filter   4.000%
#     file         sig2 tot  cw amp ratio   deg  nlegs   reff  inp sig2
#     0/   0 paths used
#  xsedge+ 50, used to normalize mu           2.4697E-04
#  -----------------------------------------------------------------------
#  omega    e    k    mu    mu0     chi     @#
    8983.910    -10.094  -1.000  5.85343E-02  5.75240E-02  1.01027E-03
    8984.209     -9.795  -0.960  6.30018E-02  6.18279E-02  1.17393E-03
    8984.495     -9.509  -0.920  6.79986E-02  6.66223E-02  1.37635E-03
    8984.770     -9.234  -0.880  7.36076E-02  7.19804E-02  1.62725E-03
    8985.032     -8.972  -0.840  7.99264E-02  7.79878E-02  1.93858E-03
    8985.282     -8.722  -0.800  8.70685E-02  8.47437E-02  2.32478E-03
    8985.519     -8.485  -0.760  9.51653E-02  9.23622E-02  2.80313E-03
    8985.745     -8.259  -0.720  1.04366E-01  1.00972E-01  3.39388E-03
    8985.958     -8.046  -0.680  1.14837E-01  1.10716E-01  4.12023E-03
    8986.159     -7.844  -0.640  1.26753E-01  1.21745E-01  5.00793E-03
    8986.348     -7.655  -0.600  1.40290E-01  1.34206E-01  6.08440E-03
    8986.525     -7.479  -0.560  1.55604E-01  1.48227E-01  7.37708E-03
    8986.690     -7.314  -0.520  1.72794E-01  1.63883E-01  8.91100E-03
    8986.842     -7.162  -0.480  1.91866E-01  1.81161E-01  1.07053E-02
    8986.982     -7.021  -0.440  2.12676E-01  1.99907E-01  1.27684E-02
    8987.110     -6.893  -0.400  2.34885E-01  2.19793E-01  1.50927E-02
    8987.226     -6.778  -0.360  2.57946E-01  2.40298E-01  1.76479E-02
    8987.330     -6.674  -0.320  2.81124E-01  2.60749E-01  2.03752E-02
    8987.421     -6.583  -0.280  3.03583E-01  2.80398E-01  2.31859E-02
    8987.501     -6.503  -0.240  3.24491E-01  2.98526E-01  2.59649E-02
    8987.568     -6.436  -0.200  3.43120E-01  3.14537E-01  2.85833E-02
    8987.622     -6.381  -0.160  3.58910E-01  3.27994E-01  3.09156E-02
    8987.665     -6.339  -0.120  3.71480E-01  3.38624E-01  3.28566E-02
    8987.696     -6.308  -0.080  3.80602E-01  3.46277E-01  3.43256E-02
    8987.720     -6.284   0.000  3.88008E-01  3.52422E-01  3.55860E-02
    8987.775     -6.229   0.120  4.04056E-01  3.66256E-01  3.78000E-02
    8987.818     -6.186   0.160  4.16690E-01  3.77008E-01  3.96824E-02
    8987.872     -6.131   0.200  4.32880E-01  3.90703E-01  4.21771E-02
    8987.939     -6.064   0.240  4.52420E-01  4.07134E-01  4.52865E-02
    8988.019     -5.985   0.280  4.74885E-01  4.25968E-01  4.89171E-02
    8988.110     -5.894   0.320  4.99445E-01  4.46652E-01  5.27927E-02
    8988.214     -5.790   0.360  5.24897E-01  4.68572E-01  5.63242E-02
    8988.330     -5.674   0.400  5.49492E-01  4.91036E-01  5.84553E-02
    8988.458     -5.546   0.440  5.70986E-01  5.13431E-01  5.75543E-02
    8988.598     -5.406   0.480  5.86793E-01  5.35264E-01  5.15285E-02
    8988.750     -5.254   0.520  5.94619E-01  5.56236E-01  3.83837E-02
    8988.915     -5.089   0.560  5.93490E-01  5.76186E-01  1.73036E-02
    8989.092     -4.912   0.600  5.84818E-01  5.95103E-01 -1.02846E-02
    8989.281     -4.723   0.640  5.72357E-01  6.13033E-01 -4.06765E-02
    8989.482     -4.522   0.680  5.60792E-01  6.30072E-01 -6.92801E-02
    8989.695     -4.309   0.720  5.54051E-01  6.46349E-01 -9.22980E-02
    8989.921     -4.083   0.760  5.54749E-01  6.61971E-01 -1.07222E-01
    8990.158     -3.845   0.800  5.64851E-01  6.77035E-01 -1.12185E-01
    8990.408     -3.596   0.840  5.85525E-01  6.91647E-01 -1.06122E-01
    8990.670     -3.333   0.880  6.15468E-01  7.05855E-01 -9.03870E-02
    8990.945     -3.059   0.920  6.49749E-01  7.19732E-01 -6.99828E-02
    8991.231     -2.773   0.960  6.81007E-01  7.33317E-01 -5.23095E-02
    8991.530     -2.474   1.000  7.03861E-01  7.46618E-01 -4.27563E-02
    8991.841     -2.163   1.040  7.19431E-01  7.59691E-01 -4.02598E-02
    8992.164     -1.840   1.080  7.32906E-01  7.72524E-01 -3.96184E-02
    8992.499     -1.505   1.120  7.47038E-01  7.85120E-01 -3.80824E-02
    8992.847     -1.157   1.160  7.60689E-01  7.97474E-01 -3.67843E-02
    8993.206     -0.797   1.200  7.72684E-01  8.09595E-01 -3.69108E-02
    8993.578     -0.426   1.240  7.84184E-01  8.21450E-01 -3.72663E-02
    8993.962     -0.042   1.280  7.97590E-01  8.33044E-01 -3.54539E-02
    8994.359      0.355   1.320  8.14153E-01  8.44377E-01 -3.02244E-02
    8994.767      0.763   1.360  8.31135E-01  8.55390E-01 -2.42546E-02
    8995.188      1.184   1.400  8.45080E-01  8.66100E-01 -2.10197E-02
    8995.620      1.617   1.440  8.60004E-01  8.76485E-01 -1.64808E-02
    8996.065      2.062   1.480  8.85197E-01  8.86522E-01 -1.32487E-03
    8996.523      2.519   1.520  9.21507E-01  8.96208E-01  2.52998E-02
    8996.992      2.988   1.560  9.62074E-01  9.05519E-01  5.65547E-02
    8997.474      3.470   1.600  1.00313E+00  9.14455E-01  8.86799E-02
    8997.967      3.963   1.640  1.05021E+00  9.23012E-01  1.27202E-01
    8998.473      4.469   1.680  1.11270E+00  9.31146E-01  1.81552E-01
    8998.991      4.988   1.720  1.18270E+00  9.38897E-01  2.43804E-01
    8999.522      5.518   1.760  1.22746E+00  9.46226E-01  2.81236E-01
    9000.064      6.060   1.800  1.21968E+00  9.53132E-01  2.66545E-01
    9000.619      6.615   1.840  1.17593E+00  9.59635E-01  2.16299E-01
    9001.186      7.182   1.880  1.13399E+00  9.65718E-01  1.68275E-01
    9001.765      7.761   1.920  1.11257E+00  9.71404E-01  1.41170E-01
    9002.356      8.353   1.960  1.10684E+00  9.76676E-01  1.30163E-01
    9002.960      8.956   2.000  1.10703E+00  9.81558E-01  1.25468E-01
    9003.576      9.572   2.040  1.10663E+00  9.86033E-01  1.20598E-01
    9004.204     10.200   2.080  1.10125E+00  9.90128E-01  1.11123E-01
    9004.844     10.840   2.120  1.09205E+00  9.93868E-01  9.81791E-02
    9005.496     11.492   2.160  1.08483E+00  9.97239E-01  8.75929E-02
    9006.160     12.156   2.200  1.08229E+00  1.00025E+00  8.20443E-02
    9006.837     12.833   2.240  1.08003E+00  1.00294E+00  7.70874E-02
    9007.526     13.522   2.280  1.07056E+00  1.00529E+00  6.52690E-02
    9008.227     14.223   2.320  1.05109E+00  1.00736E+00  4.37335E-02
    9008.940     14.936   2.360  1.02635E+00  1.00911E+00  1.72400E-02
    9009.666     15.662   2.400  1.00488E+00  1.01060E+00 -5.72039E-03
    9010.403     16.399   2.440  9.93547E-01  1.01182E+00 -1.82731E-02
    9011.153     17.149   2.480  9.94229E-01  1.01281E+00 -1.85796E-02
    9011.915     17.911   2.520  1.00250E+00  1.01356E+00 -1.10520E-02
    9012.689     18.685   2.560  1.00966E+00  1.01407E+00 -4.41243E-03
    9013.476     19.472   2.600  1.00743E+00  1.01440E+00 -6.97645E-03
    9014.274     20.270   2.640  9.93749E-01  1.01456E+00 -2.08129E-02
    9015.085     21.081   2.680  9.73318E-01  1.01455E+00 -4.12341E-02
    9015.908     21.904   2.720  9.52409E-01  1.01436E+00 -6.19512E-02
    9016.743     22.739   2.760  9.38713E-01  1.01406E+00 -7.53442E-02
    9017.590     23.586   2.800  9.34162E-01  1.01361E+00 -7.94446E-02
    9018.450     24.446   2.840  9.37646E-01  1.01306E+00 -7.54132E-02
    9019.322     25.318   2.880  9.46837E-01  1.01242E+00 -6.55818E-02
    9020.205     26.202   2.920  9.58385E-01  1.01167E+00 -5.32842E-02
    9021.102     27.098   2.960  9.69024E-01  1.01084E+00 -4.18171E-02
    9022.010     28.006   3.000  9.76790E-01  1.00996E+00 -3.31697E-02
    9022.930     28.926   3.040  9.81341E-01  1.00903E+00 -2.76876E-02
    9023.863     29.859   3.080  9.83140E-01  1.00806E+00 -2.49158E-02
    9024.808     30.804   3.120  9.82799E-01  1.00704E+00 -2.42443E-02
    9025.765     31.761   3.160  9.80986E-01  1.00599E+00 -2.50081E-02
    9026.734     32.730   3.200  9.78542E-01  1.00494E+00 -2.63950E-02
    9027.716     33.712   3.240  9.76398E-01  1.00388E+00 -2.74783E-02
    9028.709     34.705   3.280  9.75148E-01  1.00281E+00 -2.76655E-02
    9029.715     35.711   3.320  9.74827E-01  1.00175E+00 -2.69251E-02
    9030.733     36.729   3.360  9.75107E-01  1.00072E+00 -2.56101E-02
    9031.763     37.760   3.400  9.75523E-01  9.99691E-01 -2.41683E-02
    9032.806     38.802   3.440  9.75800E-01  9.98696E-01 -2.28962E-02
    9033.860     39.857   3.480  9.75930E-01  9.97714E-01 -2.17840E-02
    9034.927     40.923   3.520  9.76273E-01  9.96788E-01 -2.05152E-02
    9036.006     42.002   3.560  9.77197E-01  9.95880E-01 -1.86823E-02
    9037.097     43.094   3.600  9.78991E-01  9.95011E-01 -1.60209E-02
    9038.201     44.197   3.640  9.81637E-01  9.94205E-01 -1.25687E-02
    9039.316     45.312   3.680  9.84827E-01  9.93443E-01 -8.61591E-03
    9040.444     46.440   3.720  9.88141E-01  9.92725E-01 -4.58347E-03
    9041.584     47.580   3.760  9.91208E-01  9.92049E-01 -8.41759E-04
    9042.736     48.732   3.800  9.93904E-01  9.91442E-01  2.46232E-03
    9043.901     49.897   3.840  9.96213E-01  9.90879E-01  5.33425E-03
    9045.077     51.073   3.880  9.98216E-01  9.90362E-01  7.85346E-03
    9046.266     52.262   3.920  1.00001E+00  9.89914E-01  1.00965E-02
    9047.467     53.463   3.960  1.00161E+00  9.89515E-01  1.20920E-02
    9048.680     54.676   4.000  1.00301E+00  9.89183E-01  1.38302E-02
    9049.905     55.901   4.040  1.00422E+00  9.88897E-01  1.53246E-02
    9051.143     57.139   4.080  1.00529E+00  9.88659E-01  1.66348E-02
    9052.392     58.388   4.120  1.00638E+00  9.88487E-01  1.78888E-02
    9053.654     59.650   4.160  1.00762E+00  9.88363E-01  1.92587E-02
    9054.928     60.924   4.200  1.00916E+00  9.88305E-01  2.08504E-02
    9056.214     62.211   4.240  1.01087E+00  9.88269E-01  2.25980E-02
    9057.513     63.509   4.280  1.01255E+00  9.88300E-01  2.42496E-02
    9058.823     64.820   4.320  1.01396E+00  9.88396E-01  2.55690E-02
    9060.146     66.142   4.360  1.01497E+00  9.88510E-01  2.64625E-02
    9061.481     67.477   4.400  1.01564E+00  9.88664E-01  2.69735E-02
    9062.829     68.825   4.440  1.01605E+00  9.88859E-01  2.71869E-02
    9064.188     70.184   4.480  1.01620E+00  9.89114E-01  2.70817E-02
    9065.560     71.556   4.520  1.01583E+00  9.89384E-01  2.64510E-02
    9066.943     72.939   4.560  1.01472E+00  9.89688E-01  2.50342E-02
    9068.339     74.335   4.600  1.01270E+00  9.90004E-01  2.26957E-02
    9069.747     75.744   4.640  1.00986E+00  9.90352E-01  1.95063E-02
    9071.168     77.164   4.680  1.00649E+00  9.90733E-01  1.57570E-02
    9072.600     78.596   4.720  1.00300E+00  9.91124E-01  1.18719E-02
    9074.045     80.041   4.760  9.99833E-01  9.91544E-01  8.28916E-03
    9075.502     81.498   4.800  9.97383E-01  9.91970E-01  5.41316E-03
    9076.971     82.967   4.840  9.95929E-01  9.92421E-01  3.50819E-03
    9078.452     84.449   4.880  9.95438E-01  9.92853E-01  2.58434E-03
    9079.946     85.942   4.920  9.95670E-01  9.93307E-01  2.36299E-03
    9081.452     87.448   4.960  9.96073E-01  9.93738E-01  2.33537E-03
    9082.970     88.966   5.000  9.96182E-01  9.94188E-01  1.99383E-03
    9084.500     90.496   5.040  9.95613E-01  9.94615E-01  9.97982E-04
    9086.042     92.038   5.080  9.94265E-01  9.95037E-01 -7.72174E-04
    9087.596     93.593   5.120  9.92209E-01  9.95454E-01 -3.24419E-03
    9089.163     95.159   5.160  9.89596E-01  9.95864E-01 -6.26764E-03
    9090.742     96.738   5.200  9.86594E-01  9.96244E-01 -9.64923E-03
    9092.333     98.329   5.240  9.83438E-01  9.96613E-01 -1.31745E-02
    9093.936     99.932   5.280  9.80354E-01  9.96949E-01 -1.65950E-02
    9095.552    101.548   5.320  9.77634E-01  9.97250E-01 -1.96166E-02
    9097.179    103.175   5.360  9.75596E-01  9.97539E-01 -2.19422E-02
    9098.819    104.815   5.400  9.74444E-01  9.97792E-01 -2.33482E-02
    9100.471    106.467   5.440  9.74245E-01  9.98010E-01 -2.37645E-02
    9102.135    108.131   5.480  9.74922E-01  9.98212E-01 -2.32905E-02
    9103.812    109.808   5.520  9.76233E-01  9.98376E-01 -2.21433E-02
    9105.500    111.496   5.560  9.77906E-01  9.98478E-01 -2.05718E-02
    9107.201    113.197   5.600  9.79759E-01  9.98565E-01 -1.88060E-02
    9108.914    114.910   5.640  9.81603E-01  9.98612E-01 -1.70088E-02
    9110.639    116.635   5.680  9.83338E-01  9.98619E-01 -1.52814E-02
    9112.377    118.373   5.720  9.84916E-01  9.98588E-01 -1.36718E-02
    9114.126    120.122   5.760  9.86334E-01  9.98517E-01 -1.21831E-02
    9115.888    121.884   5.800  9.87579E-01  9.98407E-01 -1.08277E-02
    9117.662    123.658   5.840  9.88565E-01  9.98260E-01 -9.69490E-03
    9119.448    125.444   5.880  9.89167E-01  9.98098E-01 -8.93117E-03
    9121.246    127.242   5.920  9.89258E-01  9.97875E-01 -8.61733E-03
    9123.057    129.053   5.960  9.88977E-01  9.97611E-01 -8.63384E-03
    9124.879    130.876   6.000  9.88700E-01  9.97281E-01 -8.58053E-03
