# # comment:                                                     FEFF 9.9.1  
# # Source:
# # Structure
# # Reduced
# # space
# # abc:
# # angles:119.737996
# # sites:
# # POT  SCF 100  7.0000   0, screened core-hole, AFOLP (folp(0)= 1.150)
# # Abs   Z=29 Rmt= 1.266 Rnm= 1.334 K  shell
# # Pot 1 Z= 3 Rmt= 1.308 Rnm= 1.366
# # Pot 2 Z=29 Rmt= 1.266 Rnm= 1.334
# # Pot 3 Z= 5 Rmt= 0.769 Rnm= 0.986
# # Pot 4 Z= 8 Rmt= 0.917 Rnm= 1.056
# # Gam_ch=1.729E+00 H-L exch Vi= 0.000E+00 Vr= 0.000E+00
# # Mu=-6.798E+00eV kf=2.323E+00 Vint=-1.737E+01eV Rs_int= 1.561
# FMS rfms= 9.0000
# # PATH  Rmax=-1.000,  Keep_limit= 0.00, Heap_limit 0.00  Pwcrit= 2.50%
#  S02=0.950  Temp=   0.00  Debye_temp=   0.00  Global_sig2= 0.00000
#  Energy zero shift, vr, vi    0.00000E+00   0.00000E+00
#  Curved wave amplitude ratio filter   4.000%
#     file         sig2 tot  cw amp ratio   deg  nlegs   reff  inp sig2
#     0/   0 paths used
#  xsedge+ 50, used to normalize mu           2.4714E-04
#  -----------------------------------------------------------------------
#  omega    e    k    mu    mu0     chi     @#
    8983.774    -10.608  -1.000  4.34040E-02  5.57656E-02 -1.23616E-02
    8984.073    -10.309  -0.960  4.59002E-02  5.99002E-02 -1.40000E-02
    8984.359    -10.023  -0.920  4.86044E-02  6.45033E-02 -1.58989E-02
    8984.634     -9.748  -0.880  5.15399E-02  6.96447E-02 -1.81048E-02
    8984.896     -9.486  -0.840  5.47332E-02  7.54059E-02 -2.06727E-02
    8985.146     -9.236  -0.800  5.82136E-02  8.18814E-02 -2.36678E-02
    8985.383     -8.999  -0.760  6.20136E-02  8.91797E-02 -2.71660E-02
    8985.609     -8.773  -0.720  6.61685E-02  9.74236E-02 -3.12550E-02
    8985.822     -8.560  -0.680  7.07154E-02  1.06749E-01 -3.60331E-02
    8986.023     -8.359  -0.640  7.56913E-02  1.17298E-01 -4.16064E-02
    8986.212     -8.170  -0.600  8.11300E-02  1.29212E-01 -4.80820E-02
    8986.389     -7.993  -0.560  8.70566E-02  1.42612E-01 -5.55554E-02
    8986.554     -7.828  -0.520  9.34797E-02  1.57570E-01 -6.40904E-02
    8986.706     -7.676  -0.480  1.00381E-01  1.74072E-01 -7.36914E-02
    8986.846     -7.536  -0.440  1.07701E-01  1.91972E-01 -8.42707E-02
    8986.974     -7.408  -0.400  1.15335E-01  2.10956E-01 -9.56213E-02
    8987.090     -7.292  -0.360  1.23121E-01  2.30530E-01 -1.07409E-01
    8987.194     -7.188  -0.320  1.30856E-01  2.50050E-01 -1.19195E-01
    8987.285     -7.097  -0.280  1.38308E-01  2.68805E-01 -1.30497E-01
    8987.365     -7.017  -0.240  1.45246E-01  2.86110E-01 -1.40863E-01
    8987.432     -6.950  -0.200  1.51461E-01  3.01393E-01 -1.49933E-01
    8987.486     -6.895  -0.160  1.56776E-01  3.14241E-01 -1.57465E-01
    8987.529     -6.853  -0.120  1.61056E-01  3.24391E-01 -1.63334E-01
    8987.560     -6.822  -0.080  1.64198E-01  3.31698E-01 -1.67499E-01
    8987.584     -6.798   0.000  1.66791E-01  3.37565E-01 -1.70774E-01
    8987.639     -6.743   0.120  1.72619E-01  3.50785E-01 -1.78166E-01
    8987.681     -6.700   0.160  1.77221E-01  3.61042E-01 -1.83822E-01
    8987.736     -6.646   0.200  1.83245E-01  3.74136E-01 -1.90891E-01
    8987.803     -6.578   0.240  1.90808E-01  3.89852E-01 -1.99044E-01
    8987.883     -6.499   0.280  2.00011E-01  4.07854E-01 -2.07844E-01
    8987.974     -6.408   0.320  2.11043E-01  4.27659E-01 -2.16617E-01
    8988.078     -6.304   0.360  2.24101E-01  4.48644E-01 -2.24543E-01
    8988.194     -6.188   0.400  2.39464E-01  4.70170E-01 -2.30706E-01
    8988.322     -6.060   0.440  2.57450E-01  4.91681E-01 -2.34231E-01
    8988.462     -5.920   0.480  2.78173E-01  5.12666E-01 -2.34494E-01
    8988.614     -5.768   0.520  3.01428E-01  5.32881E-01 -2.31454E-01
    8988.779     -5.603   0.560  3.26148E-01  5.52156E-01 -2.26008E-01
    8988.956     -5.426   0.600  3.50397E-01  5.70478E-01 -2.20081E-01
    8989.145     -5.237   0.640  3.71678E-01  5.87894E-01 -2.16216E-01
    8989.346     -5.036   0.680  3.88151E-01  6.04509E-01 -2.16358E-01
    8989.559     -4.823   0.720  3.99754E-01  6.20426E-01 -2.20672E-01
    8989.785     -4.597   0.760  4.08849E-01  6.35769E-01 -2.26920E-01
    8990.022     -4.360   0.800  4.19588E-01  6.50608E-01 -2.31020E-01
    8990.272     -4.110   0.840  4.35301E-01  6.65043E-01 -2.29742E-01
    8990.534     -3.848   0.880  4.54380E-01  6.79137E-01 -2.24757E-01
    8990.809     -3.573   0.920  4.70023E-01  6.92940E-01 -2.22917E-01
    8991.095     -3.287   0.960  4.77531E-01  7.06487E-01 -2.28955E-01
    8991.394     -2.988   1.000  4.80880E-01  7.19843E-01 -2.38963E-01
    8991.705     -2.677   1.040  4.87263E-01  7.32962E-01 -2.45699E-01
    8992.028     -2.354   1.080  4.97783E-01  7.45911E-01 -2.48129E-01
    8992.363     -2.019   1.120  5.09250E-01  7.58649E-01 -2.49399E-01
    8992.711     -1.671   1.160  5.24667E-01  7.71210E-01 -2.46543E-01
    8993.070     -1.312   1.200  5.52112E-01  7.83544E-01 -2.31433E-01
    8993.442     -0.940   1.240  5.95188E-01  7.95676E-01 -2.00488E-01
    8993.826     -0.556   1.280  6.50632E-01  8.07567E-01 -1.56936E-01
    8994.222     -0.159   1.320  7.14926E-01  8.19220E-01 -1.04294E-01
    8994.631      0.249   1.360  7.90163E-01  8.30613E-01 -4.04501E-02
    8995.052      0.670   1.400  8.79972E-01  8.41742E-01  3.82295E-02
    8995.484      1.102   1.440  9.84548E-01  8.52543E-01  1.32006E-01
    8995.929      1.547   1.480  1.10157E+00  8.63053E-01  2.38516E-01
    8996.387      2.005   1.520  1.21819E+00  8.73227E-01  3.44964E-01
    8996.856      2.474   1.560  1.30333E+00  8.83062E-01  4.20268E-01
    8997.338      2.956   1.600  1.33525E+00  8.92512E-01  4.42736E-01
    8997.831      3.449   1.640  1.32490E+00  9.01615E-01  4.23284E-01
    8998.337      3.955   1.680  1.29045E+00  9.10349E-01  3.80099E-01
    8998.855      4.474   1.720  1.24278E+00  9.18670E-01  3.24105E-01
    8999.386      5.004   1.760  1.19690E+00  9.26616E-01  2.70289E-01
    8999.928      5.546   1.800  1.15644E+00  9.34144E-01  2.22295E-01
    9000.483      6.101   1.840  1.11234E+00  9.41278E-01  1.71063E-01
    9001.050      6.668   1.880  1.06690E+00  9.47996E-01  1.18901E-01
    9001.629      7.247   1.920  1.03253E+00  9.54320E-01  7.82071E-02
    9002.220      7.838   1.960  1.01649E+00  9.60232E-01  5.62558E-02
    9002.824      8.442   2.000  1.01946E+00  9.65755E-01  5.37088E-02
    9003.440      9.058   2.040  1.03083E+00  9.70893E-01  5.99387E-02
    9004.067      9.686   2.080  1.03511E+00  9.75628E-01  5.94824E-02
    9004.708     10.326   2.120  1.03327E+00  9.80008E-01  5.32620E-02
    9005.360     10.978   2.160  1.04028E+00  9.83997E-01  5.62819E-02
    9006.024     11.642   2.200  1.06356E+00  9.87639E-01  7.59247E-02
    9006.701     12.319   2.240  1.09623E+00  9.90944E-01  1.05288E-01
    9007.390     13.008   2.280  1.13096E+00  9.93916E-01  1.37048E-01
    9008.091     13.709   2.320  1.16555E+00  9.96563E-01  1.68986E-01
    9008.804     14.422   2.360  1.19913E+00  9.98911E-01  2.00220E-01
    9009.529     15.148   2.400  1.22728E+00  1.00097E+00  2.26307E-01
    9010.267     15.885   2.440  1.23969E+00  1.00274E+00  2.36947E-01
    9011.017     16.635   2.480  1.22817E+00  1.00426E+00  2.23910E-01
    9011.779     17.397   2.520  1.19272E+00  1.00551E+00  1.87206E-01
    9012.553     18.171   2.560  1.13836E+00  1.00656E+00  1.31799E-01
    9013.339     18.958   2.600  1.07629E+00  1.00739E+00  6.89027E-02
    9014.138     19.756   2.640  1.01927E+00  1.00800E+00  1.12718E-02
    9014.949     20.567   2.680  9.72337E-01  1.00844E+00 -3.61014E-02
    9015.772     21.390   2.720  9.39739E-01  1.00869E+00 -6.89487E-02
    9016.607     22.225   2.760  9.22853E-01  1.00879E+00 -8.59417E-02
    9017.454     23.072   2.800  9.13024E-01  1.00875E+00 -9.57249E-02
    9018.314     23.932   2.840  9.05273E-01  1.00859E+00 -1.03322E-01
    9019.185     24.804   2.880  8.98316E-01  1.00830E+00 -1.09980E-01
    9020.069     25.687   2.920  8.92513E-01  1.00790E+00 -1.15391E-01
    9020.966     26.584   2.960  8.88401E-01  1.00740E+00 -1.19002E-01
    9021.874     27.492   3.000  8.86323E-01  1.00684E+00 -1.20518E-01
    9022.794     28.412   3.040  8.85920E-01  1.00620E+00 -1.20282E-01
    9023.727     29.345   3.080  8.86881E-01  1.00551E+00 -1.18630E-01
    9024.672     30.290   3.120  8.88972E-01  1.00475E+00 -1.15780E-01
    9025.629     31.247   3.160  8.91946E-01  1.00397E+00 -1.12027E-01
    9026.598     32.216   3.200  8.95284E-01  1.00313E+00 -1.07850E-01
    9027.580     33.198   3.240  8.98584E-01  1.00230E+00 -1.03719E-01
    9028.573     34.191   3.280  9.01542E-01  1.00144E+00 -9.99014E-02
    9029.579     35.197   3.320  9.03859E-01  1.00056E+00 -9.66998E-02
    9030.597     36.215   3.360  9.05773E-01  9.99692E-01 -9.39194E-02
    9031.627     37.245   3.400  9.07794E-01  9.98829E-01 -9.10347E-02
    9032.670     38.288   3.440  9.10609E-01  9.97992E-01 -8.73822E-02
    9033.724     39.342   3.480  9.14827E-01  9.97161E-01 -8.23340E-02
    9034.791     40.409   3.520  9.20905E-01  9.96340E-01 -7.54346E-02
    9035.870     41.488   3.560  9.29028E-01  9.95550E-01 -6.65217E-02
    9036.961     42.579   3.600  9.38893E-01  9.94796E-01 -5.59033E-02
    9038.065     43.683   3.640  9.50060E-01  9.94080E-01 -4.40195E-02
    9039.180     44.798   3.680  9.62013E-01  9.93402E-01 -3.13884E-02
    9040.308     45.926   3.720  9.74256E-01  9.92763E-01 -1.85067E-02
    9041.448     47.066   3.760  9.86457E-01  9.92164E-01 -5.70719E-03
    9042.600     48.218   3.800  9.98470E-01  9.91606E-01  6.86468E-03
    9043.764     49.383   3.840  1.01017E+00  9.91090E-01  1.90817E-02
    9044.941     50.559   3.880  1.02144E+00  9.90639E-01  3.08023E-02
    9046.130     51.748   3.920  1.03212E+00  9.90210E-01  4.19081E-02
    9047.331     52.949   3.960  1.04213E+00  9.89847E-01  5.22857E-02
    9048.544     54.162   4.000  1.05133E+00  9.89549E-01  6.17828E-02
    9049.769     55.387   4.040  1.05958E+00  9.89275E-01  7.03047E-02
    9051.006     56.625   4.080  1.06668E+00  9.89064E-01  7.76159E-02
    9052.256     57.874   4.120  1.07223E+00  9.88897E-01  8.33365E-02
    9053.518     59.136   4.160  1.07588E+00  9.88773E-01  8.71031E-02
    9054.792     60.410   4.200  1.07744E+00  9.88692E-01  8.87518E-02
    9056.078     61.696   4.240  1.07694E+00  9.88674E-01  8.82687E-02
    9057.377     62.995   4.280  1.07441E+00  9.88676E-01  8.57341E-02
    9058.687     64.305   4.320  1.07013E+00  9.88741E-01  8.13859E-02
    9060.010     65.628   4.360  1.06437E+00  9.88847E-01  7.55185E-02
    9061.345     66.963   4.400  1.05747E+00  9.88970E-01  6.84986E-02
    9062.692     68.311   4.440  1.04991E+00  9.89153E-01  6.07537E-02
    9064.052     69.670   4.480  1.04205E+00  9.89374E-01  5.26741E-02
    9065.423     71.042   4.520  1.03412E+00  9.89608E-01  4.45131E-02
    9066.807     72.425   4.560  1.02628E+00  9.89875E-01  3.64036E-02
    9068.203     73.821   4.600  1.01855E+00  9.90177E-01  2.83770E-02
    9069.611     75.229   4.640  1.01088E+00  9.90489E-01  2.03905E-02
    9071.032     76.650   4.680  1.00332E+00  9.90831E-01  1.24852E-02
    9072.464     78.082   4.720  9.95956E-01  9.91181E-01  4.77445E-03
    9073.909     79.527   4.760  9.88960E-01  9.91560E-01 -2.60063E-03
    9075.366     80.984   4.800  9.82522E-01  9.91945E-01 -9.42275E-03
    9076.835     82.453   4.840  9.76880E-01  9.92333E-01 -1.54527E-02
    9078.316     83.935   4.880  9.72352E-01  9.92745E-01 -2.03937E-02
    9079.810     85.428   4.920  9.69170E-01  9.93138E-01 -2.39675E-02
    9081.316     86.934   4.960  9.67454E-01  9.93551E-01 -2.60977E-02
    9082.834     88.452   5.000  9.66953E-01  9.93964E-01 -2.70104E-02
    9084.364     89.982   5.040  9.67087E-01  9.94350E-01 -2.72633E-02
    9085.906     91.524   5.080  9.67131E-01  9.94732E-01 -2.76007E-02
    9087.460     93.078   5.120  9.66457E-01  9.95108E-01 -2.86505E-02
    9089.027     94.645   5.160  9.64733E-01  9.95478E-01 -3.07458E-02
    9090.606     96.224   5.200  9.61971E-01  9.95819E-01 -3.38476E-02
    9092.197     97.815   5.240  9.58484E-01  9.96149E-01 -3.76651E-02
    9093.800     99.418   5.280  9.54644E-01  9.96445E-01 -4.18008E-02
    9095.416    101.034   5.320  9.50855E-01  9.96707E-01 -4.58525E-02
    9097.043    102.661   5.360  9.47472E-01  9.96960E-01 -4.94881E-02
    9098.683    104.301   5.400  9.44796E-01  9.97200E-01 -5.24037E-02
    9100.335    105.953   5.440  9.43116E-01  9.97382E-01 -5.42655E-02
    9101.999    107.617   5.480  9.42867E-01  9.97549E-01 -5.46817E-02
    9103.676    109.294   5.520  9.44357E-01  9.97679E-01 -5.33222E-02
    9105.364    110.982   5.560  9.47715E-01  9.97773E-01 -5.00578E-02
    9107.065    112.683   5.600  9.52858E-01  9.97851E-01 -4.49930E-02
    9108.778    114.396   5.640  9.59503E-01  9.97869E-01 -3.83659E-02
    9110.503    116.121   5.680  9.67397E-01  9.97869E-01 -3.04715E-02
    9112.241    117.859   5.720  9.76173E-01  9.97807E-01 -2.16338E-02
    9113.990    119.608   5.760  9.85510E-01  9.97732E-01 -1.22218E-02
    9115.752    121.370   5.800  9.94996E-01  9.97619E-01 -2.62292E-03
    9117.526    123.144   5.840  1.00424E+00  9.97467E-01  6.77411E-03
    9119.312    124.930   5.880  1.01283E+00  9.97277E-01  1.55566E-02
    9121.110    126.728   5.920  1.02029E+00  9.97051E-01  2.32434E-02
    9122.921    128.539   5.960  1.02609E+00  9.96786E-01  2.92998E-02
    9124.743    130.361   6.000  1.02971E+00  9.96459E-01  3.32506E-02
