# # comment:                                                     FEFF 9.9.1  
# # Source:
# # Structure
# # Reduced
# # space
# # abc:
# # angles:
# # sites:
# # POT  SCF 100  7.0000   0, screened core-hole, AFOLP (folp(0)= 1.150)
# # Abs   Z=29 Rmt= 1.285 Rnm= 1.353 K  shell
# # Pot 1 Z= 3 Rmt= 1.250 Rnm= 1.310
# # Pot 2 Z=29 Rmt= 1.285 Rnm= 1.353
# # Pot 3 Z= 6 Rmt= 0.711 Rnm= 0.926
# # Pot 4 Z= 8 Rmt= 0.876 Rnm= 1.014
# # Gam_ch=1.729E+00 H-L exch Vi= 0.000E+00 Vr= 0.000E+00
# # Mu=-7.275E+00eV kf=2.580E+00 Vint=-1.863E+01eV Rs_int= 1.406
# FMS rfms= 9.0000
# # PATH  Rmax=-1.000,  Keep_limit= 0.00, Heap_limit 0.00  Pwcrit= 2.50%
#  S02=0.950  Temp=   0.00  Debye_temp=   0.00  Global_sig2= 0.00000
#  Energy zero shift, vr, vi    0.00000E+00   0.00000E+00
#  Curved wave amplitude ratio filter   4.000%
#     file         sig2 tot  cw amp ratio   deg  nlegs   reff  inp sig2
#     0/   0 paths used
#  xsedge+ 50, used to normalize mu           2.5031E-04
#  -----------------------------------------------------------------------
#  omega    e    k    mu    mu0     chi     @#
    8983.706    -11.085  -1.000  4.28090E-02  5.12179E-02 -8.40889E-03
    8984.005    -10.786  -0.960  4.54383E-02  5.49153E-02 -9.47705E-03
    8984.291    -10.499  -0.920  4.83171E-02  5.90255E-02 -1.07084E-02
    8984.565    -10.225  -0.880  5.14784E-02  6.36097E-02 -1.21312E-02
    8984.828     -9.963  -0.840  5.49604E-02  6.87392E-02 -1.37788E-02
    8985.078     -9.713  -0.800  5.88067E-02  7.44969E-02 -1.56902E-02
    8985.315     -9.475  -0.760  6.30668E-02  8.09779E-02 -1.79111E-02
    8985.541     -9.250  -0.720  6.77960E-02  8.82897E-02 -2.04937E-02
    8985.754     -9.036  -0.680  7.30546E-02  9.65510E-02 -2.34964E-02
    8985.955     -8.835  -0.640  7.89053E-02  1.05887E-01 -2.69818E-02
    8986.144     -8.646  -0.600  8.54084E-02  1.16421E-01 -3.10128E-02
    8986.321     -8.469  -0.560  9.26142E-02  1.28259E-01 -3.56447E-02
    8986.486     -8.305  -0.520  1.00550E-01  1.41463E-01 -4.09131E-02
    8986.638     -8.152  -0.480  1.09204E-01  1.56021E-01 -4.68172E-02
    8986.778     -8.012  -0.440  1.18503E-01  1.71804E-01 -5.33007E-02
    8986.906     -7.884  -0.400  1.28301E-01  1.88536E-01 -6.02348E-02
    8987.022     -7.768  -0.360  1.38366E-01  2.05781E-01 -6.74153E-02
    8987.126     -7.665  -0.320  1.48400E-01  2.22977E-01 -7.45771E-02
    8987.217     -7.573  -0.280  1.58064E-01  2.39495E-01 -8.14313E-02
    8987.296     -7.494  -0.240  1.67027E-01  2.54736E-01 -8.77091E-02
    8987.364     -7.427  -0.200  1.74999E-01  2.68197E-01 -9.31982E-02
    8987.418     -7.372  -0.160  1.81755E-01  2.79513E-01 -9.77586E-02
    8987.461     -7.329  -0.120  1.87136E-01  2.88453E-01 -1.01317E-01
    8987.492     -7.299  -0.080  1.91042E-01  2.94890E-01 -1.03847E-01
    8987.516     -7.275   0.000  1.94218E-01  3.00059E-01 -1.05842E-01
    8987.571     -7.220   0.120  2.01406E-01  3.11711E-01 -1.10305E-01
    8987.613     -7.177   0.160  2.07000E-01  3.20758E-01 -1.13757E-01
    8987.668     -7.122   0.200  2.14195E-01  3.32296E-01 -1.18100E-01
    8987.735     -7.055   0.240  2.22943E-01  3.46136E-01 -1.23193E-01
    8987.815     -6.976   0.280  2.33181E-01  3.62024E-01 -1.28843E-01
    8987.906     -6.884   0.320  2.44716E-01  3.79494E-01 -1.34778E-01
    8988.010     -6.781   0.360  2.57379E-01  3.98042E-01 -1.40663E-01
    8988.126     -6.665   0.400  2.70913E-01  4.17090E-01 -1.46177E-01
    8988.254     -6.537   0.440  2.85151E-01  4.36130E-01 -1.50978E-01
    8988.394     -6.397   0.480  2.99998E-01  4.54751E-01 -1.54753E-01
    8988.546     -6.244   0.520  3.15483E-01  4.72745E-01 -1.57262E-01
    8988.711     -6.080   0.560  3.31471E-01  4.89960E-01 -1.58489E-01
    8988.888     -5.903   0.600  3.47591E-01  5.06391E-01 -1.58800E-01
    8989.076     -5.714   0.640  3.63108E-01  5.22077E-01 -1.58969E-01
    8989.278     -5.513   0.680  3.77440E-01  5.37136E-01 -1.59695E-01
    8989.491     -5.299   0.720  3.90788E-01  5.51658E-01 -1.60870E-01
    8989.717     -5.074   0.760  4.04427E-01  5.65736E-01 -1.61309E-01
    8989.954     -4.836   0.800  4.20060E-01  5.79472E-01 -1.59412E-01
    8990.204     -4.586   0.840  4.38573E-01  5.92956E-01 -1.54383E-01
    8990.466     -4.324   0.880  4.58847E-01  6.06244E-01 -1.47397E-01
    8990.741     -4.050   0.920  4.77505E-01  6.19383E-01 -1.41878E-01
    8991.027     -3.763   0.960  4.90741E-01  6.32423E-01 -1.41682E-01
    8991.326     -3.465   1.000  4.97805E-01  6.45387E-01 -1.47582E-01
    8991.637     -3.154   1.040  5.02206E-01  6.58311E-01 -1.56105E-01
    8991.960     -2.831   1.080  5.08561E-01  6.71200E-01 -1.62639E-01
    8992.295     -2.495   1.120  5.19578E-01  6.84050E-01 -1.64471E-01
    8992.643     -2.148   1.160  5.36082E-01  6.96878E-01 -1.60796E-01
    8993.002     -1.788   1.200  5.58213E-01  7.09674E-01 -1.51461E-01
    8993.374     -1.416   1.240  5.86684E-01  7.22401E-01 -1.35717E-01
    8993.758     -1.032   1.280  6.23757E-01  7.35083E-01 -1.11326E-01
    8994.154     -0.636   1.320  6.72157E-01  7.47699E-01 -7.55422E-02
    8994.563     -0.228   1.360  7.32591E-01  7.60228E-01 -2.76368E-02
    8994.983      0.193   1.400  8.00012E-01  7.72642E-01  2.73697E-02
    8995.416      0.626   1.440  8.60444E-01  7.84918E-01  7.55258E-02
    8995.861      1.071   1.480  8.97298E-01  7.97050E-01  1.00248E-01
    8996.319      1.528   1.520  9.07893E-01  8.08989E-01  9.89040E-02
    8996.788      1.997   1.560  9.07004E-01  8.20747E-01  8.62577E-02
    8997.269      2.479   1.600  9.10013E-01  8.32295E-01  7.77178E-02
    8997.763      2.973   1.640  9.20554E-01  8.43606E-01  7.69486E-02
    8998.269      3.479   1.680  9.30874E-01  8.54630E-01  7.62432E-02
    8998.787      3.997   1.720  9.32436E-01  8.65400E-01  6.70368E-02
    8999.318      4.527   1.760  9.29571E-01  8.75844E-01  5.37274E-02
    8999.860      5.070   1.800  9.36127E-01  8.85997E-01  5.01295E-02
    9000.415      5.624   1.840  9.57217E-01  8.95792E-01  6.14247E-02
    9000.982      6.191   1.880  9.86253E-01  9.05240E-01  8.10130E-02
    9001.561      6.771   1.920  1.01601E+00  9.14316E-01  1.01692E-01
    9002.152      7.362   1.960  1.04563E+00  9.23014E-01  1.22620E-01
    9002.756      7.965   2.000  1.07490E+00  9.31309E-01  1.43588E-01
    9003.372      8.581   2.040  1.10270E+00  9.39218E-01  1.63479E-01
    9003.999      9.209   2.080  1.12681E+00  9.46718E-01  1.80097E-01
    9004.640      9.849   2.120  1.14598E+00  9.53806E-01  1.92173E-01
    9005.292     10.501   2.160  1.16010E+00  9.60482E-01  1.99623E-01
    9005.956     11.166   2.200  1.16832E+00  9.66725E-01  2.01592E-01
    9006.633     11.842   2.240  1.17081E+00  9.72574E-01  1.98231E-01
    9007.322     12.531   2.280  1.16774E+00  9.77992E-01  1.89750E-01
    9008.023     13.232   2.320  1.15844E+00  9.82998E-01  1.75440E-01
    9008.736     13.946   2.360  1.14471E+00  9.87598E-01  1.57110E-01
    9009.461     14.671   2.400  1.13324E+00  9.91793E-01  1.41443E-01
    9010.199     15.409   2.440  1.12682E+00  9.95590E-01  1.31234E-01
    9010.949     16.158   2.480  1.11798E+00  9.99010E-01  1.18972E-01
    9011.711     16.920   2.520  1.09952E+00  1.00206E+00  9.74553E-02
    9012.485     17.695   2.560  1.07345E+00  1.00475E+00  6.86982E-02
    9013.271     18.481   2.600  1.04480E+00  1.00708E+00  3.77209E-02
    9014.070     19.279   2.640  1.01516E+00  1.00908E+00  6.08085E-03
    9014.881     20.090   2.680  9.84973E-01  1.01073E+00 -2.57553E-02
    9015.704     20.913   2.720  9.56436E-01  1.01208E+00 -5.56492E-02
    9016.539     21.748   2.760  9.32580E-01  1.01315E+00 -8.05715E-02
    9017.386     22.596   2.800  9.15525E-01  1.01394E+00 -9.84132E-02
    9018.246     23.455   2.840  9.04295E-01  1.01445E+00 -1.10156E-01
    9019.117     24.327   2.880  8.97892E-01  1.01474E+00 -1.16845E-01
    9020.001     25.211   2.920  8.99704E-01  1.01477E+00 -1.15064E-01
    9020.897     26.107   2.960  9.13924E-01  1.01461E+00 -1.00685E-01
    9021.806     27.015   3.000  9.31723E-01  1.01423E+00 -8.25053E-02
    9022.726     27.936   3.040  9.45264E-01  1.01367E+00 -6.84095E-02
    9023.659     28.868   3.080  9.53839E-01  1.01295E+00 -5.91155E-02
    9024.604     29.813   3.120  9.58583E-01  1.01208E+00 -5.34938E-02
    9025.561     30.770   3.160  9.61065E-01  1.01105E+00 -4.99830E-02
    9026.530     31.740   3.200  9.62437E-01  1.00992E+00 -4.74800E-02
    9027.512     32.721   3.240  9.63270E-01  1.00867E+00 -4.54005E-02
    9028.505     33.715   3.280  9.63827E-01  1.00732E+00 -4.34882E-02
    9029.511     34.721   3.320  9.64223E-01  1.00590E+00 -4.16765E-02
    9030.529     35.739   3.360  9.64503E-01  1.00441E+00 -3.99055E-02
    9031.559     36.769   3.400  9.65023E-01  1.00287E+00 -3.78469E-02
    9032.602     37.811   3.440  9.66098E-01  1.00129E+00 -3.51907E-02
    9033.656     38.866   3.480  9.67879E-01  9.99669E-01 -3.17907E-02
    9034.723     39.933   3.520  9.70435E-01  9.98017E-01 -2.75821E-02
    9035.802     41.012   3.560  9.73742E-01  9.96357E-01 -2.26149E-02
    9036.893     42.103   3.600  9.77628E-01  9.94696E-01 -1.70678E-02
    9037.997     43.206   3.640  9.81892E-01  9.93060E-01 -1.11675E-02
    9039.112     44.322   3.680  9.86176E-01  9.91430E-01 -5.25379E-03
    9040.240     45.449   3.720  9.89997E-01  9.89812E-01  1.85063E-04
    9041.380     46.589   3.760  9.92889E-01  9.88249E-01  4.63997E-03
    9042.532     47.742   3.800  9.94421E-01  9.86704E-01  7.71631E-03
    9043.696     48.906   3.840  9.94386E-01  9.85221E-01  9.16504E-03
    9044.873     50.082   3.880  9.92876E-01  9.83783E-01  9.09291E-03
    9046.062     51.271   3.920  9.90384E-01  9.82391E-01  7.99360E-03
    9047.263     52.472   3.960  9.87637E-01  9.81068E-01  6.56943E-03
    9048.476     53.685   4.000  9.85282E-01  9.79796E-01  5.48573E-03
    9049.701     54.910   4.040  9.83830E-01  9.78621E-01  5.20955E-03
    9050.938     56.148   4.080  9.83382E-01  9.77500E-01  5.88253E-03
    9052.188     57.398   4.120  9.83843E-01  9.76455E-01  7.38766E-03
    9053.450     58.659   4.160  9.84961E-01  9.75488E-01  9.47381E-03
    9054.724     59.934   4.200  9.86477E-01  9.74598E-01  1.18796E-02
    9056.010     61.220   4.240  9.88173E-01  9.73787E-01  1.43858E-02
    9057.309     62.518   4.280  9.89850E-01  9.73057E-01  1.67930E-02
    9058.619     63.829   4.320  9.91338E-01  9.72406E-01  1.89317E-02
    9059.942     65.152   4.360  9.92470E-01  9.71834E-01  2.06364E-02
    9061.277     66.487   4.400  9.93141E-01  9.71343E-01  2.17983E-02
    9062.624     67.834   4.440  9.93352E-01  9.70932E-01  2.24198E-02
    9063.984     69.193   4.480  9.93212E-01  9.70623E-01  2.25890E-02
    9065.355     70.565   4.520  9.92761E-01  9.70371E-01  2.23900E-02
    9066.739     71.949   4.560  9.92043E-01  9.70195E-01  2.18474E-02
    9068.135     73.345   4.600  9.91038E-01  9.70098E-01  2.09401E-02
    9069.543     74.753   4.640  9.89717E-01  9.70079E-01  1.96386E-02
    9070.964     76.173   4.680  9.88106E-01  9.70136E-01  1.79697E-02
    9072.396     77.606   4.720  9.86323E-01  9.70267E-01  1.60556E-02
    9073.841     79.051   4.760  9.84534E-01  9.70448E-01  1.40860E-02
    9075.298     80.507   4.800  9.82977E-01  9.70700E-01  1.22779E-02
    9076.767     81.977   4.840  9.81805E-01  9.70998E-01  1.08077E-02
    9078.248     83.458   4.880  9.81070E-01  9.71342E-01  9.72837E-03
    9079.742     84.951   4.920  9.80735E-01  9.71753E-01  8.98192E-03
    9081.248     86.457   4.960  9.80661E-01  9.72209E-01  8.45132E-03
    9082.766     87.975   5.000  9.80736E-01  9.72728E-01  8.00741E-03
    9084.296     89.505   5.040  9.80795E-01  9.73264E-01  7.53126E-03
    9085.838     91.047   5.080  9.80778E-01  9.73834E-01  6.94360E-03
    9087.392     92.602   5.120  9.80661E-01  9.74417E-01  6.24470E-03
    9088.959     94.169   5.160  9.80553E-01  9.75052E-01  5.50095E-03
    9090.538     95.747   5.200  9.80449E-01  9.75675E-01  4.77350E-03
    9092.129     97.338   5.240  9.80345E-01  9.76326E-01  4.01874E-03
    9093.732     98.942   5.280  9.80071E-01  9.77004E-01  3.06674E-03
    9095.348    100.557   5.320  9.79362E-01  9.77662E-01  1.70020E-03
    9096.975    102.185   5.360  9.78080E-01  9.78340E-01 -2.60206E-04
    9098.615    103.825   5.400  9.76079E-01  9.78995E-01 -2.91658E-03
    9100.267    105.477   5.440  9.73365E-01  9.79644E-01 -6.27908E-03
    9101.931    107.141   5.480  9.70061E-01  9.80286E-01 -1.02259E-02
    9103.608    108.817   5.520  9.66428E-01  9.80899E-01 -1.44707E-02
    9105.296    110.506   5.560  9.62901E-01  9.81502E-01 -1.86016E-02
    9106.997    112.207   5.600  9.59873E-01  9.82072E-01 -2.21986E-02
    9108.710    113.919   5.640  9.57671E-01  9.82627E-01 -2.49559E-02
    9110.435    115.645   5.680  9.56396E-01  9.83122E-01 -2.67255E-02
    9112.173    117.382   5.720  9.56099E-01  9.83597E-01 -2.74986E-02
    9113.922    119.132   5.760  9.56651E-01  9.84009E-01 -2.73577E-02
    9115.684    120.893   5.800  9.57899E-01  9.84377E-01 -2.64772E-02
    9117.458    122.667   5.840  9.59575E-01  9.84701E-01 -2.51264E-02
    9119.244    124.453   5.880  9.61367E-01  9.84980E-01 -2.36137E-02
    9121.042    126.252   5.920  9.63017E-01  9.85187E-01 -2.21701E-02
    9122.853    128.062   5.960  9.64500E-01  9.85336E-01 -2.08361E-02
    9124.675    129.885   6.000  9.66054E-01  9.85408E-01 -1.93547E-02
