# # comment:                                                     FEFF 9.9.1  
# # Source:
# # Structure
# # Reduced
# # space
# # abc:
# # angles:
# # sites:
# # POT  SCF 100  7.0000   0, screened core-hole, AFOLP (folp(0)= 1.150)
# # Abs   Z=29 Rmt= 1.310 Rnm= 1.372 K  shell
# # Pot 1 Z= 3 Rmt= 1.327 Rnm= 1.384
# # Pot 2 Z=29 Rmt= 1.310 Rnm= 1.373
# # Pot 3 Z= 6 Rmt= 0.712 Rnm= 0.926
# # Pot 4 Z= 8 Rmt= 0.885 Rnm= 1.014
# # Gam_ch=1.729E+00 H-L exch Vi= 0.000E+00 Vr= 0.000E+00
# # Mu=-6.588E+00eV kf=2.563E+00 Vint=-1.862E+01eV Rs_int= 1.415
# FMS rfms= 9.0000
# # PATH  Rmax=-1.000,  Keep_limit= 0.00, Heap_limit 0.00  Pwcrit= 2.50%
#  S02=0.950  Temp=   0.00  Debye_temp=   0.00  Global_sig2= 0.00000
#  Energy zero shift, vr, vi    0.00000E+00   0.00000E+00
#  Curved wave amplitude ratio filter   4.000%
#     file         sig2 tot  cw amp ratio   deg  nlegs   reff  inp sig2
#     0/   0 paths used
#  xsedge+ 50, used to normalize mu           2.4751E-04
#  -----------------------------------------------------------------------
#  omega    e    k    mu    mu0     chi     @#
    8983.641    -10.398  -1.000  4.87123E-02  5.35742E-02 -4.86188E-03
    8983.939    -10.099  -0.960  5.19573E-02  5.74670E-02 -5.50965E-03
    8984.226     -9.812  -0.920  5.55483E-02  6.17955E-02 -6.24724E-03
    8984.500     -9.538  -0.880  5.95383E-02  6.66246E-02 -7.08628E-03
    8984.762     -9.276  -0.840  6.39901E-02  7.20295E-02 -8.03942E-03
    8985.012     -9.026  -0.800  6.89778E-02  7.80979E-02 -9.12020E-03
    8985.250     -8.788  -0.760  7.45875E-02  8.49303E-02 -1.03428E-02
    8985.476     -8.563  -0.720  8.09188E-02  9.26403E-02 -1.17215E-02
    8985.689     -8.349  -0.680  8.80829E-02  1.01353E-01 -1.32705E-02
    8985.890     -8.148  -0.640  9.61993E-02  1.11202E-01 -1.50028E-02
    8986.079     -7.959  -0.600  1.05387E-01  1.22317E-01 -1.69302E-02
    8986.256     -7.782  -0.560  1.15746E-01  1.34809E-01 -1.90626E-02
    8986.420     -7.618  -0.520  1.27337E-01  1.48745E-01 -2.14085E-02
    8986.573     -7.465  -0.480  1.40136E-01  1.64112E-01 -2.39759E-02
    8986.713     -7.325  -0.440  1.54001E-01  1.80774E-01 -2.67726E-02
    8986.841     -7.197  -0.400  1.68635E-01  1.98439E-01 -2.98043E-02
    8986.957     -7.081  -0.360  1.83580E-01  2.16648E-01 -3.30672E-02
    8987.060     -6.978  -0.320  1.98268E-01  2.34803E-01 -3.65348E-02
    8987.152     -6.886  -0.280  2.12102E-01  2.52244E-01 -4.01427E-02
    8987.231     -6.807  -0.240  2.24557E-01  2.68336E-01 -4.37786E-02
    8987.298     -6.740  -0.200  2.35261E-01  2.82548E-01 -4.72871E-02
    8987.353     -6.685  -0.160  2.44008E-01  2.94494E-01 -5.04868E-02
    8987.396     -6.642  -0.120  2.50734E-01  3.03932E-01 -5.31975E-02
    8987.426     -6.612  -0.080  2.55458E-01  3.10727E-01 -5.52686E-02
    8987.451     -6.588   0.000  2.59118E-01  3.16183E-01 -5.70653E-02
    8987.505     -6.533   0.120  2.67076E-01  3.28482E-01 -6.14066E-02
    8987.548     -6.490   0.160  2.73173E-01  3.38016E-01 -6.48427E-02
    8987.603     -6.435   0.200  2.80763E-01  3.50193E-01 -6.94297E-02
    8987.670     -6.368   0.240  2.89531E-01  3.64814E-01 -7.52832E-02
    8987.749     -6.289   0.280  2.99122E-01  3.81565E-01 -8.24428E-02
    8987.841     -6.197   0.320  3.09161E-01  3.99996E-01 -9.08357E-02
    8987.944     -6.094   0.360  3.19344E-01  4.19531E-01 -1.00187E-01
    8988.060     -5.978   0.400  3.29606E-01  4.39597E-01 -1.09991E-01
    8988.188     -5.850   0.440  3.40152E-01  4.59659E-01 -1.19507E-01
    8988.328     -5.710   0.480  3.51427E-01  4.79279E-01 -1.27852E-01
    8988.481     -5.557   0.520  3.64013E-01  4.98178E-01 -1.34166E-01
    8988.645     -5.393   0.560  3.78540E-01  5.16258E-01 -1.37718E-01
    8988.822     -5.216   0.600  3.95422E-01  5.33509E-01 -1.38087E-01
    8989.011     -5.027   0.640  4.14501E-01  5.49978E-01 -1.35477E-01
    8989.212     -4.826   0.680  4.34553E-01  5.65749E-01 -1.31195E-01
    8989.426     -4.612   0.720  4.53080E-01  5.80958E-01 -1.27878E-01
    8989.651     -4.387   0.760  4.66788E-01  5.95685E-01 -1.28897E-01
    8989.889     -4.149   0.800  4.73273E-01  6.10058E-01 -1.36785E-01
    8990.139     -3.899   0.840  4.72352E-01  6.24153E-01 -1.51801E-01
    8990.401     -3.637   0.880  4.66442E-01  6.38052E-01 -1.71611E-01
    8990.675     -3.363   0.920  4.60020E-01  6.51783E-01 -1.91764E-01
    8990.962     -3.076   0.960  4.58316E-01  6.65403E-01 -2.07087E-01
    8991.261     -2.778   1.000  4.65238E-01  6.78957E-01 -2.13719E-01
    8991.572     -2.467   1.040  4.82872E-01  6.92438E-01 -2.09566E-01
    8991.895     -2.144   1.080  5.12793E-01  7.05895E-01 -1.93102E-01
    8992.230     -1.808   1.120  5.55818E-01  7.19330E-01 -1.63512E-01
    8992.577     -1.461   1.160  6.10796E-01  7.32714E-01 -1.21918E-01
    8992.937     -1.101   1.200  6.75223E-01  7.46056E-01 -7.08331E-02
    8993.309     -0.729   1.240  7.46542E-01  7.59343E-01 -1.28011E-02
    8993.693     -0.345   1.280  8.20059E-01  7.72576E-01  4.74833E-02
    8994.089      0.051   1.320  8.89409E-01  7.85711E-01  1.03698E-01
    8994.498      0.459   1.360  9.52318E-01  7.98727E-01  1.53590E-01
    8994.918      0.880   1.400  1.01086E+00  8.11637E-01  1.99228E-01
    8995.351      1.313   1.440  1.06586E+00  8.24372E-01  2.41493E-01
    8995.796      1.758   1.480  1.11140E+00  8.36924E-01  2.74471E-01
    8996.253      2.215   1.520  1.13865E+00  8.49283E-01  2.89363E-01
    8996.723      2.684   1.560  1.14637E+00  8.61400E-01  2.84972E-01
    8997.204      3.166   1.600  1.13811E+00  8.73242E-01  2.64868E-01
    8997.698      3.660   1.640  1.11232E+00  8.84797E-01  2.27525E-01
    8998.204      4.166   1.680  1.07274E+00  8.96058E-01  1.76686E-01
    8998.722      4.684   1.720  1.03272E+00  9.06972E-01  1.25745E-01
    8999.252      5.214   1.760  9.96073E-01  9.17507E-01  7.85667E-02
    8999.795      5.757   1.800  9.68692E-01  9.27674E-01  4.10175E-02
    9000.350      6.312   1.840  9.64008E-01  9.37425E-01  2.65830E-02
    9000.917      6.878   1.880  9.83046E-01  9.46751E-01  3.62953E-02
    9001.496      7.458   1.920  1.01085E+00  9.55625E-01  5.52269E-02
    9002.087      8.049   1.960  1.03570E+00  9.64060E-01  7.16384E-02
    9002.691      8.652   2.000  1.05750E+00  9.72012E-01  8.54850E-02
    9003.306      9.268   2.040  1.07779E+00  9.79517E-01  9.82751E-02
    9003.934      9.896   2.080  1.09624E+00  9.86510E-01  1.09735E-01
    9004.574     10.536   2.120  1.11515E+00  9.93029E-01  1.22118E-01
    9005.226     11.188   2.160  1.14238E+00  9.99057E-01  1.43325E-01
    9005.891     11.853   2.200  1.18322E+00  1.00457E+00  1.78651E-01
    9006.568     12.529   2.240  1.23110E+00  1.00963E+00  2.21465E-01
    9007.256     13.218   2.280  1.27269E+00  1.01419E+00  2.58498E-01
    9007.957     13.919   2.320  1.29792E+00  1.01828E+00  2.79640E-01
    9008.671     14.633   2.360  1.30160E+00  1.02192E+00  2.79679E-01
    9009.396     15.358   2.400  1.27932E+00  1.02508E+00  2.54238E-01
    9010.134     16.096   2.440  1.23142E+00  1.02781E+00  2.03604E-01
    9010.884     16.845   2.480  1.16525E+00  1.03011E+00  1.35146E-01
    9011.646     17.607   2.520  1.09340E+00  1.03201E+00  6.13849E-02
    9012.420     18.382   2.560  1.02897E+00  1.03350E+00 -4.52966E-03
    9013.206     19.168   2.600  9.78979E-01  1.03463E+00 -5.56517E-02
    9014.005     19.967   2.640  9.44143E-01  1.03540E+00 -9.12589E-02
    9014.815     20.777   2.680  9.23223E-01  1.03584E+00 -1.12617E-01
    9015.638     21.600   2.720  9.13218E-01  1.03596E+00 -1.22740E-01
    9016.474     22.435   2.760  9.09219E-01  1.03578E+00 -1.26566E-01
    9017.321     23.283   2.800  9.06319E-01  1.03533E+00 -1.29012E-01
    9018.180     24.142   2.840  9.01276E-01  1.03465E+00 -1.33375E-01
    9019.052     25.014   2.880  8.93922E-01  1.03371E+00 -1.39790E-01
    9019.936     25.898   2.920  8.87174E-01  1.03259E+00 -1.45412E-01
    9020.832     26.794   2.960  8.87170E-01  1.03126E+00 -1.44094E-01
    9021.740     27.702   3.000  8.90240E-01  1.02977E+00 -1.39535E-01
    9022.661     28.623   3.040  8.93547E-01  1.02813E+00 -1.34582E-01
    9023.594     29.556   3.080  8.96280E-01  1.02636E+00 -1.30078E-01
    9024.539     30.500   3.120  8.98734E-01  1.02449E+00 -1.25757E-01
    9025.496     31.457   3.160  9.01369E-01  1.02254E+00 -1.21170E-01
    9026.465     32.427   3.200  9.04481E-01  1.02051E+00 -1.16029E-01
    9027.446     33.408   3.240  9.08349E-01  1.01841E+00 -1.10061E-01
    9028.440     34.402   3.280  9.13446E-01  1.01629E+00 -1.02842E-01
    9029.446     35.408   3.320  9.20129E-01  1.01413E+00 -9.40056E-02
    9030.464     36.426   3.360  9.28654E-01  1.01197E+00 -8.33200E-02
    9031.494     37.456   3.400  9.39278E-01  1.00981E+00 -7.05363E-02
    9032.536     38.498   3.440  9.51990E-01  1.00768E+00 -5.56932E-02
    9033.591     39.553   3.480  9.66445E-01  1.00556E+00 -3.91193E-02
    9034.658     40.620   3.520  9.82085E-01  1.00349E+00 -2.14005E-02
    9035.737     41.699   3.560  9.98164E-01  1.00147E+00 -3.30600E-03
    9036.828     42.790   3.600  1.01384E+00  9.99504E-01  1.43374E-02
    9037.931     43.893   3.640  1.02844E+00  9.97614E-01  3.08283E-02
    9039.047     45.009   3.680  1.04132E+00  9.95799E-01  4.55253E-02
    9040.175     46.137   3.720  1.05188E+00  9.94065E-01  5.78175E-02
    9041.315     47.277   3.760  1.05980E+00  9.92415E-01  6.73826E-02
    9042.467     48.429   3.800  1.06503E+00  9.90851E-01  7.41775E-02
    9043.631     49.593   3.840  1.06777E+00  9.89398E-01  7.83741E-02
    9044.808     50.770   3.880  1.06844E+00  9.88058E-01  8.03832E-02
    9045.996     51.958   3.920  1.06762E+00  9.86812E-01  8.08038E-02
    9047.197     53.159   3.960  1.06593E+00  9.85701E-01  8.02248E-02
    9048.410     54.372   4.000  1.06369E+00  9.84664E-01  7.90287E-02
    9049.636     55.598   4.040  1.06111E+00  9.83765E-01  7.73455E-02
    9050.873     56.835   4.080  1.05795E+00  9.82985E-01  7.49630E-02
    9052.123     58.085   4.120  1.05381E+00  9.82302E-01  7.15056E-02
    9053.385     59.347   4.160  1.04840E+00  9.81756E-01  6.66403E-02
    9054.659     60.621   4.200  1.04158E+00  9.81307E-01  6.02713E-02
    9055.945     61.907   4.240  1.03351E+00  9.80974E-01  5.25332E-02
    9057.243     63.205   4.280  1.02454E+00  9.80756E-01  4.37845E-02
    9058.554     64.516   4.320  1.01517E+00  9.80631E-01  3.45379E-02
    9059.877     65.839   4.360  1.00596E+00  9.80619E-01  2.53434E-02
    9061.212     67.174   4.400  9.97484E-01  9.80721E-01  1.67633E-02
    9062.559     68.521   4.440  9.90192E-01  9.80911E-01  9.28103E-03
    9063.919     69.880   4.480  9.84368E-01  9.81209E-01  3.15882E-03
    9065.290     71.252   4.520  9.79958E-01  9.81570E-01 -1.61189E-03
    9066.674     72.636   4.560  9.76807E-01  9.82035E-01 -5.22724E-03
    9068.070     74.032   4.600  9.74591E-01  9.82580E-01 -7.98932E-03
    9069.478     75.440   4.640  9.72983E-01  9.83202E-01 -1.02192E-02
    9070.898     76.860   4.680  9.71682E-01  9.83876E-01 -1.21941E-02
    9072.331     78.293   4.720  9.70467E-01  9.84621E-01 -1.41536E-02
    9073.776     79.738   4.760  9.69140E-01  9.85412E-01 -1.62720E-02
    9075.233     81.195   4.800  9.67630E-01  9.86247E-01 -1.86166E-02
    9076.702     82.664   4.840  9.65928E-01  9.87144E-01 -2.12165E-02
    9078.183     84.145   4.880  9.64049E-01  9.88058E-01 -2.40092E-02
    9079.677     85.638   4.920  9.62131E-01  9.89007E-01 -2.68761E-02
    9081.182     87.144   4.960  9.60287E-01  9.89988E-01 -2.97004E-02
    9082.700     88.662   5.000  9.58596E-01  9.90973E-01 -3.23770E-02
    9084.230     90.192   5.040  9.57126E-01  9.91959E-01 -3.48337E-02
    9085.773     91.734   5.080  9.55938E-01  9.92943E-01 -3.70055E-02
    9087.327     93.289   5.120  9.55097E-01  9.93900E-01 -3.88034E-02
    9088.894     94.856   5.160  9.54760E-01  9.94871E-01 -4.01104E-02
    9090.473     96.434   5.200  9.55071E-01  9.95788E-01 -4.07171E-02
    9092.064     98.025   5.240  9.56377E-01  9.96689E-01 -4.03119E-02
    9093.667     99.629   5.280  9.59012E-01  9.97553E-01 -3.85411E-02
    9095.282    101.244   5.320  9.63225E-01  9.98377E-01 -3.51521E-02
    9096.910    102.872   5.360  9.69034E-01  9.99157E-01 -3.01230E-02
    9098.550    104.512   5.400  9.76191E-01  9.99891E-01 -2.37000E-02
    9100.202    106.164   5.440  9.84185E-01  1.00055E+00 -1.63665E-02
    9101.866    107.828   5.480  9.92364E-01  1.00114E+00 -8.77492E-03
    9103.542    109.504   5.520  1.00002E+00  1.00167E+00 -1.65483E-03
    9105.231    111.193   5.560  1.00646E+00  1.00213E+00  4.33235E-03
    9106.932    112.894   5.600  1.01126E+00  1.00251E+00  8.74725E-03
    9108.645    114.607   5.640  1.01427E+00  1.00281E+00  1.14662E-02
    9110.370    116.332   5.680  1.01571E+00  1.00302E+00  1.26849E-02
    9112.107    118.069   5.720  1.01598E+00  1.00316E+00  1.28155E-02
    9113.857    119.819   5.760  1.01554E+00  1.00322E+00  1.23227E-02
    9115.618    121.580   5.800  1.01478E+00  1.00319E+00  1.15897E-02
    9117.392    123.354   5.840  1.01397E+00  1.00309E+00  1.08790E-02
    9119.179    125.140   5.880  1.01321E+00  1.00288E+00  1.03338E-02
    9120.977    126.939   5.920  1.01262E+00  1.00261E+00  1.00075E-02
    9122.787    128.749   5.960  1.01215E+00  1.00226E+00  9.88635E-03
    9124.610    130.572   6.000  1.01166E+00  1.00174E+00  9.92208E-03
