# # comment:                                                     FEFF 9.9.1  
# # Source:
# # Structure
# # Reduced
# # space
# # abc:
# # angles:
# # sites:
# # POT  SCF 100  7.0000   0, screened core-hole, AFOLP (folp(0)= 1.150)
# # Abs   Z=29 Rmt= 1.268 Rnm= 1.338 K  shell
# # Pot 1 Z= 3 Rmt= 1.275 Rnm= 1.337
# # Pot 2 Z=29 Rmt= 1.268 Rnm= 1.338
# # Pot 3 Z=15 Rmt= 0.941 Rnm= 1.153
# # Pot 4 Z= 8 Rmt= 0.920 Rnm= 1.043
# # Gam_ch=1.729E+00 H-L exch Vi= 0.000E+00 Vr= 0.000E+00
# # Mu=-6.426E+00eV kf=2.387E+00 Vint=-1.716E+01eV Rs_int= 1.519
# FMS rfms= 9.0000
# # PATH  Rmax=-1.000,  Keep_limit= 0.00, Heap_limit 0.00  Pwcrit= 2.50%
#  S02=0.950  Temp=   0.00  Debye_temp=   0.00  Global_sig2= 0.00000
#  Energy zero shift, vr, vi    0.00000E+00   0.00000E+00
#  Curved wave amplitude ratio filter   4.000%
#     file         sig2 tot  cw amp ratio   deg  nlegs   reff  inp sig2
#     0/   0 paths used
#  xsedge+ 50, used to normalize mu           2.4747E-04
#  -----------------------------------------------------------------------
#  omega    e    k    mu    mu0     chi     @#
    8983.583    -10.236  -1.000  4.44601E-02  5.58593E-02 -1.13991E-02
    8983.882     -9.937  -0.960  4.70964E-02  5.99990E-02 -1.29026E-02
    8984.169     -9.651  -0.920  4.99654E-02  6.46078E-02 -1.46423E-02
    8984.443     -9.376  -0.880  5.30960E-02  6.97553E-02 -1.66593E-02
    8984.705     -9.114  -0.840  5.65210E-02  7.55232E-02 -1.90022E-02
    8984.955     -8.864  -0.800  6.02782E-02  8.20060E-02 -2.17278E-02
    8985.193     -8.627  -0.760  6.44102E-02  8.93125E-02 -2.49023E-02
    8985.418     -8.401  -0.720  6.89644E-02  9.75654E-02 -2.86010E-02
    8985.632     -8.188  -0.680  7.39921E-02  1.06900E-01 -3.29084E-02
    8985.833     -7.987  -0.640  7.95465E-02  1.17461E-01 -3.79144E-02
    8986.022     -7.798  -0.600  8.56785E-02  1.29388E-01 -4.37093E-02
    8986.199     -7.621  -0.560  9.24288E-02  1.42802E-01 -5.03731E-02
    8986.363     -7.456  -0.520  9.98173E-02  1.57776E-01 -5.79583E-02
    8986.516     -7.304  -0.480  1.07827E-01  1.74295E-01 -6.64673E-02
    8986.656     -7.164  -0.440  1.16388E-01  1.92213E-01 -7.58254E-02
    8986.784     -7.036  -0.400  1.25359E-01  2.11217E-01 -8.58580E-02
    8986.900     -6.920  -0.360  1.34527E-01  2.30810E-01 -9.62832E-02
    8987.003     -6.816  -0.320  1.43619E-01  2.50350E-01 -1.06732E-01
    8987.095     -6.725  -0.280  1.52331E-01  2.69124E-01 -1.16793E-01
    8987.174     -6.645  -0.240  1.60370E-01  2.86445E-01 -1.26074E-01
    8987.241     -6.578  -0.200  1.67488E-01  3.01743E-01 -1.34255E-01
    8987.296     -6.523  -0.160  1.73496E-01  3.14603E-01 -1.41107E-01
    8987.339     -6.481  -0.120  1.78267E-01  3.24761E-01 -1.46495E-01
    8987.369     -6.450  -0.080  1.81719E-01  3.32075E-01 -1.50355E-01
    8987.393     -6.426   0.000  1.84505E-01  3.37947E-01 -1.53442E-01
    8987.448     -6.371   0.120  1.90744E-01  3.51187E-01 -1.60443E-01
    8987.491     -6.328   0.160  1.95618E-01  3.61459E-01 -1.65841E-01
    8987.546     -6.274   0.200  2.01904E-01  3.74551E-01 -1.72647E-01
    8987.613     -6.207   0.240  2.09574E-01  3.90288E-01 -1.80714E-01
    8987.692     -6.127   0.280  2.18539E-01  4.08295E-01 -1.89755E-01
    8987.784     -6.036   0.320  2.28728E-01  4.28104E-01 -1.99376E-01
    8987.887     -5.932   0.360  2.40052E-01  4.49113E-01 -2.09061E-01
    8988.003     -5.816   0.400  2.52437E-01  4.70664E-01 -2.18227E-01
    8988.131     -5.688   0.440  2.65896E-01  4.92177E-01 -2.26281E-01
    8988.271     -5.548   0.480  2.80543E-01  5.13183E-01 -2.32640E-01
    8988.424     -5.396   0.520  2.96606E-01  5.33396E-01 -2.36790E-01
    8988.588     -5.231   0.560  3.14213E-01  5.52665E-01 -2.38451E-01
    8988.765     -5.054   0.600  3.33437E-01  5.70999E-01 -2.37562E-01
    8988.954     -4.865   0.640  3.54017E-01  5.88423E-01 -2.34406E-01
    8989.155     -4.664   0.680  3.75333E-01  6.05027E-01 -2.29694E-01
    8989.369     -4.451   0.720  3.96275E-01  6.20953E-01 -2.24678E-01
    8989.594     -4.225   0.760  4.15469E-01  6.36304E-01 -2.20835E-01
    8989.832     -3.988   0.800  4.32225E-01  6.51152E-01 -2.18928E-01
    8990.082     -3.738   0.840  4.47355E-01  6.65599E-01 -2.18244E-01
    8990.344     -3.476   0.880  4.63312E-01  6.79726E-01 -2.16414E-01
    8990.618     -3.201   0.920  4.83416E-01  6.93564E-01 -2.10148E-01
    8990.905     -2.915   0.960  5.09712E-01  7.07149E-01 -1.97438E-01
    8991.203     -2.616   1.000  5.40966E-01  7.20527E-01 -1.79561E-01
    8991.514     -2.305   1.040  5.73095E-01  7.33733E-01 -1.60637E-01
    8991.837     -1.982   1.080  6.01808E-01  7.46733E-01 -1.44925E-01
    8992.173     -1.647   1.120  6.25726E-01  7.59546E-01 -1.33820E-01
    8992.520     -1.299   1.160  6.47836E-01  7.72189E-01 -1.24352E-01
    8992.880     -0.940   1.200  6.73225E-01  7.84629E-01 -1.11404E-01
    8993.252     -0.568   1.240  7.03906E-01  7.96872E-01 -9.29665E-02
    8993.636     -0.184   1.280  7.38130E-01  8.08901E-01 -7.07711E-02
    8994.032      0.213   1.320  7.75905E-01  8.20675E-01 -4.47702E-02
    8994.440      0.621   1.360  8.18795E-01  8.32213E-01 -1.34181E-02
    8994.861      1.042   1.400  8.65269E-01  8.43472E-01  2.17967E-02
    8995.294      1.474   1.440  9.14533E-01  8.54448E-01  6.00845E-02
    8995.739      1.919   1.480  9.70194E-01  8.65116E-01  1.05078E-01
    8996.196      2.377   1.520  1.02675E+00  8.75452E-01  1.51299E-01
    8996.665      2.846   1.560  1.06507E+00  8.85450E-01  1.79622E-01
    8997.147      3.328   1.600  1.08144E+00  8.95108E-01  1.86336E-01
    8997.641      3.821   1.640  1.09202E+00  9.04398E-01  1.87624E-01
    8998.147      4.327   1.680  1.10203E+00  9.13300E-01  1.88727E-01
    8998.665      4.845   1.720  1.09799E+00  9.21808E-01  1.76185E-01
    8999.195      5.376   1.760  1.07441E+00  9.29920E-01  1.44489E-01
    8999.738      5.918   1.800  1.04718E+00  9.37636E-01  1.09546E-01
    9000.293      6.473   1.840  1.03533E+00  9.44934E-01  9.03920E-02
    9000.859      7.040   1.880  1.04609E+00  9.51834E-01  9.42522E-02
    9001.439      7.619   1.920  1.07523E+00  9.58317E-01  1.16915E-01
    9002.030      8.210   1.960  1.11238E+00  9.64405E-01  1.47972E-01
    9002.633      8.814   2.000  1.14834E+00  9.70057E-01  1.78278E-01
    9003.249      9.430   2.040  1.17724E+00  9.75319E-01  2.01920E-01
    9003.877     10.058   2.080  1.19756E+00  9.80193E-01  2.17365E-01
    9004.517     10.698   2.120  1.21330E+00  9.84665E-01  2.28630E-01
    9005.169     11.350   2.160  1.22704E+00  9.88760E-01  2.38284E-01
    9005.834     12.014   2.200  1.23418E+00  9.92481E-01  2.41698E-01
    9006.510     12.691   2.240  1.23136E+00  9.95858E-01  2.35504E-01
    9007.199     13.380   2.280  1.22333E+00  9.98875E-01  2.24459E-01
    9007.900     14.081   2.320  1.21735E+00  1.00156E+00  2.15789E-01
    9008.614     14.794   2.360  1.21508E+00  1.00394E+00  2.11148E-01
    9009.339     15.520   2.400  1.21332E+00  1.00600E+00  2.07329E-01
    9010.077     16.257   2.440  1.20692E+00  1.00774E+00  1.99175E-01
    9010.826     17.007   2.480  1.18966E+00  1.00925E+00  1.80409E-01
    9011.588     17.769   2.520  1.15752E+00  1.01048E+00  1.47037E-01
    9012.363     18.543   2.560  1.11314E+00  1.01146E+00  1.01681E-01
    9013.149     19.330   2.600  1.06435E+00  1.01220E+00  5.21463E-02
    9013.948     20.128   2.640  1.01990E+00  1.01273E+00  7.16572E-03
    9014.758     20.939   2.680  9.84501E-01  1.01306E+00 -2.85611E-02
    9015.581     21.762   2.720  9.58029E-01  1.01321E+00 -5.51848E-02
    9016.416     22.597   2.760  9.35031E-01  1.01320E+00 -7.81668E-02
    9017.264     23.444   2.800  9.13433E-01  1.01302E+00 -9.95885E-02
    9018.123     24.304   2.840  8.93103E-01  1.01269E+00 -1.19588E-01
    9018.995     25.176   2.880  8.77274E-01  1.01225E+00 -1.34978E-01
    9019.879     26.059   2.920  8.67067E-01  1.01167E+00 -1.44606E-01
    9020.775     26.956   2.960  8.61003E-01  1.01100E+00 -1.49998E-01
    9021.683     27.864   3.000  8.57726E-01  1.01024E+00 -1.52518E-01
    9022.604     28.784   3.040  8.56482E-01  1.00943E+00 -1.52944E-01
    9023.537     29.717   3.080  8.56810E-01  1.00851E+00 -1.51702E-01
    9024.481     30.662   3.120  8.58737E-01  1.00755E+00 -1.48812E-01
    9025.438     31.619   3.160  8.62485E-01  1.00656E+00 -1.44076E-01
    9026.408     32.588   3.200  8.67642E-01  1.00551E+00 -1.37872E-01
    9027.389     33.570   3.240  8.74040E-01  1.00445E+00 -1.30414E-01
    9028.383     34.563   3.280  8.81523E-01  1.00336E+00 -1.21839E-01
    9029.389     35.569   3.320  8.89876E-01  1.00228E+00 -1.12409E-01
    9030.407     36.587   3.360  8.98890E-01  1.00118E+00 -1.02295E-01
    9031.437     37.617   3.400  9.08574E-01  1.00009E+00 -9.15118E-02
    9032.479     38.660   3.440  9.18946E-01  9.99012E-01 -8.00662E-02
    9033.534     39.714   3.480  9.29981E-01  9.97946E-01 -6.79653E-02
    9034.601     40.781   3.520  9.41774E-01  9.96912E-01 -5.51382E-02
    9035.680     41.860   3.560  9.54218E-01  9.95913E-01 -4.16946E-02
    9036.771     42.951   3.600  9.66924E-01  9.94950E-01 -2.80259E-02
    9037.874     44.055   3.640  9.79332E-01  9.94003E-01 -1.46703E-02
    9038.990     45.170   3.680  9.90939E-01  9.93115E-01 -2.17607E-03
    9040.118     46.298   3.720  1.00127E+00  9.92248E-01  9.02645E-03
    9041.258     47.438   3.760  1.01026E+00  9.91445E-01  1.88139E-02
    9042.410     48.590   3.800  1.01807E+00  9.90688E-01  2.73788E-02
    9043.574     49.755   3.840  1.02499E+00  9.89997E-01  3.49965E-02
    9044.751     50.931   3.880  1.03132E+00  9.89352E-01  4.19642E-02
    9045.939     52.120   3.920  1.03725E+00  9.88754E-01  4.84945E-02
    9047.140     53.321   3.960  1.04284E+00  9.88224E-01  5.46154E-02
    9048.353     54.534   4.000  1.04786E+00  9.87742E-01  6.01177E-02
    9049.579     55.759   4.040  1.05204E+00  9.87329E-01  6.47160E-02
    9050.816     56.997   4.080  1.05507E+00  9.86962E-01  6.81102E-02
    9052.066     58.246   4.120  1.05673E+00  9.86643E-01  7.00879E-02
    9053.328     59.508   4.160  1.05699E+00  9.86394E-01  7.05960E-02
    9054.602     60.782   4.200  1.05598E+00  9.86212E-01  6.97732E-02
    9055.888     62.068   4.240  1.05386E+00  9.86056E-01  6.78036E-02
    9057.186     63.367   4.280  1.05089E+00  9.85968E-01  6.49217E-02
    9058.497     64.677   4.320  1.04743E+00  9.85948E-01  6.14863E-02
    9059.820     66.000   4.360  1.04385E+00  9.85973E-01  5.78779E-02
    9061.155     67.335   4.400  1.04049E+00  9.86041E-01  5.44438E-02
    9062.502     68.683   4.440  1.03757E+00  9.86150E-01  5.14229E-02
    9063.861     70.042   4.480  1.03509E+00  9.86300E-01  4.87942E-02
    9065.233     71.414   4.520  1.03271E+00  9.86490E-01  4.62210E-02
    9066.617     72.797   4.560  1.02986E+00  9.86720E-01  4.31423E-02
    9068.013     74.193   4.600  1.02598E+00  9.87011E-01  3.89672E-02
    9069.421     75.601   4.640  1.02063E+00  9.87317E-01  3.33100E-02
    9070.841     77.022   4.680  1.01381E+00  9.87636E-01  2.61741E-02
    9072.274     78.454   4.720  1.00595E+00  9.88009E-01  1.79383E-02
    9073.719     79.899   4.760  9.97548E-01  9.88395E-01  9.15318E-03
    9075.176     81.356   4.800  9.89249E-01  9.88812E-01  4.37253E-04
    9076.645     82.825   4.840  9.81541E-01  9.89236E-01 -7.69406E-03
    9078.126     84.307   4.880  9.74721E-01  9.89665E-01 -1.49445E-02
    9079.619     85.800   4.920  9.68881E-01  9.90121E-01 -2.12394E-02
    9081.125     87.306   4.960  9.63880E-01  9.90580E-01 -2.66998E-02
    9082.643     88.824   5.000  9.59596E-01  9.91041E-01 -3.14442E-02
    9084.173     90.354   5.040  9.56038E-01  9.91501E-01 -3.54631E-02
    9085.715     91.896   5.080  9.53344E-01  9.91960E-01 -3.86154E-02
    9087.270     93.450   5.120  9.51729E-01  9.92417E-01 -4.06871E-02
    9088.837     95.017   5.160  9.51311E-01  9.92868E-01 -4.15572E-02
    9090.415     96.596   5.200  9.52116E-01  9.93292E-01 -4.11761E-02
    9092.006     98.187   5.240  9.54138E-01  9.93708E-01 -3.95696E-02
    9093.610     99.790   5.280  9.57304E-01  9.94116E-01 -3.68125E-02
    9095.225    101.406   5.320  9.61428E-01  9.94495E-01 -3.30672E-02
    9096.853    103.033   5.360  9.66210E-01  9.94863E-01 -2.86529E-02
    9098.493    104.673   5.400  9.71160E-01  9.95194E-01 -2.40339E-02
    9100.145    106.325   5.440  9.75705E-01  9.95489E-01 -1.97835E-02
    9101.809    107.989   5.480  9.79254E-01  9.95748E-01 -1.64947E-02
    9103.485    109.666   5.520  9.81301E-01  9.95993E-01 -1.46918E-02
    9105.174    111.354   5.560  9.81511E-01  9.96202E-01 -1.46911E-02
    9106.875    113.055   5.600  9.79918E-01  9.96371E-01 -1.64537E-02
    9108.588    114.768   5.640  9.77046E-01  9.96500E-01 -1.94541E-02
    9110.313    116.493   5.680  9.73863E-01  9.96590E-01 -2.27271E-02
    9112.050    118.231   5.720  9.71491E-01  9.96639E-01 -2.51486E-02
    9113.800    119.980   5.760  9.70825E-01  9.96649E-01 -2.58235E-02
    9115.561    121.742   5.800  9.72232E-01  9.96617E-01 -2.43857E-02
    9117.335    123.516   5.840  9.75499E-01  9.96546E-01 -2.10473E-02
    9119.121    125.302   5.880  9.79994E-01  9.96434E-01 -1.64401E-02
    9120.920    127.100   5.920  9.84875E-01  9.96257E-01 -1.13824E-02
    9122.730    128.911   5.960  9.89434E-01  9.96063E-01 -6.62899E-03
    9124.553    130.733   6.000  9.93222E-01  9.95804E-01 -2.58252E-03
