# # comment:                                                     FEFF 9.9.1  
# # Source:
# # Structure
# # Reduced
# # space
# # abc:
# # angles:
# # sites:
# # POT  SCF 100  7.0000   0, screened core-hole, AFOLP (folp(0)= 1.150)
# # Abs   Z=29 Rmt= 1.173 Rnm= 1.305 K  shell
# # Pot 1 Z=29 Rmt= 1.182 Rnm= 1.317
# # Pot 2 Z= 8 Rmt= 0.984 Rnm= 1.110
# # Pot 3 Z= 9 Rmt= 1.041 Rnm= 1.130
# # Gam_ch=1.729E+00 H-L exch Vi= 0.000E+00 Vr= 0.000E+00
# # Mu=-6.552E+00eV kf=2.020E+00 Vint=-1.290E+01eV Rs_int= 1.796
# FMS rfms= 9.0000
# # PATH  Rmax=-1.000,  Keep_limit= 0.00, Heap_limit 0.00  Pwcrit= 2.50%
#  S02=0.950  Temp=   0.00  Debye_temp=   0.00  Global_sig2= 0.00000
#  Energy zero shift, vr, vi    0.00000E+00   0.00000E+00
#  Curved wave amplitude ratio filter   4.000%
#     file         sig2 tot  cw amp ratio   deg  nlegs   reff  inp sig2
#     0/   0 paths used
#  xsedge+ 50, used to normalize mu           2.4102E-04
#  -----------------------------------------------------------------------
#  omega    e    k    mu    mu0     chi     @#
    8983.336    -10.362  -1.000  3.22826E-02  5.57779E-02 -2.34953E-02
    8983.635    -10.063  -0.960  3.35565E-02  5.97430E-02 -2.61865E-02
    8983.921     -9.777  -0.920  3.48867E-02  6.41345E-02 -2.92478E-02
    8984.195     -9.502  -0.880  3.62763E-02  6.90131E-02 -3.27368E-02
    8984.458     -9.240  -0.840  3.77292E-02  7.44496E-02 -3.67205E-02
    8984.707     -8.990  -0.800  3.92495E-02  8.05255E-02 -4.12760E-02
    8984.945     -8.753  -0.760  4.08421E-02  8.73339E-02 -4.64918E-02
    8985.171     -8.527  -0.720  4.25124E-02  9.49798E-02 -5.24674E-02
    8985.384     -8.314  -0.680  4.42664E-02  1.03578E-01 -5.93119E-02
    8985.585     -8.113  -0.640  4.61099E-02  1.13250E-01 -6.71405E-02
    8985.774     -7.924  -0.600  4.80481E-02  1.24114E-01 -7.60663E-02
    8985.951     -7.747  -0.560  5.00840E-02  1.36270E-01 -8.61863E-02
    8986.116     -7.582  -0.520  5.22159E-02  1.49776E-01 -9.75602E-02
    8986.268     -7.430  -0.480  5.44344E-02  1.64615E-01 -1.10181E-01
    8986.408     -7.290  -0.440  5.67187E-02  1.80658E-01 -1.23940E-01
    8986.536     -7.162  -0.400  5.90342E-02  1.97632E-01 -1.38598E-01
    8986.652     -7.046  -0.360  6.13314E-02  2.15109E-01 -1.53777E-01
    8986.756     -6.942  -0.320  6.35507E-02  2.32531E-01 -1.68980E-01
    8986.847     -6.851  -0.280  6.56294E-02  2.49280E-01 -1.83651E-01
    8986.926     -6.771  -0.240  6.75111E-02  2.64757E-01 -1.97246E-01
    8986.993     -6.704  -0.200  6.91515E-02  2.78455E-01 -2.09304E-01
    8987.048     -6.650  -0.160  7.05209E-02  2.89998E-01 -2.19477E-01
    8987.091     -6.607  -0.120  7.16011E-02  2.99139E-01 -2.27538E-01
    8987.121     -6.576  -0.080  7.23822E-02  3.05734E-01 -2.33352E-01
    8987.146     -6.552   0.000  7.30250E-02  3.11041E-01 -2.38016E-01
    8987.201     -6.497   0.120  7.45708E-02  3.23023E-01 -2.48453E-01
    8987.243     -6.454   0.160  7.56808E-02  3.32357E-01 -2.56676E-01
    8987.298     -6.400   0.200  7.70662E-02  3.44308E-01 -2.67242E-01
    8987.365     -6.333   0.240  7.87274E-02  3.58769E-01 -2.80041E-01
    8987.445     -6.253   0.280  8.05865E-02  3.75481E-01 -2.94894E-01
    8987.536     -6.162   0.320  8.26061E-02  3.94062E-01 -3.11456E-01
    8987.640     -6.058   0.360  8.47634E-02  4.14079E-01 -3.29315E-01
    8987.755     -5.942   0.400  8.70593E-02  4.35022E-01 -3.47962E-01
    8987.883     -5.814   0.440  8.95165E-02  4.56419E-01 -3.66902E-01
    8988.024     -5.674   0.480  9.22432E-02  4.77921E-01 -3.85678E-01
    8988.176     -5.522   0.520  9.53796E-02  4.99286E-01 -4.03906E-01
    8988.341     -5.357   0.560  9.90912E-02  5.20404E-01 -4.21313E-01
    8988.517     -5.180   0.600  1.03564E-01  5.41219E-01 -4.37655E-01
    8988.706     -4.991   0.640  1.09002E-01  5.61772E-01 -4.52770E-01
    8988.908     -4.790   0.680  1.15565E-01  5.82094E-01 -4.66529E-01
    8989.121     -4.577   0.720  1.23433E-01  6.02246E-01 -4.78813E-01
    8989.346     -4.351   0.760  1.32809E-01  6.22286E-01 -4.89477E-01
    8989.584     -4.114   0.800  1.43816E-01  6.42238E-01 -4.98423E-01
    8989.834     -3.864   0.840  1.56548E-01  6.62114E-01 -5.05566E-01
    8990.096     -3.602   0.880  1.71395E-01  6.81956E-01 -5.10561E-01
    8990.371     -3.327   0.920  1.89157E-01  7.01707E-01 -5.12550E-01
    8990.657     -3.041   0.960  2.11214E-01  7.21342E-01 -5.10128E-01
    8990.956     -2.742   1.000  2.39218E-01  7.40865E-01 -5.01647E-01
    8991.267     -2.431   1.040  2.74573E-01  7.60212E-01 -4.85639E-01
    8991.590     -2.108   1.080  3.17855E-01  7.79332E-01 -4.61477E-01
    8991.925     -1.773   1.120  3.68457E-01  7.98169E-01 -4.29713E-01
    8992.273     -1.425   1.160  4.25403E-01  8.16643E-01 -3.91240E-01
    8992.632     -1.066   1.200  4.87967E-01  8.34732E-01 -3.46765E-01
    8993.004     -0.694   1.240  5.52241E-01  8.52352E-01 -3.00111E-01
    8993.388     -0.310   1.280  6.09747E-01  8.69438E-01 -2.59691E-01
    8993.784      0.086   1.320  6.52234E-01  8.85948E-01 -2.33715E-01
    8994.193      0.495   1.360  6.75817E-01  9.01819E-01 -2.26002E-01
    8994.613      0.916   1.400  6.85293E-01  9.17010E-01 -2.31716E-01
    8995.046      1.348   1.440  6.93667E-01  9.31483E-01 -2.37815E-01
    8995.491      1.793   1.480  7.16783E-01  9.45183E-01 -2.28400E-01
    8995.948      2.251   1.520  7.65093E-01  9.58097E-01 -1.93004E-01
    8996.418      2.720   1.560  8.35299E-01  9.70218E-01 -1.34919E-01
    8996.899      3.202   1.600  9.11137E-01  9.81518E-01 -7.03816E-02
    8997.393      3.695   1.640  9.78066E-01  9.91974E-01 -1.39085E-02
    8997.899      4.201   1.680  1.04590E+00  1.00159E+00  4.43157E-02
    8998.417      4.719   1.720  1.13460E+00  1.01038E+00  1.24222E-01
    8998.948      5.250   1.760  1.23854E+00  1.01836E+00  2.20177E-01
    8999.490      5.792   1.800  1.33858E+00  1.02554E+00  3.13046E-01
    9000.045      6.347   1.840  1.43219E+00  1.03192E+00  4.00275E-01
    9000.612      6.914   1.880  1.51518E+00  1.03754E+00  4.77641E-01
    9001.191      7.493   1.920  1.56986E+00  1.04244E+00  5.27427E-01
    9001.782      8.084   1.960  1.58800E+00  1.04662E+00  5.41378E-01
    9002.386      8.688   2.000  1.58134E+00  1.05016E+00  5.31178E-01
    9003.001      9.304   2.040  1.55561E+00  1.05304E+00  5.02564E-01
    9003.629      9.931   2.080  1.50259E+00  1.05533E+00  4.47259E-01
    9004.269     10.572   2.120  1.41897E+00  1.05707E+00  3.61902E-01
    9004.922     11.224   2.160  1.32665E+00  1.05827E+00  2.68377E-01
    9005.586     11.888   2.200  1.26142E+00  1.05900E+00  2.02419E-01
    9006.263     12.565   2.240  1.21661E+00  1.05928E+00  1.57333E-01
    9006.952     13.254   2.280  1.16016E+00  1.05916E+00  1.01002E-01
    9007.653     13.955   2.320  1.08968E+00  1.05867E+00  3.10134E-02
    9008.366     14.668   2.360  1.03309E+00  1.05784E+00 -2.47431E-02
    9009.091     15.393   2.400  1.01071E+00  1.05669E+00 -4.59795E-02
    9009.829     16.131   2.440  1.02315E+00  1.05530E+00 -3.21506E-02
    9010.579     16.881   2.480  1.04747E+00  1.05364E+00 -6.16871E-03
    9011.341     17.643   2.520  1.07055E+00  1.05180E+00  1.87538E-02
    9012.115     18.417   2.560  1.08887E+00  1.04978E+00  3.90881E-02
    9012.901     19.203   2.600  1.09962E+00  1.04761E+00  5.20123E-02
    9013.700     20.002   2.640  1.10169E+00  1.04531E+00  5.63879E-02
    9014.511     20.813   2.680  1.09571E+00  1.04291E+00  5.27972E-02
    9015.334     21.636   2.720  1.08383E+00  1.04043E+00  4.33945E-02
    9016.169     22.471   2.760  1.06859E+00  1.03791E+00  3.06778E-02
    9017.016     23.318   2.800  1.05207E+00  1.03534E+00  1.67246E-02
    9017.876     24.178   2.840  1.03602E+00  1.03276E+00  3.25946E-03
    9018.747     25.049   2.880  1.02133E+00  1.03016E+00 -8.83347E-03
    9019.631     25.933   2.920  1.00815E+00  1.02759E+00 -1.94377E-02
    9020.527     26.830   2.960  9.96165E-01  1.02505E+00 -2.88859E-02
    9021.436     27.738   3.000  9.84929E-01  1.02255E+00 -3.76243E-02
    9022.356     28.658   3.040  9.73559E-01  1.02010E+00 -4.65418E-02
    9023.289     29.591   3.080  9.61080E-01  1.01772E+00 -5.66411E-02
    9024.234     30.536   3.120  9.46842E-01  1.01542E+00 -6.85760E-02
    9025.191     31.493   3.160  9.30944E-01  1.01318E+00 -8.22313E-02
    9026.160     32.462   3.200  9.14447E-01  1.01104E+00 -9.65921E-02
    9027.142     33.444   3.240  8.98908E-01  1.00899E+00 -1.10084E-01
    9028.135     34.437   3.280  8.85851E-01  1.00706E+00 -1.21207E-01
    9029.141     35.443   3.320  8.76468E-01  1.00522E+00 -1.28751E-01
    9030.159     36.461   3.360  8.71379E-01  1.00350E+00 -1.32118E-01
    9031.189     37.491   3.400  8.70932E-01  1.00190E+00 -1.30963E-01
    9032.232     38.534   3.440  8.74987E-01  1.00042E+00 -1.25430E-01
    9033.286     39.588   3.480  8.82975E-01  9.99061E-01 -1.16087E-01
    9034.353     40.655   3.520  8.93879E-01  9.97831E-01 -1.03952E-01
    9035.432     41.734   3.560  9.06475E-01  9.96725E-01 -9.02501E-02
    9036.523     42.825   3.600  9.19606E-01  9.95765E-01 -7.61589E-02
    9037.627     43.929   3.640  9.32410E-01  9.94910E-01 -6.25000E-02
    9038.742     45.044   3.680  9.44473E-01  9.94179E-01 -4.97063E-02
    9039.870     46.172   3.720  9.55677E-01  9.93595E-01 -3.79177E-02
    9041.010     47.312   3.760  9.65941E-01  9.93114E-01 -2.71731E-02
    9042.162     48.464   3.800  9.75179E-01  9.92780E-01 -1.76009E-02
    9043.326     49.628   3.840  9.83148E-01  9.92569E-01 -9.42114E-03
    9044.503     50.805   3.880  9.89734E-01  9.92458E-01 -2.72358E-03
    9045.692     51.994   3.920  9.95166E-01  9.92489E-01  2.67635E-03
    9046.892     53.195   3.960  9.99789E-01  9.92620E-01  7.16930E-03
    9048.106     54.408   4.000  1.00406E+00  9.92868E-01  1.11910E-02
    9049.331     55.633   4.040  1.00833E+00  9.93234E-01  1.50928E-02
    9050.568     56.870   4.080  1.01275E+00  9.93692E-01  1.90601E-02
    9051.818     58.120   4.120  1.01732E+00  9.94263E-01  2.30610E-02
    9053.080     59.382   4.160  1.02177E+00  9.94924E-01  2.68453E-02
    9054.354     60.656   4.200  1.02567E+00  9.95671E-01  2.99993E-02
    9055.640     61.942   4.240  1.02861E+00  9.96524E-01  3.20875E-02
    9056.939     63.241   4.280  1.03024E+00  9.97439E-01  3.27996E-02
    9058.249     64.551   4.320  1.03061E+00  9.98455E-01  3.21530E-02
    9059.572     65.874   4.360  1.03011E+00  9.99524E-01  3.05882E-02
    9060.907     67.209   4.400  1.02949E+00  1.00065E+00  2.88450E-02
    9062.254     68.556   4.440  1.02957E+00  1.00184E+00  2.77350E-02
    9063.614     69.916   4.480  1.03106E+00  1.00310E+00  2.79622E-02
    9064.985     71.287   4.520  1.03439E+00  1.00438E+00  3.00050E-02
    9066.369     72.671   4.560  1.03983E+00  1.00573E+00  3.41023E-02
    9067.765     74.067   4.600  1.04723E+00  1.00709E+00  4.01375E-02
    9069.173     75.475   4.640  1.05604E+00  1.00849E+00  4.75443E-02
    9070.594     76.896   4.680  1.06531E+00  1.00992E+00  5.53859E-02
    9072.026     78.328   4.720  1.07390E+00  1.01135E+00  6.25441E-02
    9073.471     79.773   4.760  1.08077E+00  1.01279E+00  6.79769E-02
    9074.928     81.230   4.800  1.08523E+00  1.01423E+00  7.09932E-02
    9076.397     82.699   4.840  1.08710E+00  1.01569E+00  7.14140E-02
    9077.878     84.180   4.880  1.08660E+00  1.01710E+00  6.95052E-02
    9079.372     85.674   4.920  1.08428E+00  1.01852E+00  6.57666E-02
    9080.878     87.180   4.960  1.08050E+00  1.01988E+00  6.06196E-02
    9082.395     88.698   5.000  1.07548E+00  1.02123E+00  5.42527E-02
    9083.926     90.228   5.040  1.06920E+00  1.02254E+00  4.66633E-02
    9085.468     91.770   5.080  1.06160E+00  1.02383E+00  3.77768E-02
    9087.022     93.324   5.120  1.05272E+00  1.02505E+00  2.76755E-02
    9088.589     94.891   5.160  1.04293E+00  1.02620E+00  1.67316E-02
    9090.168     96.470   5.200  1.03280E+00  1.02730E+00  5.49735E-03
    9091.759     98.061   5.240  1.02279E+00  1.02835E+00 -5.55837E-03
    9093.362     99.664   5.280  1.01315E+00  1.02932E+00 -1.61721E-02
    9094.978    101.280   5.320  1.00406E+00  1.03021E+00 -2.61540E-02
    9096.605    102.907   5.360  9.95793E-01  1.03105E+00 -3.52540E-02
    9098.245    104.547   5.400  9.88655E-01  1.03178E+00 -4.31243E-02
    9099.897    106.199   5.440  9.83033E-01  1.03245E+00 -4.94161E-02
    9101.561    107.863   5.480  9.79131E-01  1.03301E+00 -5.38812E-02
    9103.238    109.540   5.520  9.76961E-01  1.03349E+00 -5.65305E-02
    9104.926    111.228   5.560  9.76327E-01  1.03391E+00 -5.75824E-02
    9106.627    112.929   5.600  9.76980E-01  1.03422E+00 -5.72385E-02
    9108.340    114.642   5.640  9.78888E-01  1.03444E+00 -5.55521E-02
    9110.065    116.367   5.680  9.82013E-01  1.03455E+00 -5.25385E-02
    9111.802    118.105   5.720  9.86140E-01  1.03460E+00 -4.84596E-02
    9113.552    119.854   5.760  9.90578E-01  1.03454E+00 -4.39630E-02
    9115.314    121.616   5.800  9.94607E-01  1.03440E+00 -3.97882E-02
    9117.088    123.390   5.840  9.98017E-01  1.03417E+00 -3.61513E-02
    9118.874    125.176   5.880  1.00135E+00  1.03386E+00 -3.25116E-02
    9120.672    126.974   5.920  1.00528E+00  1.03344E+00 -2.81574E-02
    9122.483    128.785   5.960  1.00997E+00  1.03295E+00 -2.29879E-02
    9124.305    130.607   6.000  1.01480E+00  1.03232E+00 -1.75249E-02
