# # comment:                                                     FEFF 9.9.1  
# # Source:
# # Structure
# # Reduced
# # space
# # abc:
# # angles:
# # sites:
# # POT  SCF 100  7.0000   0, screened core-hole, AFOLP (folp(0)= 1.150)
# # Abs   Z=29 Rmt= 1.285 Rnm= 1.359 K  shell
# # Pot 1 Z=29 Rmt= 1.236 Rnm= 1.319
# # Pot 2 Z= 5 Rmt= 0.834 Rnm= 1.012
# # Pot 3 Z= 8 Rmt= 0.933 Rnm= 1.060
# # Gam_ch=1.729E+00 H-L exch Vi= 0.000E+00 Vr= 0.000E+00
# # Mu=-7.078E+00eV kf=2.358E+00 Vint=-1.696E+01eV Rs_int= 1.538
# FMS rfms= 9.0000
# # PATH  Rmax=-1.000,  Keep_limit= 0.00, Heap_limit 0.00  Pwcrit= 2.50%
#  S02=0.950  Temp=   0.00  Debye_temp=   0.00  Global_sig2= 0.00000
#  Energy zero shift, vr, vi    0.00000E+00   0.00000E+00
#  Curved wave amplitude ratio filter   4.000%
#     file         sig2 tot  cw amp ratio   deg  nlegs   reff  inp sig2
#     0/   0 paths used
#  xsedge+ 50, used to normalize mu           2.4908E-04
#  -----------------------------------------------------------------------
#  omega    e    k    mu    mu0     chi     @#
    8983.347    -10.887  -1.000  3.87909E-02  5.00760E-02 -1.12852E-02
    8983.645    -10.589  -0.960  4.10446E-02  5.36460E-02 -1.26014E-02
    8983.932    -10.302  -0.920  4.35083E-02  5.76099E-02 -1.41017E-02
    8984.206    -10.028  -0.880  4.62106E-02  6.20258E-02 -1.58152E-02
    8984.468     -9.766  -0.840  4.91847E-02  6.69611E-02 -1.77764E-02
    8984.718     -9.516  -0.800  5.24687E-02  7.24941E-02 -2.00254E-02
    8984.956     -9.278  -0.760  5.61060E-02  7.87146E-02 -2.26086E-02
    8985.182     -9.053  -0.720  6.01455E-02  8.57241E-02 -2.55786E-02
    8985.395     -8.839  -0.680  6.46405E-02  9.36345E-02 -2.89939E-02
    8985.596     -8.638  -0.640  6.96469E-02  1.02564E-01 -3.29169E-02
    8985.785     -8.449  -0.600  7.52186E-02  1.12628E-01 -3.74093E-02
    8985.962     -8.272  -0.560  8.14012E-02  1.23926E-01 -4.25247E-02
    8986.127     -8.108  -0.520  8.82201E-02  1.36517E-01 -4.82964E-02
    8986.279     -7.955  -0.480  9.56665E-02  1.50387E-01 -5.47203E-02
    8986.419     -7.815  -0.440  1.03679E-01  1.65415E-01 -6.17352E-02
    8986.547     -7.687  -0.400  1.12131E-01  1.81338E-01 -6.92070E-02
    8986.663     -7.571  -0.360  1.20823E-01  1.97747E-01 -7.69240E-02
    8986.767     -7.468  -0.320  1.29493E-01  2.14106E-01 -8.46125E-02
    8986.858     -7.376  -0.280  1.37850E-01  2.29822E-01 -9.19725E-02
    8986.937     -7.297  -0.240  1.45603E-01  2.44326E-01 -9.87231E-02
    8987.004     -7.230  -0.200  1.52503E-01  2.57142E-01 -1.04639E-01
    8987.059     -7.175  -0.160  1.58352E-01  2.67920E-01 -1.09568E-01
    8987.102     -7.132  -0.120  1.63014E-01  2.76438E-01 -1.13425E-01
    8987.132     -7.102  -0.080  1.66400E-01  2.82575E-01 -1.16175E-01
    8987.157     -7.078   0.000  1.69152E-01  2.87506E-01 -1.18354E-01
    8987.212     -7.023   0.120  1.75375E-01  2.98626E-01 -1.23251E-01
    8987.254     -6.980   0.160  1.80220E-01  3.07254E-01 -1.27034E-01
    8987.309     -6.925   0.200  1.86463E-01  3.18262E-01 -1.31799E-01
    8987.376     -6.858   0.240  1.94093E-01  3.31518E-01 -1.37426E-01
    8987.455     -6.779   0.280  2.03046E-01  3.46735E-01 -1.43688E-01
    8987.547     -6.687   0.320  2.13182E-01  3.63498E-01 -1.50316E-01
    8987.651     -6.584   0.360  2.24423E-01  3.81361E-01 -1.56939E-01
    8987.766     -6.468   0.400  2.36593E-01  3.99770E-01 -1.63177E-01
    8987.894     -6.340   0.440  2.49560E-01  4.18251E-01 -1.68691E-01
    8988.035     -6.200   0.480  2.63192E-01  4.36442E-01 -1.73249E-01
    8988.187     -6.047   0.520  2.77182E-01  4.54113E-01 -1.76930E-01
    8988.352     -5.883   0.560  2.90865E-01  4.71139E-01 -1.80274E-01
    8988.528     -5.706   0.600  3.03066E-01  4.87513E-01 -1.84446E-01
    8988.717     -5.517   0.640  3.12322E-01  5.03269E-01 -1.90947E-01
    8988.918     -5.316   0.680  3.17451E-01  5.18518E-01 -2.01068E-01
    8989.132     -5.102   0.720  3.18298E-01  5.33342E-01 -2.15045E-01
    8989.357     -4.877   0.760  3.16134E-01  5.47801E-01 -2.31668E-01
    8989.595     -4.639   0.800  3.13525E-01  5.62028E-01 -2.48503E-01
    8989.845     -4.389   0.840  3.13161E-01  5.76044E-01 -2.62883E-01
    8990.107     -4.127   0.880  3.16956E-01  5.89938E-01 -2.72982E-01
    8990.382     -3.853   0.920  3.25465E-01  6.03725E-01 -2.78260E-01
    8990.668     -3.566   0.960  3.38519E-01  6.17474E-01 -2.78955E-01
    8990.967     -3.268   1.000  3.55738E-01  6.31158E-01 -2.75419E-01
    8991.278     -2.957   1.040  3.76817E-01  6.44843E-01 -2.68026E-01
    8991.601     -2.634   1.080  4.00941E-01  6.58493E-01 -2.57552E-01
    8991.936     -2.298   1.120  4.27325E-01  6.72120E-01 -2.44795E-01
    8992.283     -1.951   1.160  4.55585E-01  6.85714E-01 -2.30129E-01
    8992.643     -1.591   1.200  4.84962E-01  6.99259E-01 -2.14296E-01
    8993.015     -1.219   1.240  5.13815E-01  7.12776E-01 -1.98961E-01
    8993.399     -0.835   1.280  5.41086E-01  7.26183E-01 -1.85097E-01
    8993.795     -0.439   1.320  5.67501E-01  7.39497E-01 -1.71996E-01
    8994.204     -0.031   1.360  5.94128E-01  7.52714E-01 -1.58586E-01
    8994.624      0.390   1.400  6.22294E-01  7.65766E-01 -1.43472E-01
    8995.057      0.823   1.440  6.54271E-01  7.78663E-01 -1.24392E-01
    8995.502      1.268   1.480  6.91403E-01  7.91356E-01 -9.99538E-02
    8995.959      1.725   1.520  7.34060E-01  8.03838E-01 -6.97776E-02
    8996.429      2.194   1.560  7.82636E-01  8.16077E-01 -3.34409E-02
    8996.910      2.676   1.600  8.38097E-01  8.28044E-01  1.00529E-02
    8997.404      3.170   1.640  9.02284E-01  8.39710E-01  6.25740E-02
    8997.910      3.676   1.680  9.74751E-01  8.51085E-01  1.23666E-01
    8998.428      4.194   1.720  1.05026E+00  8.62121E-01  1.88142E-01
    8998.959      4.724   1.760  1.11791E+00  8.72810E-01  2.45096E-01
    8999.501      5.267   1.800  1.16348E+00  8.83122E-01  2.80362E-01
    9000.056      5.822   1.840  1.17863E+00  8.93053E-01  2.85580E-01
    9000.623      6.389   1.880  1.16939E+00  9.02576E-01  2.66813E-01
    9001.202      6.968   1.920  1.15347E+00  9.11706E-01  2.41767E-01
    9001.793      7.559   1.960  1.14659E+00  9.20419E-01  2.26168E-01
    9002.397      8.162   2.000  1.15506E+00  9.28692E-01  2.26363E-01
    9003.012      8.778   2.040  1.17127E+00  9.36543E-01  2.34732E-01
    9003.640      9.406   2.080  1.18003E+00  9.43950E-01  2.36080E-01
    9004.280     10.046   2.120  1.17822E+00  9.50933E-01  2.27286E-01
    9004.933     10.698   2.160  1.17341E+00  9.57473E-01  2.15937E-01
    9005.597     11.363   2.200  1.17285E+00  9.63572E-01  2.09277E-01
    9006.274     12.039   2.240  1.17963E+00  9.69251E-01  2.10382E-01
    9006.963     12.728   2.280  1.19226E+00  9.74514E-01  2.17751E-01
    9007.664     13.429   2.320  1.20303E+00  9.79366E-01  2.23667E-01
    9008.377     14.143   2.360  1.20177E+00  9.83789E-01  2.17984E-01
    9009.102     14.868   2.400  1.18292E+00  9.87829E-01  1.95090E-01
    9009.840     15.606   2.440  1.15116E+00  9.91471E-01  1.59689E-01
    9010.590     16.355   2.480  1.11735E+00  9.94744E-01  1.22605E-01
    9011.352     17.117   2.520  1.08605E+00  9.97651E-01  8.83975E-02
    9012.126     17.892   2.560  1.05631E+00  1.00020E+00  5.61138E-02
    9012.912     18.678   2.600  1.02833E+00  1.00244E+00  2.58895E-02
    9013.711     19.477   2.640  1.00350E+00  1.00434E+00 -8.40384E-04
    9014.522     20.287   2.680  9.80189E-01  1.00594E+00 -2.57557E-02
    9015.345     21.110   2.720  9.55611E-01  1.00726E+00 -5.16534E-02
    9016.180     21.945   2.760  9.35699E-01  1.00833E+00 -7.26268E-02
    9017.027     22.793   2.800  9.21857E-01  1.00912E+00 -8.72612E-02
    9017.887     23.652   2.840  9.09923E-01  1.00967E+00 -9.97456E-02
    9018.758     24.524   2.880  9.00282E-01  1.01001E+00 -1.09724E-01
    9019.642     25.408   2.920  8.93666E-01  1.01014E+00 -1.16473E-01
    9020.538     26.304   2.960  8.89745E-01  1.01007E+00 -1.20328E-01
    9021.447     27.212   3.000  8.87933E-01  1.00984E+00 -1.21906E-01
    9022.367     28.133   3.040  8.87424E-01  1.00944E+00 -1.22020E-01
    9023.300     29.066   3.080  8.87476E-01  1.00889E+00 -1.21416E-01
    9024.245     30.010   3.120  8.87825E-01  1.00821E+00 -1.20389E-01
    9025.202     30.967   3.160  8.88442E-01  1.00744E+00 -1.18995E-01
    9026.171     31.937   3.200  8.89493E-01  1.00653E+00 -1.17033E-01
    9027.152     32.918   3.240  8.91432E-01  1.00555E+00 -1.14118E-01
    9028.146     33.912   3.280  8.94579E-01  1.00450E+00 -1.09916E-01
    9029.152     34.918   3.320  8.98946E-01  1.00337E+00 -1.04419E-01
    9030.170     35.936   3.360  9.04551E-01  1.00219E+00 -9.76382E-02
    9031.200     36.966   3.400  9.11320E-01  1.00097E+00 -8.96509E-02
    9032.243     38.008   3.440  9.18781E-01  9.99738E-01 -8.09563E-02
    9033.297     39.063   3.480  9.26528E-01  9.98471E-01 -7.19429E-02
    9034.364     40.130   3.520  9.34401E-01  9.97176E-01 -6.27745E-02
    9035.443     41.209   3.560  9.42403E-01  9.95898E-01 -5.34947E-02
    9036.534     42.300   3.600  9.50472E-01  9.94600E-01 -4.41283E-02
    9037.638     43.403   3.640  9.58706E-01  9.93328E-01 -3.46222E-02
    9038.753     44.519   3.680  9.67233E-01  9.92085E-01 -2.48526E-02
    9039.881     45.647   3.720  9.76245E-01  9.90855E-01 -1.46103E-02
    9041.021     46.787   3.760  9.86089E-01  9.89658E-01 -3.56936E-03
    9042.173     47.939   3.800  9.97042E-01  9.88498E-01  8.54423E-03
    9043.337     49.103   3.840  1.00901E+00  9.87378E-01  2.16297E-02
    9044.514     50.280   3.880  1.02157E+00  9.86300E-01  3.52677E-02
    9045.702     51.468   3.920  1.03402E+00  9.85267E-01  4.87552E-02
    9046.903     52.669   3.960  1.04548E+00  9.84301E-01  6.11805E-02
    9048.116     53.882   4.000  1.05507E+00  9.83404E-01  7.16622E-02
    9049.342     55.108   4.040  1.06215E+00  9.82534E-01  7.96184E-02
    9050.579     56.345   4.080  1.06656E+00  9.81757E-01  8.48039E-02
    9051.829     57.595   4.120  1.06827E+00  9.81032E-01  8.72394E-02
    9053.091     58.857   4.160  1.06759E+00  9.80378E-01  8.72087E-02
    9054.365     60.131   4.200  1.06477E+00  9.79774E-01  8.49966E-02
    9055.651     61.417   4.240  1.06003E+00  9.79244E-01  8.07911E-02
    9056.950     62.715   4.280  1.05352E+00  9.78787E-01  7.47351E-02
    9058.260     64.026   4.320  1.04547E+00  9.78382E-01  6.70836E-02
    9059.583     65.349   4.360  1.03632E+00  9.78049E-01  5.82714E-02
    9060.918     66.684   4.400  1.02669E+00  9.77790E-01  4.89019E-02
    9062.265     68.031   4.440  1.01722E+00  9.77584E-01  3.96349E-02
    9063.625     69.390   4.480  1.00838E+00  9.77449E-01  3.09281E-02
    9064.996     70.762   4.520  1.00037E+00  9.77386E-01  2.29875E-02
    9066.380     72.146   4.560  9.93239E-01  9.77372E-01  1.58667E-02
    9067.776     73.542   4.600  9.87072E-01  9.77428E-01  9.64309E-03
    9069.184     74.950   4.640  9.82045E-01  9.77530E-01  4.51459E-03
    9070.605     76.370   4.680  9.78416E-01  9.77677E-01  7.38411E-04
    9072.037     77.803   4.720  9.76321E-01  9.77889E-01 -1.56863E-03
    9073.482     79.248   4.760  9.75550E-01  9.78123E-01 -2.57305E-03
    9074.939     80.705   4.800  9.75706E-01  9.78419E-01 -2.71376E-03
    9076.408     82.174   4.840  9.76172E-01  9.78758E-01 -2.58555E-03
    9077.889     83.655   4.880  9.76381E-01  9.79136E-01 -2.75524E-03
    9079.383     85.148   4.920  9.75918E-01  9.79552E-01 -3.63379E-03
    9080.888     86.654   4.960  9.74548E-01  9.80003E-01 -5.45529E-03
    9082.406     88.172   5.000  9.72205E-01  9.80465E-01 -8.26062E-03
    9083.936     89.702   5.040  9.69051E-01  9.80957E-01 -1.19060E-02
    9085.479     91.244   5.080  9.65382E-01  9.81458E-01 -1.60766E-02
    9087.033     92.799   5.120  9.61625E-01  9.81988E-01 -2.03632E-02
    9088.600     94.366   5.160  9.58102E-01  9.82523E-01 -2.44204E-02
    9090.179     95.944   5.200  9.55082E-01  9.83059E-01 -2.79773E-02
    9091.770     97.536   5.240  9.52705E-01  9.83598E-01 -3.08930E-02
    9093.373     99.139   5.280  9.50978E-01  9.84158E-01 -3.31809E-02
    9094.988    100.754   5.320  9.49700E-01  9.84694E-01 -3.49945E-02
    9096.616    102.382   5.360  9.48697E-01  9.85223E-01 -3.65254E-02
    9098.256    104.022   5.400  9.47811E-01  9.85722E-01 -3.79112E-02
    9099.908    105.674   5.440  9.47042E-01  9.86215E-01 -3.91730E-02
    9101.572    107.338   5.480  9.46523E-01  9.86700E-01 -4.01774E-02
    9103.248    109.014   5.520  9.46495E-01  9.87153E-01 -4.06586E-02
    9104.937    110.703   5.560  9.47233E-01  9.87592E-01 -4.03597E-02
    9106.638    112.404   5.600  9.48821E-01  9.87973E-01 -3.91525E-02
    9108.351    114.117   5.640  9.51260E-01  9.88339E-01 -3.70785E-02
    9110.076    115.842   5.680  9.54398E-01  9.88667E-01 -3.42693E-02
    9111.813    117.579   5.720  9.58108E-01  9.88956E-01 -3.08489E-02
    9113.563    119.329   5.760  9.62347E-01  9.89205E-01 -2.68577E-02
    9115.325    121.090   5.800  9.67092E-01  9.89413E-01 -2.23210E-02
    9117.099    122.864   5.840  9.72224E-01  9.89580E-01 -1.73562E-02
    9118.885    124.650   5.880  9.77502E-01  9.89704E-01 -1.22018E-02
    9120.683    126.449   5.920  9.82647E-01  9.89757E-01 -7.11035E-03
    9122.493    128.259   5.960  9.87568E-01  9.89761E-01 -2.19267E-03
    9124.316    130.082   6.000  9.92518E-01  9.89723E-01  2.79536E-03
