# # comment:                                                     FEFF 9.9.1  
# # Source:
# # Structure
# # Reduced
# # space
# # abc:
# # angles:
# # sites:
# # POT  SCF 100  7.0000   0, screened core-hole, AFOLP (folp(0)= 1.150)
# # Abs   Z=29 Rmt= 1.186 Rnm= 1.281 K  shell
# # Pot 1 Z= 3 Rmt= 1.254 Rnm= 1.315
# # Pot 2 Z=26 Rmt= 1.250 Rnm= 1.368
# # Pot 3 Z=29 Rmt= 1.225 Rnm= 1.312
# # Pot 4 Z= 8 Rmt= 1.059 Rnm= 1.121
# # Gam_ch=1.729E+00 H-L exch Vi= 0.000E+00 Vr= 0.000E+00
# # Mu=-1.024E+01eV kf=2.044E+00 Vint=-1.735E+01eV Rs_int= 1.774
# FMS rfms= 9.0000
# # PATH  Rmax=-1.000,  Keep_limit= 0.00, Heap_limit 0.00  Pwcrit= 2.50%
#  S02=0.950  Temp=   0.00  Debye_temp=   0.00  Global_sig2= 0.00000
#  Energy zero shift, vr, vi    0.00000E+00   0.00000E+00
#  Curved wave amplitude ratio filter   4.000%
#     file         sig2 tot  cw amp ratio   deg  nlegs   reff  inp sig2
#     0/   0 paths used
#  xsedge+ 50, used to normalize mu           2.4567E-04
#  -----------------------------------------------------------------------
#  omega    e    k    mu    mu0     chi     @#
    8984.740    -14.050  -1.000  3.05572E-02  5.11175E-02 -2.05602E-02
    8985.039    -13.751  -0.960  3.18373E-02  5.47048E-02 -2.28675E-02
    8985.325    -13.465  -0.920  3.31928E-02  5.86781E-02 -2.54853E-02
    8985.600    -13.190  -0.880  3.46318E-02  6.30929E-02 -2.84610E-02
    8985.862    -12.928  -0.840  3.61642E-02  6.80136E-02 -3.18494E-02
    8986.112    -12.678  -0.800  3.78013E-02  7.35147E-02 -3.57134E-02
    8986.349    -12.441  -0.760  3.95565E-02  7.96815E-02 -4.01250E-02
    8986.575    -12.215  -0.720  4.14453E-02  8.66101E-02 -4.51648E-02
    8986.788    -12.002  -0.680  4.34851E-02  9.44062E-02 -5.09211E-02
    8986.989    -11.801  -0.640  4.56941E-02  1.03181E-01 -5.74867E-02
    8987.178    -11.612  -0.600  4.80906E-02  1.13043E-01 -6.49521E-02
    8987.355    -11.435  -0.560  5.06894E-02  1.24084E-01 -7.33948E-02
    8987.520    -11.270  -0.520  5.34977E-02  1.36359E-01 -8.28612E-02
    8987.672    -11.118  -0.480  5.65087E-02  1.49852E-01 -9.33437E-02
    8987.812    -10.978  -0.440  5.96946E-02  1.64447E-01 -1.04752E-01
    8987.940    -10.850  -0.400  6.30005E-02  1.79892E-01 -1.16892E-01
    8988.056    -10.734  -0.360  6.63436E-02  1.95797E-01 -1.29453E-01
    8988.160    -10.630  -0.320  6.96199E-02  2.11651E-01 -1.42031E-01
    8988.251    -10.539  -0.280  7.27175E-02  2.26888E-01 -1.54170E-01
    8988.331    -10.459  -0.240  7.55343E-02  2.40961E-01 -1.65427E-01
    8988.398    -10.392  -0.200  7.79905E-02  2.53410E-01 -1.75419E-01
    8988.452    -10.338  -0.160  8.00339E-02  2.63894E-01 -1.83860E-01
    8988.495    -10.295  -0.120  8.16358E-02  2.72191E-01 -1.90555E-01
    8988.526    -10.264  -0.080  8.27823E-02  2.78175E-01 -1.95392E-01
    8988.550    -10.240   0.000  8.36941E-02  2.82987E-01 -1.99293E-01
    8988.605    -10.185   0.120  8.58290E-02  2.93856E-01 -2.08027E-01
    8988.647    -10.142   0.160  8.74351E-02  3.02312E-01 -2.14877E-01
    8988.702    -10.088   0.200  8.94411E-02  3.13128E-01 -2.23686E-01
    8988.769    -10.021   0.240  9.18126E-02  3.26197E-01 -2.34384E-01
    8988.849     -9.941   0.280  9.44146E-02  3.41250E-01 -2.46835E-01
    8988.940     -9.850   0.320  9.71555E-02  3.57963E-01 -2.60808E-01
    8989.044     -9.746   0.360  9.98689E-02  3.75907E-01 -2.76038E-01
    8989.160     -9.630   0.400  1.02390E-01  3.94600E-01 -2.92210E-01
    8989.288     -9.502   0.440  1.04634E-01  4.13620E-01 -3.08986E-01
    8989.428     -9.362   0.480  1.06597E-01  4.32640E-01 -3.26043E-01
    8989.580     -9.210   0.520  1.08380E-01  4.51410E-01 -3.43030E-01
    8989.745     -9.045   0.560  1.10236E-01  4.69855E-01 -3.59619E-01
    8989.922     -8.868   0.600  1.12410E-01  4.87943E-01 -3.75533E-01
    8990.111     -8.679   0.640  1.14957E-01  5.05699E-01 -3.90741E-01
    8990.312     -8.478   0.680  1.17806E-01  5.23175E-01 -4.05369E-01
    8990.525     -8.265   0.720  1.20863E-01  5.40436E-01 -4.19573E-01
    8990.751     -8.039   0.760  1.24368E-01  5.57562E-01 -4.33194E-01
    8990.988     -7.802   0.800  1.28827E-01  5.74605E-01 -4.45778E-01
    8991.238     -7.552   0.840  1.34895E-01  5.91586E-01 -4.56691E-01
    8991.500     -7.290   0.880  1.43375E-01  6.08532E-01 -4.65157E-01
    8991.775     -7.015   0.920  1.55091E-01  6.25481E-01 -4.70390E-01
    8992.061     -6.729   0.960  1.71091E-01  6.42376E-01 -4.71285E-01
    8992.360     -6.430   1.000  1.92810E-01  6.59277E-01 -4.66467E-01
    8992.671     -6.119   1.040  2.22085E-01  6.76110E-01 -4.54025E-01
    8992.994     -5.796   1.080  2.61134E-01  6.92877E-01 -4.31744E-01
    8993.329     -5.461   1.120  3.12343E-01  7.09535E-01 -3.97193E-01
    8993.677     -5.113   1.160  3.76557E-01  7.26037E-01 -3.49480E-01
    8994.036     -4.754   1.200  4.48083E-01  7.42370E-01 -2.94287E-01
    8994.408     -4.382   1.240  5.15027E-01  7.58463E-01 -2.43436E-01
    8994.792     -3.998   1.280  5.72609E-01  7.74319E-01 -2.01710E-01
    8995.188     -3.602   1.320  6.22339E-01  7.89843E-01 -1.67504E-01
    8995.597     -3.193   1.360  6.60392E-01  8.05018E-01 -1.44626E-01
    8996.018     -2.772   1.400  6.77605E-01  8.19807E-01 -1.42203E-01
    8996.450     -2.340   1.440  6.69482E-01  8.34156E-01 -1.64675E-01
    8996.895     -1.895   1.480  6.49749E-01  8.48070E-01 -1.98321E-01
    8997.353     -1.437   1.520  6.38946E-01  8.61452E-01 -2.22507E-01
    8997.822     -0.968   1.560  6.49152E-01  8.74334E-01 -2.25182E-01
    8998.304     -0.486   1.600  6.81263E-01  8.86663E-01 -2.05400E-01
    8998.797      0.007   1.640  7.26831E-01  8.98431E-01 -1.71599E-01
    8999.303      0.513   1.680  7.86111E-01  9.09610E-01 -1.23499E-01
    8999.821      1.031   1.720  8.67939E-01  9.20197E-01 -5.22587E-02
    9000.352      1.562   1.760  9.66556E-01  9.30167E-01  3.63891E-02
    9000.894      2.104   1.800  1.07035E+00  9.39539E-01  1.30806E-01
    9001.449      2.659   1.840  1.18127E+00  9.48294E-01  2.32974E-01
    9002.016      3.226   1.880  1.30346E+00  9.56455E-01  3.47007E-01
    9002.595      3.805   1.920  1.42806E+00  9.64004E-01  4.64060E-01
    9003.186      4.396   1.960  1.53486E+00  9.70968E-01  5.63889E-01
    9003.790      5.000   2.000  1.59746E+00  9.77353E-01  6.20105E-01
    9004.406      5.616   2.040  1.59639E+00  9.83167E-01  6.13224E-01
    9005.033      6.243   2.080  1.55068E+00  9.88440E-01  5.62243E-01
    9005.674      6.884   2.120  1.48355E+00  9.93202E-01  4.90348E-01
    9006.326      7.536   2.160  1.39197E+00  9.97444E-01  3.94531E-01
    9006.990      8.200   2.200  1.28100E+00  1.00122E+00  2.79786E-01
    9007.667      8.877   2.240  1.16837E+00  1.00451E+00  1.63858E-01
    9008.356      9.566   2.280  1.06815E+00  1.00738E+00  6.07674E-02
    9009.057     10.267   2.320  9.88671E-01  1.00984E+00 -2.11680E-02
    9009.770     10.980   2.360  9.35409E-01  1.01190E+00 -7.64885E-02
    9010.495     11.705   2.400  9.05676E-01  1.01361E+00 -1.07932E-01
    9011.233     12.443   2.440  8.91764E-01  1.01496E+00 -1.23201E-01
    9011.983     13.193   2.480  9.02137E-01  1.01602E+00 -1.13885E-01
    9012.745     13.955   2.520  9.23020E-01  1.01679E+00 -9.37700E-02
    9013.519     14.729   2.560  9.50167E-01  1.01730E+00 -6.71317E-02
    9014.305     15.515   2.600  9.79109E-01  1.01754E+00 -3.84343E-02
    9015.104     16.314   2.640  1.00729E+00  1.01757E+00 -1.02798E-02
    9015.915     17.125   2.680  1.03376E+00  1.01742E+00  1.63389E-02
    9016.738     17.948   2.720  1.05794E+00  1.01708E+00  4.08615E-02
    9017.573     18.783   2.760  1.07928E+00  1.01657E+00  6.27090E-02
    9018.420     19.630   2.800  1.09672E+00  1.01593E+00  8.07892E-02
    9019.280     20.490   2.840  1.10870E+00  1.01517E+00  9.35265E-02
    9020.151     21.362   2.880  1.11403E+00  1.01431E+00  9.97192E-02
    9021.035     22.245   2.920  1.11122E+00  1.01335E+00  9.78732E-02
    9021.932     23.142   2.960  1.09897E+00  1.01230E+00  8.66657E-02
    9022.840     24.050   3.000  1.07720E+00  1.01123E+00  6.59727E-02
    9023.760     24.970   3.040  1.04689E+00  1.01009E+00  3.67993E-02
    9024.693     25.903   3.080  1.01053E+00  1.00891E+00  1.61746E-03
    9025.638     26.848   3.120  9.72098E-01  1.00772E+00 -3.56244E-02
    9026.595     27.805   3.160  9.35529E-01  1.00653E+00 -7.09976E-02
    9027.564     28.774   3.200  9.03653E-01  1.00531E+00 -1.01654E-01
    9028.546     29.756   3.240  8.78206E-01  1.00411E+00 -1.25903E-01
    9029.539     30.749   3.280  8.59510E-01  1.00292E+00 -1.43411E-01
    9030.545     31.755   3.320  8.47101E-01  1.00176E+00 -1.54663E-01
    9031.563     32.773   3.360  8.40287E-01  1.00064E+00 -1.60355E-01
    9032.593     33.803   3.400  8.38483E-01  9.99557E-01 -1.61074E-01
    9033.636     34.846   3.440  8.41007E-01  9.98492E-01 -1.57485E-01
    9034.690     35.900   3.480  8.47641E-01  9.97492E-01 -1.49851E-01
    9035.757     36.967   3.520  8.58193E-01  9.96557E-01 -1.38364E-01
    9036.836     38.046   3.560  8.72119E-01  9.95648E-01 -1.23529E-01
    9037.927     39.137   3.600  8.88549E-01  9.94808E-01 -1.06259E-01
    9039.031     40.241   3.640  9.06131E-01  9.94040E-01 -8.79087E-02
    9040.146     41.356   3.680  9.23275E-01  9.93322E-01 -7.00469E-02
    9041.274     42.484   3.720  9.38716E-01  9.92677E-01 -5.39613E-02
    9042.414     43.624   3.760  9.51967E-01  9.92107E-01 -4.01393E-02
    9043.566     44.776   3.800  9.63229E-01  9.91587E-01 -2.83581E-02
    9044.730     45.940   3.840  9.73354E-01  9.91141E-01 -1.77866E-02
    9045.907     47.117   3.880  9.83487E-01  9.90746E-01 -7.25917E-03
    9047.096     48.306   3.920  9.94589E-01  9.90426E-01  4.16247E-03
    9048.297     49.507   3.960  1.00685E+00  9.90182E-01  1.66646E-02
    9049.510     50.720   4.000  1.01960E+00  9.90010E-01  2.95884E-02
    9050.735     51.945   4.040  1.03173E+00  9.89891E-01  4.18426E-02
    9051.972     53.182   4.080  1.04222E+00  9.89842E-01  5.23765E-02
    9053.222     54.432   4.120  1.05017E+00  9.89843E-01  6.03223E-02
    9054.484     55.694   4.160  1.05506E+00  9.89914E-01  6.51413E-02
    9055.758     56.968   4.200  1.05660E+00  9.90031E-01  6.65681E-02
    9057.044     58.254   4.240  1.05496E+00  9.90195E-01  6.47613E-02
    9058.343     59.553   4.280  1.05087E+00  9.90426E-01  6.04452E-02
    9059.653     60.863   4.320  1.04538E+00  9.90701E-01  5.46787E-02
    9060.976     62.186   4.360  1.03946E+00  9.91017E-01  4.84470E-02
    9062.311     63.521   4.400  1.03371E+00  9.91373E-01  4.23328E-02
    9063.658     64.868   4.440  1.02838E+00  9.91770E-01  3.66143E-02
    9065.018     66.228   4.480  1.02352E+00  9.92206E-01  3.13135E-02
    9066.389     67.599   4.520  1.01919E+00  9.92677E-01  2.65167E-02
    9067.773     68.983   4.560  1.01571E+00  9.93182E-01  2.25280E-02
    9069.169     70.379   4.600  1.01356E+00  9.93698E-01  1.98623E-02
    9070.577     71.787   4.640  1.01330E+00  9.94221E-01  1.90821E-02
    9071.998     73.208   4.680  1.01548E+00  9.94773E-01  2.07110E-02
    9073.430     74.640   4.720  1.02049E+00  9.95354E-01  2.51358E-02
    9074.875     76.085   4.760  1.02834E+00  9.95917E-01  3.24240E-02
    9076.332     77.542   4.800  1.03862E+00  9.96502E-01  4.21224E-02
    9077.801     79.011   4.840  1.05027E+00  9.97089E-01  5.31758E-02
    9079.282     80.492   4.880  1.06177E+00  9.97674E-01  6.40980E-02
    9080.776     81.986   4.920  1.07148E+00  9.98234E-01  7.32415E-02
    9082.282     83.492   4.960  1.07772E+00  9.98811E-01  7.89100E-02
    9083.800     85.010   5.000  1.07903E+00  9.99361E-01  7.96698E-02
    9085.330     86.540   5.040  1.07478E+00  9.99902E-01  7.48762E-02
    9086.872     88.082   5.080  1.06530E+00  1.00041E+00  6.48928E-02
    9088.426     89.636   5.120  1.05187E+00  1.00091E+00  5.09580E-02
    9089.993     91.203   5.160  1.03598E+00  1.00138E+00  3.46040E-02
    9091.572     92.782   5.200  1.01898E+00  1.00183E+00  1.71529E-02
    9093.163     94.373   5.240  1.00181E+00  1.00222E+00 -4.11934E-04
    9094.766     95.976   5.280  9.85280E-01  1.00260E+00 -1.73194E-02
    9096.382     97.592   5.320  9.70157E-01  1.00296E+00 -3.28061E-02
    9098.009     99.219   5.360  9.57150E-01  1.00326E+00 -4.61138E-02
    9099.649    100.859   5.400  9.46770E-01  1.00352E+00 -5.67531E-02
    9101.301    102.511   5.440  9.39054E-01  1.00374E+00 -6.46888E-02
    9102.965    104.175   5.480  9.33654E-01  1.00395E+00 -7.02911E-02
    9104.642    105.852   5.520  9.29910E-01  1.00408E+00 -7.41735E-02
    9106.330    107.540   5.560  9.27064E-01  1.00418E+00 -7.71162E-02
    9108.031    109.241   5.600  9.24367E-01  1.00426E+00 -7.98919E-02
    9109.744    110.954   5.640  9.21237E-01  1.00427E+00 -8.30355E-02
    9111.469    112.679   5.680  9.17712E-01  1.00424E+00 -8.65303E-02
    9113.207    114.417   5.720  9.14502E-01  1.00417E+00 -8.96684E-02
    9114.956    116.166   5.760  9.12905E-01  1.00406E+00 -9.11539E-02
    9116.718    117.928   5.800  9.14271E-01  1.00390E+00 -8.96321E-02
    9118.492    119.702   5.840  9.19485E-01  1.00368E+00 -8.41998E-02
    9120.278    121.488   5.880  9.28868E-01  1.00345E+00 -7.45830E-02
    9122.076    123.286   5.920  9.42099E-01  1.00318E+00 -6.10839E-02
    9123.887    125.097   5.960  9.58315E-01  1.00288E+00 -4.45617E-02
    9125.709    126.919   6.000  9.76492E-01  1.00251E+00 -2.60145E-02
