# # comment:                                                     FEFF 9.9.1  
# # Source:
# # Structure
# # Reduced
# # space
# # abc:
# # angles:
# # sites:
# # POT  SCF 100  7.0000   0, screened core-hole, AFOLP (folp(0)= 1.150)
# # Abs   Z=29 Rmt= 1.295 Rnm= 1.398 K  shell
# # Pot 1 Z= 3 Rmt= 1.246 Rnm= 1.305
# # Pot 2 Z=29 Rmt= 1.295 Rnm= 1.398
# # Pot 3 Z=15 Rmt= 0.945 Rnm= 1.155
# # Pot 4 Z= 8 Rmt= 0.937 Rnm= 1.040
# # Gam_ch=1.729E+00 H-L exch Vi= 0.000E+00 Vr= 0.000E+00
# # Mu=-6.795E+00eV kf=2.340E+00 Vint=-1.774E+01eV Rs_int= 1.550
# FMS rfms= 9.0000
# # PATH  Rmax=-1.000,  Keep_limit= 0.00, Heap_limit 0.00  Pwcrit= 2.50%
#  S02=0.950  Temp=   0.00  Debye_temp=   0.00  Global_sig2= 0.00000
#  Energy zero shift, vr, vi    0.00000E+00   0.00000E+00
#  Curved wave amplitude ratio filter   4.000%
#     file         sig2 tot  cw amp ratio   deg  nlegs   reff  inp sig2
#     0/   0 paths used
#  xsedge+ 50, used to normalize mu           2.4836E-04
#  -----------------------------------------------------------------------
#  omega    e    k    mu    mu0     chi     @#
    8984.065    -10.605  -1.000  5.95654E-02  5.46399E-02  4.92550E-03
    8984.364    -10.307  -0.960  6.44925E-02  5.86586E-02  5.83391E-03
    8984.650    -10.020  -0.920  7.00772E-02  6.31304E-02  6.94684E-03
    8984.925     -9.746  -0.880  7.64361E-02  6.81228E-02  8.31332E-03
    8985.187     -9.484  -0.840  8.37084E-02  7.37144E-02  9.99396E-03
    8985.437     -9.234  -0.800  9.20595E-02  7.99964E-02  1.20631E-02
    8985.674     -8.996  -0.760  1.01685E-01  8.70737E-02  1.46110E-02
    8985.900     -8.770  -0.720  1.12810E-01  9.50647E-02  1.77451E-02
    8986.113     -8.557  -0.680  1.25691E-01  1.04100E-01  2.15904E-02
    8986.315     -8.356  -0.640  1.40605E-01  1.14318E-01  2.62864E-02
    8986.504     -8.167  -0.600  1.57834E-01  1.25855E-01  3.19791E-02
    8986.680     -7.990  -0.560  1.77632E-01  1.38827E-01  3.88055E-02
    8986.845     -7.825  -0.520  2.00170E-01  1.53303E-01  4.68676E-02
    8986.997     -7.673  -0.480  2.25465E-01  1.69270E-01  5.61950E-02
    8987.138     -7.533  -0.440  2.53288E-01  1.86586E-01  6.67014E-02
    8987.266     -7.405  -0.400  2.83096E-01  2.04949E-01  7.81468E-02
    8987.381     -7.289  -0.360  3.14005E-01  2.23880E-01  9.01255E-02
    8987.485     -7.185  -0.320  3.44858E-01  2.42758E-01  1.02100E-01
    8987.576     -7.094  -0.280  3.74376E-01  2.60895E-01  1.13481E-01
    8987.656     -7.015  -0.240  4.01365E-01  2.77628E-01  1.23737E-01
    8987.723     -6.948  -0.200  4.24886E-01  2.92408E-01  1.32478E-01
    8987.778     -6.893  -0.160  4.44334E-01  3.04832E-01  1.39502E-01
    8987.820     -6.850  -0.120  4.59425E-01  3.14647E-01  1.44779E-01
    8987.851     -6.820  -0.080  4.70097E-01  3.21713E-01  1.48384E-01
    8987.875     -6.795   0.000  4.78443E-01  3.27387E-01  1.51056E-01
    8987.930     -6.740   0.120  4.96392E-01  3.40174E-01  1.56218E-01
    8987.973     -6.698   0.160  5.10215E-01  3.50106E-01  1.60109E-01
    8988.028     -6.643   0.200  5.27273E-01  3.62771E-01  1.64503E-01
    8988.095     -6.576   0.240  5.46671E-01  3.77959E-01  1.68712E-01
    8988.174     -6.497   0.280  5.67121E-01  3.95390E-01  1.71731E-01
    8988.265     -6.405   0.320  5.86788E-01  4.14533E-01  1.72255E-01
    8988.369     -6.301   0.360  6.03629E-01  4.34847E-01  1.68782E-01
    8988.485     -6.186   0.400  6.15580E-01  4.55720E-01  1.59860E-01
    8988.613     -6.058   0.440  6.20849E-01  4.76531E-01  1.44318E-01
    8988.753     -5.917   0.480  6.18221E-01  4.96887E-01  1.21334E-01
    8988.905     -5.765   0.520  6.06824E-01  5.16515E-01  9.03090E-02
    8989.070     -5.600   0.560  5.86273E-01  5.35229E-01  5.10439E-02
    8989.247     -5.424   0.600  5.57742E-01  5.53059E-01  4.68248E-03
    8989.436     -5.235   0.640  5.24890E-01  5.70050E-01 -4.51602E-02
    8989.637     -5.033   0.680  4.93656E-01  5.86267E-01 -9.26106E-02
    8989.850     -4.820   0.720  4.70424E-01  6.01850E-01 -1.31426E-01
    8990.076     -4.595   0.760  4.59910E-01  6.16899E-01 -1.56989E-01
    8990.314     -4.357   0.800  4.64267E-01  6.31524E-01 -1.67256E-01
    8990.563     -4.107   0.840  4.82641E-01  6.45781E-01 -1.63141E-01
    8990.826     -3.845   0.880  5.11217E-01  6.59754E-01 -1.48536E-01
    8991.100     -3.570   0.920  5.44353E-01  6.73488E-01 -1.29135E-01
    8991.386     -3.284   0.960  5.76937E-01  6.87021E-01 -1.10084E-01
    8991.685     -2.985   1.000  6.07397E-01  7.00418E-01 -9.30216E-02
    8991.996     -2.674   1.040  6.38909E-01  7.13652E-01 -7.47426E-02
    8992.319     -2.351   1.080  6.74613E-01  7.26749E-01 -5.21356E-02
    8992.654     -2.016   1.120  7.11395E-01  7.39711E-01 -2.83159E-02
    8993.002     -1.669   1.160  7.42798E-01  7.52549E-01 -9.75155E-03
    8993.361     -1.309   1.200  7.65523E-01  7.65253E-01  2.70234E-04
    8993.733     -0.937   1.240  7.77596E-01  7.77788E-01 -1.92131E-04
    8994.117     -0.553   1.280  7.77343E-01  7.90156E-01 -1.28130E-02
    8994.514     -0.157   1.320  7.65623E-01  8.02337E-01 -3.67134E-02
    8994.922      0.252   1.360  7.47477E-01  8.14307E-01 -6.68309E-02
    8995.343      0.672   1.400  7.35700E-01  8.26065E-01 -9.03652E-02
    8995.776      1.105   1.440  7.40841E-01  8.37583E-01 -9.67425E-02
    8996.221      1.550   1.480  7.57784E-01  8.48817E-01 -9.10323E-02
    8996.678      2.007   1.520  7.76924E-01  8.59780E-01 -8.28562E-02
    8997.147      2.477   1.560  7.95291E-01  8.70447E-01 -7.51555E-02
    8997.629      2.958   1.600  8.16201E-01  8.80790E-01 -6.45896E-02
    8998.122      3.452   1.640  8.50858E-01  8.90804E-01 -3.99459E-02
    8998.628      3.958   1.680  9.03598E-01  9.00464E-01  3.13470E-03
    8999.147      4.476   1.720  9.62680E-01  9.09741E-01  5.29389E-02
    8999.677      5.007   1.760  1.00724E+00  9.18654E-01  8.85886E-02
    9000.219      5.549   1.800  1.02417E+00  9.27157E-01  9.70151E-02
    9000.774      6.104   1.840  1.02868E+00  9.35288E-01  9.33967E-02
    9001.341      6.671   1.880  1.03682E+00  9.42983E-01  9.38368E-02
    9001.920      7.250   1.920  1.04874E+00  9.50283E-01  9.84610E-02
    9002.512      7.841   1.960  1.06043E+00  9.57165E-01  1.03269E-01
    9003.115      8.445   2.000  1.06731E+00  9.63650E-01  1.03657E-01
    9003.731      9.060   2.040  1.06103E+00  9.69699E-01  9.13303E-02
    9004.359      9.688   2.080  1.04177E+00  9.75332E-01  6.64409E-02
    9004.999     10.328   2.120  1.02584E+00  9.80554E-01  4.52836E-02
    9005.651     10.981   2.160  1.02931E+00  9.85387E-01  4.39249E-02
    9006.315     11.645   2.200  1.05387E+00  9.89814E-01  6.40557E-02
    9006.992     12.322   2.240  1.08790E+00  9.93861E-01  9.40389E-02
    9007.681     13.011   2.280  1.11550E+00  9.97512E-01  1.17985E-01
    9008.382     13.712   2.320  1.12766E+00  1.00079E+00  1.26871E-01
    9009.095     14.425   2.360  1.12640E+00  1.00373E+00  1.22673E-01
    9009.821     15.150   2.400  1.12035E+00  1.00631E+00  1.14038E-01
    9010.558     15.888   2.440  1.11758E+00  1.00858E+00  1.08994E-01
    9011.308     16.638   2.480  1.11940E+00  1.01051E+00  1.08890E-01
    9012.070     17.400   2.520  1.12141E+00  1.01214E+00  1.09270E-01
    9012.844     18.174   2.560  1.11708E+00  1.01348E+00  1.03599E-01
    9013.631     18.960   2.600  1.10305E+00  1.01457E+00  8.84767E-02
    9014.429     19.759   2.640  1.08103E+00  1.01538E+00  6.56515E-02
    9015.240     20.570   2.680  1.05264E+00  1.01595E+00  3.66902E-02
    9016.063     21.393   2.720  1.01847E+00  1.01630E+00  2.17212E-03
    9016.898     22.228   2.760  9.88571E-01  1.01645E+00 -2.78770E-02
    9017.745     23.075   2.800  9.68877E-01  1.01639E+00 -4.75179E-02
    9018.605     23.935   2.840  9.56051E-01  1.01617E+00 -6.01161E-02
    9019.477     24.806   2.880  9.49222E-01  1.01575E+00 -6.65310E-02
    9020.361     25.690   2.920  9.47117E-01  1.01520E+00 -6.80844E-02
    9021.257     26.586   2.960  9.47361E-01  1.01452E+00 -6.71601E-02
    9022.165     27.495   3.000  9.47732E-01  1.01370E+00 -6.59649E-02
    9023.085     28.415   3.040  9.46998E-01  1.01278E+00 -6.57788E-02
    9024.018     29.348   3.080  9.44865E-01  1.01177E+00 -6.69031E-02
    9024.963     30.293   3.120  9.41692E-01  1.01068E+00 -6.89850E-02
    9025.920     31.250   3.160  9.38173E-01  1.00951E+00 -7.13354E-02
    9026.889     32.219   3.200  9.34946E-01  1.00829E+00 -7.33433E-02
    9027.871     33.200   3.240  9.32761E-01  1.00700E+00 -7.42428E-02
    9028.864     34.194   3.280  9.32398E-01  1.00570E+00 -7.33017E-02
    9029.870     35.200   3.320  9.34099E-01  1.00436E+00 -7.02612E-02
    9030.888     36.218   3.360  9.37538E-01  1.00301E+00 -6.54732E-02
    9031.919     37.248   3.400  9.41817E-01  1.00166E+00 -5.98398E-02
    9032.961     38.291   3.440  9.45765E-01  1.00028E+00 -5.45144E-02
    9034.016     39.345   3.480  9.48529E-01  9.98924E-01 -5.03951E-02
    9035.082     40.412   3.520  9.49983E-01  9.97576E-01 -4.75929E-02
    9036.161     41.491   3.560  9.50639E-01  9.96257E-01 -4.56181E-02
    9037.253     42.582   3.600  9.51262E-01  9.94952E-01 -4.36902E-02
    9038.356     43.686   3.640  9.52735E-01  9.93702E-01 -4.09676E-02
    9039.471     44.801   3.680  9.55730E-01  9.92471E-01 -3.67412E-02
    9040.599     45.929   3.720  9.60740E-01  9.91301E-01 -3.05610E-02
    9041.739     47.069   3.760  9.67812E-01  9.90153E-01 -2.23407E-02
    9042.891     48.221   3.800  9.76806E-01  9.89071E-01 -1.22651E-02
    9044.056     49.385   3.840  9.87145E-01  9.88057E-01 -9.12049E-04
    9045.232     50.562   3.880  9.97917E-01  9.87091E-01  1.08257E-02
    9046.421     51.751   3.920  1.00823E+00  9.86173E-01  2.20602E-02
    9047.622     52.951   3.960  1.01754E+00  9.85326E-01  3.22129E-02
    9048.835     54.165   4.000  1.02567E+00  9.84551E-01  4.11155E-02
    9050.060     55.390   4.040  1.03281E+00  9.83829E-01  4.89788E-02
    9051.298     56.627   4.080  1.03921E+00  9.83180E-01  5.60311E-02
    9052.547     57.877   4.120  1.04481E+00  9.82603E-01  6.22063E-02
    9053.809     59.139   4.160  1.04928E+00  9.82080E-01  6.71955E-02
    9055.083     60.413   4.200  1.05237E+00  9.81630E-01  7.07420E-02
    9056.369     61.699   4.240  1.05395E+00  9.81256E-01  7.26909E-02
    9057.668     62.998   4.280  1.05392E+00  9.80955E-01  7.29608E-02
    9058.979     64.308   4.320  1.05220E+00  9.80707E-01  7.14906E-02
    9060.301     65.631   4.360  1.04863E+00  9.80529E-01  6.81046E-02
    9061.636     66.966   4.400  1.04291E+00  9.80402E-01  6.25125E-02
    9062.984     68.313   4.440  1.03483E+00  9.80347E-01  5.44874E-02
    9064.343     69.673   4.480  1.02446E+00  9.80363E-01  4.40953E-02
    9065.715     71.044   4.520  1.01227E+00  9.80427E-01  3.18438E-02
    9067.098     72.428   4.560  9.99218E-01  9.80536E-01  1.86819E-02
    9068.494     73.824   4.600  9.86422E-01  9.80713E-01  5.70831E-03
    9069.903     75.232   4.640  9.74810E-01  9.80934E-01 -6.12425E-03
    9071.323     76.653   4.680  9.65112E-01  9.81196E-01 -1.60848E-02
    9072.755     78.085   4.720  9.57787E-01  9.81499E-01 -2.37124E-02
    9074.200     79.530   4.760  9.53084E-01  9.81842E-01 -2.87573E-02
    9075.657     80.987   4.800  9.51080E-01  9.82223E-01 -3.11435E-02
    9077.126     82.456   4.840  9.51638E-01  9.82642E-01 -3.10040E-02
    9078.608     83.937   4.880  9.54397E-01  9.83096E-01 -2.86983E-02
    9080.101     85.431   4.920  9.58713E-01  9.83561E-01 -2.48478E-02
    9081.607     86.936   4.960  9.63678E-01  9.84059E-01 -2.03810E-02
    9083.125     88.454   5.000  9.68283E-01  9.84585E-01 -1.63018E-02
    9084.655     89.984   5.040  9.71687E-01  9.85095E-01 -1.34084E-02
    9086.197     91.527   5.080  9.73543E-01  9.85633E-01 -1.20904E-02
    9087.752     93.081   5.120  9.73871E-01  9.86196E-01 -1.23242E-02
    9089.318     94.648   5.160  9.72958E-01  9.86736E-01 -1.37782E-02
    9090.897     96.227   5.200  9.71402E-01  9.87274E-01 -1.58717E-02
    9092.488     97.818   5.240  9.69936E-01  9.87811E-01 -1.78748E-02
    9094.091     99.421   5.280  9.69277E-01  9.88344E-01 -1.90665E-02
    9095.707    101.036   5.320  9.69908E-01  9.88871E-01 -1.89631E-02
    9097.334    102.664   5.360  9.71846E-01  9.89369E-01 -1.75226E-02
    9098.974    104.304   5.400  9.74743E-01  9.89856E-01 -1.51135E-02
    9100.626    105.956   5.440  9.78037E-01  9.90312E-01 -1.22742E-02
    9102.290    107.620   5.480  9.81386E-01  9.90754E-01 -9.36783E-03
    9103.967    109.297   5.520  9.84695E-01  9.91138E-01 -6.44288E-03
    9105.655    110.985   5.560  9.88158E-01  9.91509E-01 -3.35109E-03
    9107.356    112.686   5.600  9.91876E-01  9.91865E-01  1.12158E-05
    9109.069    114.399   5.640  9.95610E-01  9.92160E-01  3.45070E-03
    9110.794    116.124   5.680  9.98769E-01  9.92413E-01  6.35566E-03
    9112.532    117.861   5.720  1.00042E+00  9.92626E-01  7.79567E-03
    9114.281    119.611   5.760  9.99659E-01  9.92822E-01  6.83745E-03
    9116.043    121.373   5.800  9.95920E-01  9.92952E-01  2.96793E-03
    9117.817    123.147   5.840  9.89497E-01  9.93014E-01 -3.51709E-03
    9119.603    124.933   5.880  9.81653E-01  9.93058E-01 -1.14056E-02
    9121.401    126.731   5.920  9.74127E-01  9.93060E-01 -1.89328E-02
    9123.212    128.541   5.960  9.68612E-01  9.92987E-01 -2.43751E-02
    9125.035    130.364   6.000  9.66423E-01  9.92838E-01 -2.64143E-02
