# # comment:                                                     FEFF 9.9.1  
# # Source:
# # Structure
# # Reduced
# # space
# # abc:
# # angles:163.670735
# # sites:
# # POT  SCF 100  7.0000   0, screened core-hole, AFOLP (folp(0)= 1.150)
# # Abs   Z=29 Rmt= 1.277 Rnm= 1.341 K  shell
# # Pot 1 Z=58 Rmt= 1.811 Rnm= 1.870
# # Pot 2 Z=29 Rmt= 1.277 Rnm= 1.341
# # Pot 3 Z=15 Rmt= 1.422 Rnm= 1.488
# # Pot 4 Z= 8 Rmt= 0.993 Rnm= 1.100
# # Gam_ch=1.729E+00 H-L exch Vi= 0.000E+00 Vr= 0.000E+00
# # Mu=-8.493E+00eV kf=1.936E+00 Vint=-1.751E+01eV Rs_int= 1.874
# FMS rfms= 9.0000
# # PATH  Rmax=-1.000,  Keep_limit= 0.00, Heap_limit 0.00  Pwcrit= 2.50%
#  S02=0.950  Temp=   0.00  Debye_temp=   0.00  Global_sig2= 0.00000
#  Energy zero shift, vr, vi    0.00000E+00   0.00000E+00
#  Curved wave amplitude ratio filter   4.000%
#     file         sig2 tot  cw amp ratio   deg  nlegs   reff  inp sig2
#     0/   0 paths used
#  xsedge+ 50, used to normalize mu           2.4456E-04
#  -----------------------------------------------------------------------
#  omega    e    k    mu    mu0     chi     @#
    8984.743    -12.303  -1.000  4.51676E-02  5.89308E-02 -1.37633E-02
    8985.041    -12.005  -0.960  4.78917E-02  6.33615E-02 -1.54698E-02
    8985.328    -11.718  -0.920  5.08642E-02  6.82967E-02 -1.74324E-02
    8985.602    -11.444  -0.880  5.41172E-02  7.38113E-02 -1.96941E-02
    8985.864    -11.182  -0.840  5.76881E-02  7.99930E-02 -2.23049E-02
    8986.114    -10.932  -0.800  6.16199E-02  8.69432E-02 -2.53234E-02
    8986.352    -10.694  -0.760  6.59619E-02  9.47786E-02 -2.88168E-02
    8986.578    -10.469  -0.720  7.07696E-02  1.03631E-01 -3.28614E-02
    8986.791    -10.255  -0.680  7.61039E-02  1.13646E-01 -3.75417E-02
    8986.992    -10.054  -0.640  8.20288E-02  1.24976E-01 -4.29472E-02
    8987.181     -9.865  -0.600  8.86066E-02  1.37773E-01 -4.91665E-02
    8987.358     -9.688  -0.560  9.58895E-02  1.52166E-01 -5.62767E-02
    8987.522     -9.524  -0.520  1.03906E-01  1.68233E-01 -6.43264E-02
    8987.675     -9.371  -0.480  1.12644E-01  1.85957E-01 -7.33129E-02
    8987.815     -9.231  -0.440  1.22028E-01  2.05183E-01 -8.31551E-02
    8987.943     -9.103  -0.400  1.31903E-01  2.25575E-01 -9.36718E-02
    8988.059     -8.987  -0.360  1.42026E-01  2.46601E-01 -1.04575E-01
    8988.163     -8.884  -0.320  1.52085E-01  2.67573E-01 -1.15488E-01
    8988.254     -8.792  -0.280  1.61731E-01  2.87727E-01 -1.25996E-01
    8988.333     -8.713  -0.240  1.70627E-01  3.06327E-01 -1.35700E-01
    8988.400     -8.646  -0.200  1.78489E-01  3.22760E-01 -1.44271E-01
    8988.455     -8.591  -0.160  1.85109E-01  3.36578E-01 -1.51469E-01
    8988.498     -8.548  -0.120  1.90354E-01  3.47497E-01 -1.57144E-01
    8988.528     -8.518  -0.080  1.94150E-01  3.55361E-01 -1.61211E-01
    8988.553     -8.493   0.000  1.97243E-01  3.61676E-01 -1.64434E-01
    8988.608     -8.439   0.120  2.04052E-01  3.75894E-01 -1.71842E-01
    8988.650     -8.396   0.160  2.09305E-01  3.86951E-01 -1.77646E-01
    8988.705     -8.341   0.200  2.15957E-01  4.01051E-01 -1.85094E-01
    8988.772     -8.274   0.240  2.23919E-01  4.18013E-01 -1.94094E-01
    8988.851     -8.195   0.280  2.32930E-01  4.37424E-01 -2.04494E-01
    8988.943     -8.103   0.320  2.42765E-01  4.58835E-01 -2.16070E-01
    8989.046     -8.000   0.360  2.52970E-01  4.81530E-01 -2.28560E-01
    8989.162     -7.884   0.400  2.63224E-01  5.04895E-01 -2.41671E-01
    8989.290     -7.756   0.440  2.73147E-01  5.28233E-01 -2.55086E-01
    8989.431     -7.616   0.480  2.82733E-01  5.51108E-01 -2.68376E-01
    8989.583     -7.463   0.520  2.92239E-01  5.73174E-01 -2.80936E-01
    8989.747     -7.299   0.560  3.02284E-01  5.94268E-01 -2.91984E-01
    8989.924     -7.122   0.600  3.13714E-01  6.14372E-01 -3.00657E-01
    8990.113     -6.933   0.640  3.27360E-01  6.33508E-01 -3.06149E-01
    8990.314     -6.732   0.680  3.44062E-01  6.51785E-01 -3.07722E-01
    8990.528     -6.518   0.720  3.64626E-01  6.69283E-01 -3.04656E-01
    8990.753     -6.293   0.760  3.89691E-01  6.86104E-01 -2.96413E-01
    8990.991     -6.055   0.800  4.19226E-01  7.02360E-01 -2.83134E-01
    8991.241     -5.805   0.840  4.52058E-01  7.18106E-01 -2.66049E-01
    8991.503     -5.543   0.880  4.86170E-01  7.33383E-01 -2.47213E-01
    8991.777     -5.269   0.920  5.19513E-01  7.48255E-01 -2.28742E-01
    8992.064     -4.982   0.960  5.50766E-01  7.62754E-01 -2.11989E-01
    8992.363     -4.683   1.000  5.79508E-01  7.76860E-01 -1.97352E-01
    8992.674     -4.373   1.040  6.05778E-01  7.90623E-01 -1.84845E-01
    8992.997     -4.049   1.080  6.30128E-01  8.04005E-01 -1.73877E-01
    8993.332     -3.714   1.120  6.54723E-01  8.17021E-01 -1.62298E-01
    8993.679     -3.367   1.160  6.82930E-01  8.29663E-01 -1.46733E-01
    8994.039     -3.007   1.200  7.17274E-01  8.41897E-01 -1.24623E-01
    8994.411     -2.635   1.240  7.58540E-01  8.53726E-01 -9.51860E-02
    8994.795     -2.251   1.280  8.07249E-01  8.65113E-01 -5.78647E-02
    8995.191     -1.855   1.320  8.64589E-01  8.76078E-01 -1.14888E-02
    8995.600     -1.446   1.360  9.30323E-01  8.86559E-01  4.37634E-02
    8996.020     -1.026   1.400  9.99172E-01  8.96579E-01  1.02593E-01
    8996.453     -0.593   1.440  1.05733E+00  9.06136E-01  1.51198E-01
    8996.898     -0.148   1.480  1.08885E+00  9.15189E-01  1.73660E-01
    8997.355      0.309   1.520  1.08964E+00  9.23742E-01  1.65902E-01
    8997.825      0.779   1.560  1.06808E+00  9.31794E-01  1.36285E-01
    8998.306      1.260   1.600  1.03558E+00  9.39368E-01  9.62139E-02
    8998.800      1.754   1.640  1.00241E+00  9.46427E-01  5.59860E-02
    8999.306      2.260   1.680  9.78830E-01  9.52999E-01  2.58313E-02
    8999.824      2.778   1.720  9.73511E-01  9.59086E-01  1.44255E-02
    9000.354      3.308   1.760  9.88803E-01  9.64696E-01  2.41076E-02
    9000.897      3.851   1.800  1.01934E+00  9.69856E-01  4.94818E-02
    9001.452      4.406   1.840  1.05319E+00  9.74534E-01  7.86532E-02
    9002.019      4.973   1.880  1.07505E+00  9.78801E-01  9.62447E-02
    9002.598      5.552   1.920  1.07656E+00  9.82644E-01  9.39159E-02
    9003.189      6.143   1.960  1.06464E+00  9.86095E-01  7.85406E-02
    9003.793      6.747   2.000  1.05275E+00  9.89162E-01  6.35916E-02
    9004.408      7.362   2.040  1.04722E+00  9.91857E-01  5.53670E-02
    9005.036      7.990   2.080  1.04502E+00  9.94210E-01  5.08110E-02
    9005.676      8.630   2.120  1.04122E+00  9.96254E-01  4.49683E-02
    9006.329      9.282   2.160  1.03199E+00  9.97979E-01  3.40076E-02
    9006.993      9.947   2.200  1.01622E+00  9.99437E-01  1.67880E-02
    9007.670     10.624   2.240  9.98710E-01  1.00064E+00 -1.92875E-03
    9008.359     11.312   2.280  9.90268E-01  1.00159E+00 -1.13265E-02
    9009.060     12.013   2.320  1.00085E+00  1.00235E+00 -1.50444E-03
    9009.773     12.727   2.360  1.03305E+00  1.00289E+00  3.01590E-02
    9010.498     13.452   2.400  1.07210E+00  1.00325E+00  6.88516E-02
    9011.236     14.190   2.440  1.10565E+00  1.00347E+00  1.02180E-01
    9011.986     14.940   2.480  1.13038E+00  1.00353E+00  1.26857E-01
    9012.748     15.702   2.520  1.14560E+00  1.00346E+00  1.42139E-01
    9013.522     16.476   2.560  1.15019E+00  1.00329E+00  1.46892E-01
    9014.308     17.262   2.600  1.14350E+00  1.00302E+00  1.40477E-01
    9015.107     18.061   2.640  1.12591E+00  1.00268E+00  1.23226E-01
    9015.918     18.871   2.680  1.09960E+00  1.00227E+00  9.73315E-02
    9016.740     19.694   2.720  1.06773E+00  1.00180E+00  6.59302E-02
    9017.576     20.530   2.760  1.03416E+00  1.00130E+00  3.28662E-02
    9018.423     21.377   2.800  1.00192E+00  1.00075E+00  1.16730E-03
    9019.282     22.236   2.840  9.73560E-01  1.00020E+00 -2.66362E-02
    9020.154     23.108   2.880  9.50580E-01  9.99636E-01 -4.90557E-02
    9021.038     23.992   2.920  9.33121E-01  9.99074E-01 -6.59531E-02
    9021.934     24.888   2.960  9.20154E-01  9.98515E-01 -7.83611E-02
    9022.843     25.796   3.000  9.10565E-01  9.97982E-01 -8.74178E-02
    9023.763     26.717   3.040  9.03819E-01  9.97459E-01 -9.36400E-02
    9024.696     27.650   3.080  8.99997E-01  9.96970E-01 -9.69728E-02
    9025.641     28.595   3.120  8.99571E-01  9.96517E-01 -9.69459E-02
    9026.598     29.552   3.160  9.02727E-01  9.96102E-01 -9.33750E-02
    9027.567     30.521   3.200  9.09182E-01  9.95727E-01 -8.65450E-02
    9028.548     31.502   3.240  9.18147E-01  9.95393E-01 -7.72454E-02
    9029.542     32.496   3.280  9.28647E-01  9.95103E-01 -6.64565E-02
    9030.548     33.502   3.320  9.39609E-01  9.94880E-01 -5.52711E-02
    9031.566     34.520   3.360  9.50107E-01  9.94702E-01 -4.45956E-02
    9032.596     35.550   3.400  9.59338E-01  9.94571E-01 -3.52323E-02
    9033.639     36.592   3.440  9.66770E-01  9.94506E-01 -2.77363E-02
    9034.693     37.647   3.480  9.72040E-01  9.94490E-01 -2.24501E-02
    9035.760     38.714   3.520  9.75357E-01  9.94543E-01 -1.91859E-02
    9036.839     39.793   3.560  9.77120E-01  9.94642E-01 -1.75218E-02
    9037.930     40.884   3.600  9.77736E-01  9.94787E-01 -1.70505E-02
    9039.033     41.987   3.640  9.77665E-01  9.94999E-01 -1.73342E-02
    9040.149     43.103   3.680  9.77312E-01  9.95257E-01 -1.79454E-02
    9041.277     44.231   3.720  9.77303E-01  9.95558E-01 -1.82554E-02
    9042.417     45.371   3.760  9.78444E-01  9.95903E-01 -1.74592E-02
    9043.569     46.523   3.800  9.81641E-01  9.96313E-01 -1.46719E-02
    9044.733     47.687   3.840  9.87645E-01  9.96763E-01 -9.11849E-03
    9045.910     48.864   3.880  9.96882E-01  9.97233E-01 -3.50562E-04
    9047.098     50.052   3.920  1.00934E+00  9.97762E-01  1.15750E-02
    9048.299     51.253   3.960  1.02437E+00  9.98330E-01  2.60356E-02
    9049.512     52.466   4.000  1.04075E+00  9.98911E-01  4.18404E-02
    9050.738     53.692   4.040  1.05690E+00  9.99525E-01  5.73765E-02
    9051.975     54.929   4.080  1.07100E+00  1.00017E+00  7.08314E-02
    9053.225     56.179   4.120  1.08133E+00  1.00083E+00  8.05019E-02
    9054.487     57.441   4.160  1.08670E+00  1.00149E+00  8.52114E-02
    9055.761     58.715   4.200  1.08681E+00  1.00217E+00  8.46351E-02
    9057.047     60.001   4.240  1.08228E+00  1.00286E+00  7.94163E-02
    9058.345     61.299   4.280  1.07454E+00  1.00356E+00  7.09818E-02
    9059.656     62.610   4.320  1.06538E+00  1.00427E+00  6.11029E-02
    9060.979     63.933   4.360  1.05617E+00  1.00496E+00  5.12033E-02
    9062.314     65.268   4.400  1.04747E+00  1.00565E+00  4.18169E-02
    9063.661     66.615   4.440  1.03914E+00  1.00633E+00  3.28079E-02
    9065.021     67.974   4.480  1.03074E+00  1.00698E+00  2.37573E-02
    9066.392     69.346   4.520  1.02212E+00  1.00765E+00  1.44678E-02
    9067.776     70.730   4.560  1.01339E+00  1.00826E+00  5.13208E-03
    9069.172     72.126   4.600  1.00517E+00  1.00886E+00 -3.68773E-03
    9070.580     73.534   4.640  9.98101E-01  1.00942E+00 -1.13163E-02
    9072.000     74.954   4.680  9.92550E-01  1.00997E+00 -1.74163E-02
    9073.433     76.387   4.720  9.88117E-01  1.01048E+00 -2.23609E-02
    9074.878     77.832   4.760  9.83945E-01  1.01095E+00 -2.70054E-02
    9076.335     79.289   4.800  9.79380E-01  1.01138E+00 -3.20004E-02
    9077.804     80.758   4.840  9.74467E-01  1.01177E+00 -3.73015E-02
    9079.285     82.239   4.880  9.69783E-01  1.01212E+00 -4.23322E-02
    9080.779     83.733   4.920  9.65816E-01  1.01242E+00 -4.66030E-02
    9082.284     85.238   4.960  9.62449E-01  1.01268E+00 -5.02287E-02
    9083.802     86.756   5.000  9.59021E-01  1.01287E+00 -5.38499E-02
    9085.332     88.286   5.040  9.54884E-01  1.01304E+00 -5.81560E-02
    9086.875     89.829   5.080  9.49764E-01  1.01315E+00 -6.33821E-02
    9088.429     91.383   5.120  9.44156E-01  1.01323E+00 -6.90725E-02
    9089.996     92.950   5.160  9.39140E-01  1.01324E+00 -7.41016E-02
    9091.575     94.529   5.200  9.36285E-01  1.01319E+00 -7.69022E-02
    9093.166     96.120   5.240  9.37151E-01  1.01311E+00 -7.59605E-02
    9094.769     97.723   5.280  9.42709E-01  1.01299E+00 -7.02840E-02
    9096.384     99.338   5.320  9.53310E-01  1.01281E+00 -5.94957E-02
    9098.012    100.966   5.360  9.68855E-01  1.01258E+00 -4.37212E-02
    9099.652    102.606   5.400  9.88796E-01  1.01233E+00 -2.35310E-02
    9101.304    104.258   5.440  1.01202E+00  1.01201E+00  8.60308E-06
    9102.968    105.922   5.480  1.03696E+00  1.01165E+00  2.53061E-02
    9104.644    107.598   5.520  1.06155E+00  1.01126E+00  5.02903E-02
    9106.333    109.287   5.560  1.08345E+00  1.01082E+00  7.26322E-02
    9108.034    110.988   5.600  1.10055E+00  1.01034E+00  9.02123E-02
    9109.747    112.701   5.640  1.11143E+00  1.00985E+00  1.01580E-01
    9111.472    114.426   5.680  1.11556E+00  1.00932E+00  1.06233E-01
    9113.209    116.163   5.720  1.11345E+00  1.00876E+00  1.04688E-01
    9114.959    117.913   5.760  1.10648E+00  1.00817E+00  9.83120E-02
    9116.721    119.674   5.800  1.09628E+00  1.00756E+00  8.87170E-02
    9118.494    121.448   5.840  1.08403E+00  1.00693E+00  7.71015E-02
    9120.281    123.235   5.880  1.07032E+00  1.00630E+00  6.40262E-02
    9122.079    125.033   5.920  1.05534E+00  1.00566E+00  4.96766E-02
    9123.889    126.843   5.960  1.03936E+00  1.00502E+00  3.43450E-02
    9125.712    128.666   6.000  1.02264E+00  1.00436E+00  1.82785E-02
