# # comment:                                                     FEFF 9.9.1  
# # Source:
# # Structure
# # Reduced
# # space
# # abc:
# # angles:
# # sites:
# # POT  SCF 100  7.0000   0, screened core-hole, AFOLP (folp(0)= 1.150)
# # Abs   Z=29 Rmt= 1.233 Rnm= 1.301 K  shell
# # Pot 1 Z=56 Rmt= 1.944 Rnm= 1.995
# # Pot 2 Z=57 Rmt= 1.743 Rnm= 1.820
# # Pot 3 Z=29 Rmt= 1.238 Rnm= 1.318
# # Pot 4 Z= 8 Rmt= 1.078 Rnm= 1.127
# # Gam_ch=1.729E+00 H-L exch Vi= 0.000E+00 Vr= 0.000E+00
# # Mu=-9.858E+00eV kf=1.963E+00 Vint=-1.763E+01eV Rs_int= 1.847
# FMS rfms= 9.0000
# # PATH  Rmax=-1.000,  Keep_limit= 0.00, Heap_limit 0.00  Pwcrit= 2.50%
#  S02=0.950  Temp=   0.00  Debye_temp=   0.00  Global_sig2= 0.00000
#  Energy zero shift, vr, vi    0.00000E+00   0.00000E+00
#  Curved wave amplitude ratio filter   4.000%
#     file         sig2 tot  cw amp ratio   deg  nlegs   reff  inp sig2
#     0/   0 paths used
#  xsedge+ 50, used to normalize mu           2.4489E-04
#  -----------------------------------------------------------------------
#  omega    e    k    mu    mu0     chi     @#
    8985.058    -13.668  -1.000  3.32452E-02  5.38343E-02 -2.05891E-02
    8985.357    -13.369  -0.960  3.47942E-02  5.77066E-02 -2.29124E-02
    8985.644    -13.082  -0.920  3.64578E-02  6.20043E-02 -2.55465E-02
    8985.918    -12.808  -0.880  3.82511E-02  6.67892E-02 -2.85381E-02
    8986.180    -12.546  -0.840  4.01922E-02  7.21334E-02 -3.19412E-02
    8986.430    -12.296  -0.800  4.23026E-02  7.81202E-02 -3.58176E-02
    8986.668    -12.058  -0.760  4.46072E-02  8.48451E-02 -4.02379E-02
    8986.893    -11.833  -0.720  4.71351E-02  9.24159E-02 -4.52808E-02
    8987.107    -11.619  -0.680  4.99187E-02  1.00951E-01 -5.10326E-02
    8987.308    -11.418  -0.640  5.29929E-02  1.10576E-01 -5.75832E-02
    8987.497    -11.229  -0.600  5.63921E-02  1.21413E-01 -6.50209E-02
    8987.674    -11.052  -0.560  6.01451E-02  1.33566E-01 -7.34212E-02
    8987.838    -10.888  -0.520  6.42667E-02  1.47097E-01 -8.28305E-02
    8987.991    -10.735  -0.480  6.87467E-02  1.61991E-01 -9.32442E-02
    8988.131    -10.595  -0.440  7.35362E-02  1.78117E-01 -1.04581E-01
    8988.259    -10.467  -0.400  7.85378E-02  1.95197E-01 -1.16659E-01
    8988.375    -10.351  -0.360  8.36050E-02  2.12793E-01 -1.29188E-01
    8988.478    -10.248  -0.320  8.85561E-02  2.30338E-01 -1.41782E-01
    8988.570    -10.156  -0.280  9.32024E-02  2.47199E-01 -1.53997E-01
    8988.649    -10.077  -0.240  9.73802E-02  2.62768E-01 -1.65388E-01
    8988.716    -10.010  -0.200  1.00973E-01  2.76535E-01 -1.75561E-01
    8988.771     -9.955  -0.160  1.03918E-01  2.88122E-01 -1.84203E-01
    8988.813     -9.912  -0.120  1.06195E-01  2.97287E-01 -1.91092E-01
    8988.844     -9.882  -0.080  1.07808E-01  3.03894E-01 -1.96086E-01
    8988.868     -9.858   0.000  1.09099E-01  3.09205E-01 -2.00107E-01
    8988.923     -9.803   0.120  1.12076E-01  3.21186E-01 -2.09111E-01
    8988.966     -9.760   0.160  1.14235E-01  3.30491E-01 -2.16256E-01
    8989.021     -9.705   0.200  1.16917E-01  3.42412E-01 -2.25495E-01
    8989.088     -9.638   0.240  1.19998E-01  3.56759E-01 -2.36761E-01
    8989.167     -9.559   0.280  1.23371E-01  3.73284E-01 -2.49913E-01
    8989.258     -9.467   0.320  1.26916E-01  3.91571E-01 -2.64655E-01
    8989.362     -9.364   0.360  1.30585E-01  4.11101E-01 -2.80516E-01
    8989.478     -9.248   0.400  1.34399E-01  4.31367E-01 -2.96968E-01
    8989.606     -9.120   0.440  1.38472E-01  4.51884E-01 -3.13412E-01
    8989.746     -8.980   0.480  1.42868E-01  4.72215E-01 -3.29347E-01
    8989.899     -8.827   0.520  1.47696E-01  4.92161E-01 -3.44464E-01
    8990.063     -8.663   0.560  1.52748E-01  5.11569E-01 -3.58822E-01
    8990.240     -8.486   0.600  1.57666E-01  5.30407E-01 -3.72741E-01
    8990.429     -8.297   0.640  1.62056E-01  5.48725E-01 -3.86669E-01
    8990.630     -8.096   0.680  1.65896E-01  5.66607E-01 -4.00711E-01
    8990.843     -7.882   0.720  1.69733E-01  5.84088E-01 -4.14355E-01
    8991.069     -7.657   0.760  1.74510E-01  6.01262E-01 -4.26752E-01
    8991.307     -7.419   0.800  1.80968E-01  6.18193E-01 -4.37225E-01
    8991.557     -7.169   0.840  1.89258E-01  6.34913E-01 -4.45655E-01
    8991.819     -6.907   0.880  1.99063E-01  6.51500E-01 -4.52438E-01
    8992.093     -6.633   0.920  2.10075E-01  6.67919E-01 -4.57843E-01
    8992.380     -6.346   0.960  2.22787E-01  6.84223E-01 -4.61436E-01
    8992.678     -6.048   1.000  2.38357E-01  7.00376E-01 -4.62019E-01
    8992.989     -5.737   1.040  2.57568E-01  7.16393E-01 -4.58825E-01
    8993.312     -5.414   1.080  2.79142E-01  7.32221E-01 -4.53080E-01
    8993.648     -5.078   1.120  3.00223E-01  7.47863E-01 -4.47640E-01
    8993.995     -4.731   1.160  3.19504E-01  7.63296E-01 -4.43792E-01
    8994.355     -4.371   1.200  3.38306E-01  7.78454E-01 -4.40148E-01
    8994.727     -3.999   1.240  3.58343E-01  7.93329E-01 -4.34986E-01
    8995.111     -3.615   1.280  3.81033E-01  8.07891E-01 -4.26858E-01
    8995.507     -3.219   1.320  4.08737E-01  8.22068E-01 -4.13331E-01
    8995.915     -2.811   1.360  4.45935E-01  8.35868E-01 -3.89934E-01
    8996.336     -2.390   1.400  4.97598E-01  8.49241E-01 -3.51643E-01
    8996.769     -1.957   1.440  5.62308E-01  8.62176E-01 -2.99868E-01
    8997.214     -1.512   1.480  6.31247E-01  8.74618E-01 -2.43372E-01
    8997.671     -1.055   1.520  7.04006E-01  8.86542E-01 -1.82536E-01
    8998.140     -0.586   1.560  7.92742E-01  8.97960E-01 -1.05217E-01
    8998.622     -0.104   1.600  9.02824E-01  9.08822E-01 -5.99834E-03
    8999.116      0.390   1.640  1.02840E+00  9.19126E-01  1.09279E-01
    8999.622      0.896   1.680  1.17017E+00  9.28868E-01  2.41300E-01
    9000.140      1.414   1.720  1.34460E+00  9.38025E-01  4.06578E-01
    9000.670      1.944   1.760  1.56920E+00  9.46618E-01  6.22578E-01
    9001.213      2.487   1.800  1.79475E+00  9.54630E-01  8.40116E-01
    9001.767      3.041   1.840  1.88908E+00  9.62081E-01  9.27003E-01
    9002.334      3.608   1.880  1.79333E+00  9.68979E-01  8.24348E-01
    9002.913      4.188   1.920  1.58993E+00  9.75308E-01  6.14623E-01
    9003.505      4.779   1.960  1.38359E+00  9.81095E-01  4.02498E-01
    9004.108      5.382   2.000  1.22399E+00  9.86368E-01  2.37619E-01
    9004.724      5.998   2.040  1.11513E+00  9.91138E-01  1.23995E-01
    9005.352      6.626   2.080  1.05294E+00  9.95390E-01  5.75450E-02
    9005.992      7.266   2.120  1.03156E+00  9.99200E-01  3.23626E-02
    9006.644      7.918   2.160  1.04418E+00  1.00256E+00  4.16228E-02
    9007.309      8.583   2.200  1.08056E+00  1.00547E+00  7.50911E-02
    9007.985      9.259   2.240  1.11368E+00  1.00800E+00  1.05681E-01
    9008.674      9.948   2.280  1.11012E+00  1.01015E+00  9.99736E-02
    9009.375     10.649   2.320  1.08233E+00  1.01193E+00  7.03976E-02
    9010.088     11.362   2.360  1.07065E+00  1.01338E+00  5.72720E-02
    9010.814     12.088   2.400  1.08689E+00  1.01451E+00  7.23742E-02
    9011.551     12.826   2.440  1.10519E+00  1.01537E+00  8.98190E-02
    9012.301     13.575   2.480  1.12009E+00  1.01598E+00  1.04115E-01
    9013.063     14.337   2.520  1.13298E+00  1.01632E+00  1.16663E-01
    9013.837     15.112   2.560  1.14056E+00  1.01644E+00  1.24118E-01
    9014.624     15.898   2.600  1.13714E+00  1.01638E+00  1.20758E-01
    9015.422     16.696   2.640  1.11948E+00  1.01613E+00  1.03345E-01
    9016.233     17.507   2.680  1.08908E+00  1.01574E+00  7.33422E-02
    9017.056     18.330   2.720  1.05156E+00  1.01519E+00  3.63705E-02
    9017.891     19.165   2.760  1.01338E+00  1.01452E+00 -1.14451E-03
    9018.739     20.013   2.800  9.77460E-01  1.01376E+00 -3.62961E-02
    9019.598     20.872   2.840  9.44422E-01  1.01288E+00 -6.84608E-02
    9020.470     21.744   2.880  9.13966E-01  1.01195E+00 -9.79847E-02
    9021.354     22.628   2.920  8.85631E-01  1.01097E+00 -1.25336E-01
    9022.250     23.524   2.960  8.60001E-01  1.00992E+00 -1.49916E-01
    9023.158     24.432   3.000  8.38525E-01  1.00885E+00 -1.70325E-01
    9024.079     25.353   3.040  8.22188E-01  1.00775E+00 -1.85562E-01
    9025.011     26.285   3.080  8.11518E-01  1.00664E+00 -1.95123E-01
    9025.956     27.230   3.120  8.06575E-01  1.00551E+00 -1.98935E-01
    9026.913     28.187   3.160  8.06797E-01  1.00442E+00 -1.97626E-01
    9027.883     29.157   3.200  8.11373E-01  1.00332E+00 -1.91948E-01
    9028.864     30.138   3.240  8.19540E-01  1.00225E+00 -1.82710E-01
    9029.858     31.132   3.280  8.30307E-01  1.00122E+00 -1.70909E-01
    9030.864     32.138   3.320  8.42721E-01  1.00022E+00 -1.57499E-01
    9031.882     33.156   3.360  8.56290E-01  9.99267E-01 -1.42977E-01
    9032.912     34.186   3.400  8.71013E-01  9.98376E-01 -1.27363E-01
    9033.954     35.228   3.440  8.86940E-01  9.97511E-01 -1.10571E-01
    9035.009     36.283   3.480  9.04419E-01  9.96713E-01 -9.22940E-02
    9036.076     37.350   3.520  9.23521E-01  9.95984E-01 -7.24622E-02
    9037.155     38.429   3.560  9.43903E-01  9.95304E-01 -5.14017E-02
    9038.246     39.520   3.600  9.64901E-01  9.94675E-01 -2.97739E-02
    9039.349     40.623   3.640  9.86129E-01  9.94119E-01 -7.98997E-03
    9040.465     41.739   3.680  1.00732E+00  9.93639E-01  1.36854E-02
    9041.592     42.866   3.720  1.02798E+00  9.93232E-01  3.47487E-02
    9042.732     44.006   3.760  1.04707E+00  9.92878E-01  5.41956E-02
    9043.885     45.159   3.800  1.06288E+00  9.92600E-01  7.02805E-02
    9045.049     46.323   3.840  1.07349E+00  9.92396E-01  8.10904E-02
    9046.225     47.499   3.880  1.07794E+00  9.92246E-01  8.56993E-02
    9047.414     48.688   3.920  1.07680E+00  9.92189E-01  8.46086E-02
    9048.615     49.889   3.960  1.07157E+00  9.92163E-01  7.94048E-02
    9049.828     51.102   4.000  1.06435E+00  9.92208E-01  7.21380E-02
    9051.053     52.327   4.040  1.05708E+00  9.92324E-01  6.47586E-02
    9052.291     53.565   4.080  1.05105E+00  9.92491E-01  5.85584E-02
    9053.541     54.815   4.120  1.04675E+00  9.92726E-01  5.40261E-02
    9054.802     56.076   4.160  1.04410E+00  9.93008E-01  5.10944E-02
    9056.076     57.351   4.200  1.04292E+00  9.93336E-01  4.95853E-02
    9057.363     58.637   4.240  1.04335E+00  9.93730E-01  4.96175E-02
    9058.661     59.935   4.280  1.04578E+00  9.94165E-01  5.16200E-02
    9059.972     61.246   4.320  1.05070E+00  9.94617E-01  5.60838E-02
    9061.295     62.569   4.360  1.05808E+00  9.95129E-01  6.29505E-02
    9062.630     63.904   4.400  1.06710E+00  9.95657E-01  7.14406E-02
    9063.977     65.251   4.440  1.07633E+00  9.96220E-01  8.01140E-02
    9065.336     66.610   4.480  1.08393E+00  9.96818E-01  8.71115E-02
    9066.708     67.982   4.520  1.08799E+00  9.97446E-01  9.05436E-02
    9068.092     69.366   4.560  1.08705E+00  9.98061E-01  8.89860E-02
    9069.488     70.762   4.600  1.08053E+00  9.98726E-01  8.18047E-02
    9070.896     72.170   4.640  1.06881E+00  9.99373E-01  6.94419E-02
    9072.316     73.590   4.680  1.05335E+00  1.00004E+00  5.33083E-02
    9073.749     75.023   4.720  1.03600E+00  1.00072E+00  3.52837E-02
    9075.193     76.468   4.760  1.01854E+00  1.00137E+00  1.71742E-02
    9076.650     77.924   4.800  1.00237E+00  1.00203E+00  3.36755E-04
    9078.119     79.394   4.840  9.88126E-01  1.00270E+00 -1.45717E-02
    9079.601     80.875   4.880  9.75916E-01  1.00333E+00 -2.74154E-02
    9081.094     82.368   4.920  9.65669E-01  1.00394E+00 -3.82661E-02
    9082.600     83.874   4.960  9.57342E-01  1.00455E+00 -4.72079E-02
    9084.118     85.392   5.000  9.50807E-01  1.00511E+00 -5.43021E-02
    9085.648     86.922   5.040  9.45923E-01  1.00566E+00 -5.97318E-02
    9087.190     88.464   5.080  9.42425E-01  1.00617E+00 -6.37413E-02
    9088.745     90.019   5.120  9.40196E-01  1.00666E+00 -6.64682E-02
    9090.311     91.586   5.160  9.39298E-01  1.00712E+00 -6.78239E-02
    9091.890     93.164   5.200  9.40005E-01  1.00752E+00 -6.75123E-02
    9093.481     94.755   5.240  9.42551E-01  1.00789E+00 -6.53429E-02
    9095.085     96.359   5.280  9.46904E-01  1.00823E+00 -6.13263E-02
    9096.700     97.974   5.320  9.52837E-01  1.00852E+00 -5.56865E-02
    9098.328     99.602   5.360  9.60085E-01  1.00875E+00 -4.86669E-02
    9099.967    101.242   5.400  9.68135E-01  1.00896E+00 -4.08217E-02
    9101.619    102.894   5.440  9.76190E-01  1.00910E+00 -3.29066E-02
    9103.284    104.558   5.480  9.83245E-01  1.00919E+00 -2.59454E-02
    9104.960    106.234   5.520  9.88416E-01  1.00924E+00 -2.08263E-02
    9106.649    107.923   5.560  9.91216E-01  1.00925E+00 -1.80343E-02
    9108.349    109.624   5.600  9.91514E-01  1.00921E+00 -1.76990E-02
    9110.062    111.336   5.640  9.89416E-01  1.00911E+00 -1.96915E-02
    9111.788    113.062   5.680  9.85756E-01  1.00896E+00 -2.32015E-02
    9113.525    114.799   5.720  9.81796E-01  1.00876E+00 -2.69687E-02
    9115.274    116.549   5.760  9.78942E-01  1.00853E+00 -2.95894E-02
    9117.036    118.310   5.800  9.78209E-01  1.00826E+00 -3.00494E-02
    9118.810    120.084   5.840  9.79970E-01  1.00794E+00 -2.79751E-02
    9120.596    121.870   5.880  9.84045E-01  1.00759E+00 -2.35465E-02
    9122.395    123.669   5.920  9.90029E-01  1.00718E+00 -1.71480E-02
    9124.205    125.479   5.960  9.97752E-01  1.00675E+00 -8.99806E-03
    9126.028    127.302   6.000  1.00738E+00  1.00626E+00  1.12219E-03
