# # comment:                                                     FEFF 9.9.1  
# # Source:
# # Structure
# # Reduced
# # space
# # abc:
# # angles:
# # sites:
# # POT  SCF 100  7.0000   0, screened core-hole, AFOLP (folp(0)= 1.150)
# # Abs   Z=29 Rmt= 1.121 Rnm= 1.317 K  shell
# # Pot 1 Z=56 Rmt= 1.970 Rnm= 2.024
# # Pot 2 Z=67 Rmt= 1.633 Rnm= 1.710
# # Pot 3 Z=29 Rmt= 1.121 Rnm= 1.317
# # Pot 4 Z= 8 Rmt= 1.074 Rnm= 1.132
# # Gam_ch=1.729E+00 H-L exch Vi= 0.000E+00 Vr= 0.000E+00
# # Mu=-8.688E+00eV kf=1.979E+00 Vint=-1.690E+01eV Rs_int= 1.832
# FMS rfms= 9.0000
# # PATH  Rmax=-1.000,  Keep_limit= 0.00, Heap_limit 0.00  Pwcrit= 2.50%
#  S02=0.950  Temp=   0.00  Debye_temp=   0.00  Global_sig2= 0.00000
#  Energy zero shift, vr, vi    0.00000E+00   0.00000E+00
#  Curved wave amplitude ratio filter   4.000%
#     file         sig2 tot  cw amp ratio   deg  nlegs   reff  inp sig2
#     0/   0 paths used
#  xsedge+ 50, used to normalize mu           2.4557E-04
#  -----------------------------------------------------------------------
#  omega    e    k    mu    mu0     chi     @#
    8984.710    -12.497  -1.000  4.11245E-02  5.46832E-02 -1.35587E-02
    8985.009    -12.199  -0.960  4.35513E-02  5.86373E-02 -1.50859E-02
    8985.295    -11.912  -0.920  4.62056E-02  6.30277E-02 -1.68221E-02
    8985.570    -11.638  -0.880  4.91185E-02  6.79181E-02 -1.87996E-02
    8985.832    -11.376  -0.840  5.23267E-02  7.33828E-02 -2.10561E-02
    8986.082    -11.126  -0.800  5.58727E-02  7.95076E-02 -2.36349E-02
    8986.319    -10.888  -0.760  5.98054E-02  8.63910E-02 -2.65856E-02
    8986.545    -10.663  -0.720  6.41804E-02  9.41441E-02 -2.99638E-02
    8986.758    -10.449  -0.680  6.90588E-02  1.02889E-01 -3.38305E-02
    8986.959    -10.248  -0.640  7.45056E-02  1.12756E-01 -3.82499E-02
    8987.148    -10.059  -0.600  8.05845E-02  1.23869E-01 -4.32848E-02
    8987.325     -9.882  -0.560  8.73495E-02  1.36338E-01 -4.89890E-02
    8987.490     -9.718  -0.520  9.48316E-02  1.50227E-01 -5.53950E-02
    8987.642     -9.565  -0.480  1.03021E-01  1.65519E-01 -6.24978E-02
    8987.782     -9.425  -0.440  1.11845E-01  1.82081E-01 -7.02356E-02
    8987.910     -9.297  -0.400  1.21153E-01  1.99626E-01 -7.84734E-02
    8988.026     -9.181  -0.360  1.30707E-01  2.17704E-01 -8.69973E-02
    8988.130     -9.078  -0.320  1.40201E-01  2.35729E-01 -9.55275E-02
    8988.221     -8.986  -0.280  1.49301E-01  2.53051E-01 -1.03750E-01
    8988.301     -8.907  -0.240  1.57683E-01  2.69044E-01 -1.11360E-01
    8988.368     -8.840  -0.200  1.65082E-01  2.83181E-01 -1.18100E-01
    8988.422     -8.785  -0.160  1.71300E-01  2.95079E-01 -1.23778E-01
    8988.465     -8.742  -0.120  1.76212E-01  3.04487E-01 -1.28275E-01
    8988.496     -8.712  -0.080  1.79743E-01  3.11267E-01 -1.31523E-01
    8988.520     -8.688   0.000  1.82567E-01  3.16715E-01 -1.34148E-01
    8988.575     -8.633   0.120  1.89216E-01  3.29025E-01 -1.39809E-01
    8988.618     -8.590   0.160  1.94317E-01  3.38578E-01 -1.44261E-01
    8988.672     -8.535   0.200  2.00802E-01  3.50777E-01 -1.49975E-01
    8988.739     -8.468   0.240  2.08611E-01  3.65487E-01 -1.56875E-01
    8988.819     -8.389   0.280  2.17536E-01  3.82404E-01 -1.64867E-01
    8988.910     -8.297   0.320  2.27312E-01  4.01114E-01 -1.73802E-01
    8989.014     -8.194   0.360  2.37549E-01  4.21080E-01 -1.83531E-01
    8989.130     -8.078   0.400  2.47728E-01  4.41751E-01 -1.94023E-01
    8989.258     -7.950   0.440  2.57260E-01  4.62624E-01 -2.05364E-01
    8989.398     -7.810   0.480  2.65494E-01  4.83287E-01 -2.17792E-01
    8989.550     -7.657   0.520  2.71930E-01  5.03492E-01 -2.31561E-01
    8989.715     -7.493   0.560  2.76425E-01  5.23083E-01 -2.46658E-01
    8989.892     -7.316   0.600  2.79540E-01  5.42067E-01 -2.62527E-01
    8990.081     -7.127   0.640  2.82526E-01  5.60458E-01 -2.77932E-01
    8990.282     -6.926   0.680  2.87246E-01  5.78345E-01 -2.91099E-01
    8990.495     -6.712   0.720  2.95594E-01  5.95808E-01 -3.00215E-01
    8990.721     -6.487   0.760  3.08878E-01  6.12927E-01 -3.04049E-01
    8990.958     -6.249   0.800  3.27154E-01  6.29752E-01 -3.02598E-01
    8991.208     -5.999   0.840  3.48688E-01  6.46379E-01 -2.97691E-01
    8991.470     -5.737   0.880  3.69961E-01  6.62790E-01 -2.92828E-01
    8991.745     -5.463   0.920  3.87988E-01  6.79076E-01 -2.91087E-01
    8992.031     -5.176   0.960  4.03381E-01  6.95193E-01 -2.91812E-01
    8992.330     -4.878   1.000  4.21164E-01  7.11190E-01 -2.90026E-01
    8992.641     -4.567   1.040  4.47307E-01  7.27024E-01 -2.79717E-01
    8992.964     -4.244   1.080  4.86194E-01  7.42685E-01 -2.56491E-01
    8993.299     -3.908   1.120  5.42071E-01  7.58158E-01 -2.16087E-01
    8993.647     -3.561   1.160  6.21240E-01  7.73424E-01 -1.52184E-01
    8994.006     -3.201   1.200  7.27258E-01  7.88459E-01 -6.12010E-02
    8994.378     -2.829   1.240  8.42636E-01  8.03216E-01  3.94206E-02
    8994.762     -2.445   1.280  9.15263E-01  8.17644E-01  9.76194E-02
    8995.159     -2.049   1.320  9.04234E-01  8.31754E-01  7.24796E-02
    8995.567     -1.641   1.360  8.40481E-01  8.45475E-01 -4.99429E-03
    8995.988     -1.220   1.400  7.93269E-01  8.58798E-01 -6.55292E-02
    8996.420     -0.787   1.440  7.99835E-01  8.71690E-01 -7.18541E-02
    8996.865     -0.342   1.480  8.38530E-01  8.84100E-01 -4.55705E-02
    8997.323      0.115   1.520  8.46711E-01  8.96040E-01 -4.93297E-02
    8997.792      0.584   1.560  8.01525E-01  9.07461E-01 -1.05936E-01
    8998.274      1.066   1.600  7.39637E-01  9.18375E-01 -1.78739E-01
    8998.767      1.560   1.640  6.96511E-01  9.28717E-01 -2.32207E-01
    8999.273      2.066   1.680  6.84865E-01  9.38523E-01 -2.53658E-01
    8999.791      2.584   1.720  7.02132E-01  9.47749E-01 -2.45618E-01
    9000.322      3.114   1.760  7.37186E-01  9.56435E-01 -2.19249E-01
    9000.864      3.657   1.800  7.80094E-01  9.64521E-01 -1.84428E-01
    9001.419      4.212   1.840  8.44748E-01  9.72050E-01 -1.27302E-01
    9001.986      4.779   1.880  9.47763E-01  9.79024E-01 -3.12608E-02
    9002.565      5.358   1.920  1.06501E+00  9.85448E-01  7.95588E-02
    9003.156      5.949   1.960  1.13787E+00  9.91308E-01  1.46566E-01
    9003.760      6.552   2.000  1.14657E+00  9.96651E-01  1.49921E-01
    9004.376      7.168   2.040  1.12409E+00  1.00146E+00  1.22632E-01
    9005.004      7.796   2.080  1.10590E+00  1.00578E+00  1.00121E-01
    9005.644      8.436   2.120  1.10404E+00  1.00962E+00  9.44189E-02
    9006.296      9.088   2.160  1.11125E+00  1.01298E+00  9.82676E-02
    9006.960      9.753   2.200  1.11557E+00  1.01592E+00  9.96559E-02
    9007.637     10.429   2.240  1.11483E+00  1.01841E+00  9.64147E-02
    9008.326     11.118   2.280  1.12135E+00  1.02054E+00  1.00807E-01
    9009.027     11.819   2.320  1.14923E+00  1.02226E+00  1.26978E-01
    9009.740     12.533   2.360  1.19829E+00  1.02365E+00  1.74638E-01
    9010.466     13.258   2.400  1.25288E+00  1.02469E+00  2.28191E-01
    9011.203     13.996   2.440  1.28934E+00  1.02543E+00  2.63902E-01
    9011.953     14.745   2.480  1.29668E+00  1.02591E+00  2.70768E-01
    9012.715     15.507   2.520  1.27371E+00  1.02611E+00  2.47593E-01
    9013.489     16.282   2.560  1.22769E+00  1.02607E+00  2.01619E-01
    9014.276     17.068   2.600  1.17141E+00  1.02579E+00  1.45616E-01
    9015.074     17.867   2.640  1.11566E+00  1.02535E+00  9.03108E-02
    9015.885     18.677   2.680  1.06722E+00  1.02470E+00  4.25165E-02
    9016.708     19.500   2.720  1.02978E+00  1.02391E+00  5.87184E-03
    9017.543     20.335   2.760  1.00405E+00  1.02298E+00 -1.89276E-02
    9018.390     21.183   2.800  9.88930E-01  1.02193E+00 -3.29998E-02
    9019.250     22.042   2.840  9.83123E-01  1.02076E+00 -3.76412E-02
    9020.122     22.914   2.880  9.84826E-01  1.01951E+00 -3.46872E-02
    9021.005     23.798   2.920  9.91078E-01  1.01820E+00 -2.71252E-02
    9021.902     24.694   2.960  9.98971E-01  1.01682E+00 -1.78506E-02
    9022.810     25.602   3.000  1.00632E+00  1.01539E+00 -9.07785E-03
    9023.730     26.523   3.040  1.01220E+00  1.01393E+00 -1.72457E-03
    9024.663     27.456   3.080  1.01668E+00  1.01243E+00  4.24831E-03
    9025.608     28.400   3.120  1.02002E+00  1.01094E+00  9.07801E-03
    9026.565     29.357   3.160  1.02185E+00  1.00944E+00  1.24125E-02
    9027.534     30.327   3.200  1.02113E+00  1.00795E+00  1.31715E-02
    9028.516     31.308   3.240  1.01670E+00  1.00650E+00  1.02015E-02
    9029.509     32.302   3.280  1.00797E+00  1.00506E+00  2.91167E-03
    9030.515     33.308   3.320  9.95077E-01  1.00363E+00 -8.55641E-03
    9031.533     34.326   3.360  9.78923E-01  1.00227E+00 -2.33442E-02
    9032.563     35.356   3.400  9.60992E-01  1.00094E+00 -3.99517E-02
    9033.606     36.398   3.440  9.43063E-01  9.99687E-01 -5.66246E-02
    9034.660     37.453   3.480  9.26780E-01  9.98479E-01 -7.16991E-02
    9035.727     38.520   3.520  9.13410E-01  9.97320E-01 -8.39096E-02
    9036.806     39.599   3.560  9.03659E-01  9.96232E-01 -9.25731E-02
    9037.897     40.690   3.600  8.97634E-01  9.95218E-01 -9.75844E-02
    9039.001     41.793   3.640  8.95175E-01  9.94259E-01 -9.90846E-02
    9040.116     42.909   3.680  8.96166E-01  9.93377E-01 -9.72107E-02
    9041.244     44.037   3.720  9.00330E-01  9.92594E-01 -9.22642E-02
    9042.384     45.177   3.760  9.07042E-01  9.91869E-01 -8.48266E-02
    9043.536     46.329   3.800  9.15300E-01  9.91220E-01 -7.59200E-02
    9044.701     47.493   3.840  9.23915E-01  9.90650E-01 -6.67348E-02
    9045.877     48.670   3.880  9.32076E-01  9.90138E-01 -5.80612E-02
    9047.066     49.858   3.920  9.39888E-01  9.89726E-01 -4.98386E-02
    9048.267     51.059   3.960  9.47976E-01  9.89395E-01 -4.14188E-02
    9049.480     52.272   4.000  9.56976E-01  9.89142E-01 -3.21658E-02
    9050.705     53.498   4.040  9.67070E-01  9.88946E-01 -2.18756E-02
    9051.943     54.735   4.080  9.77910E-01  9.88847E-01 -1.09368E-02
    9053.192     55.985   4.120  9.88502E-01  9.88804E-01 -3.01761E-04
    9054.454     57.247   4.160  9.97500E-01  9.88836E-01  8.66422E-03
    9055.728     58.521   4.200  1.00345E+00  9.88921E-01  1.45295E-02
    9057.014     59.807   4.240  1.00543E+00  9.89101E-01  1.63283E-02
    9058.313     61.105   4.280  1.00342E+00  9.89311E-01  1.41117E-02
    9059.623     62.416   4.320  9.98658E-01  9.89613E-01  9.04516E-03
    9060.946     63.739   4.360  9.92997E-01  9.89964E-01  3.03311E-03
    9062.281     65.074   4.400  9.88508E-01  9.90359E-01 -1.85164E-03
    9063.629     66.421   4.440  9.86932E-01  9.90798E-01 -3.86598E-03
    9064.988     67.780   4.480  9.89501E-01  9.91279E-01 -1.77754E-03
    9066.360     69.152   4.520  9.96857E-01  9.91824E-01  5.03315E-03
    9067.743     70.536   4.560  1.00879E+00  9.92388E-01  1.63996E-02
    9069.139     71.932   4.600  1.02404E+00  9.93011E-01  3.10256E-02
    9070.547     73.340   4.640  1.03996E+00  9.93648E-01  4.63121E-02
    9071.968     74.760   4.680  1.05316E+00  9.94318E-01  5.88426E-02
    9073.400     76.193   4.720  1.06048E+00  9.94997E-01  6.54791E-02
    9074.845     77.638   4.760  1.06038E+00  9.95706E-01  6.46744E-02
    9076.302     79.095   4.800  1.05369E+00  9.96422E-01  5.72714E-02
    9077.771     80.564   4.840  1.04315E+00  9.97163E-01  4.59868E-02
    9079.253     82.045   4.880  1.03186E+00  9.97885E-01  3.39795E-02
    9080.746     83.538   4.920  1.02239E+00  9.98627E-01  2.37660E-02
    9082.252     85.044   4.960  1.01617E+00  9.99347E-01  1.68273E-02
    9083.770     86.562   5.000  1.01364E+00  1.00008E+00  1.35529E-02
    9085.300     88.092   5.040  1.01427E+00  1.00079E+00  1.34753E-02
    9086.842     89.634   5.080  1.01719E+00  1.00147E+00  1.57226E-02
    9088.396     91.189   5.120  1.02169E+00  1.00216E+00  1.95265E-02
    9089.963     92.756   5.160  1.02706E+00  1.00280E+00  2.42637E-02
    9091.542     94.334   5.200  1.03247E+00  1.00342E+00  2.90491E-02
    9093.133     95.926   5.240  1.03638E+00  1.00401E+00  3.23761E-02
    9094.736     97.529   5.280  1.03715E+00  1.00458E+00  3.25686E-02
    9096.352     99.144   5.320  1.03406E+00  1.00509E+00  2.89702E-02
    9097.979    100.772   5.360  1.02811E+00  1.00558E+00  2.25275E-02
    9099.619    102.412   5.400  1.02121E+00  1.00601E+00  1.52002E-02
    9101.271    104.064   5.440  1.01455E+00  1.00642E+00  8.13438E-03
    9102.935    105.728   5.480  1.00826E+00  1.00676E+00  1.50079E-03
    9104.612    107.404   5.520  1.00226E+00  1.00706E+00 -4.79839E-03
    9106.300    109.093   5.560  9.96852E-01  1.00731E+00 -1.04588E-02
    9108.001    110.794   5.600  9.92684E-01  1.00752E+00 -1.48346E-02
    9109.714    112.507   5.640  9.90337E-01  1.00766E+00 -1.73189E-02
    9111.439    114.232   5.680  9.90128E-01  1.00775E+00 -1.76174E-02
    9113.177    115.969   5.720  9.91604E-01  1.00777E+00 -1.61627E-02
    9114.926    117.719   5.760  9.93689E-01  1.00776E+00 -1.40744E-02
    9116.688    119.480   5.800  9.94794E-01  1.00767E+00 -1.28749E-02
    9118.462    121.254   5.840  9.94051E-01  1.00755E+00 -1.35000E-02
    9120.248    123.040   5.880  9.91476E-01  1.00737E+00 -1.58910E-02
    9122.046    124.839   5.920  9.87565E-01  1.00714E+00 -1.95704E-02
    9123.857    126.649   5.960  9.82793E-01  1.00683E+00 -2.40369E-02
    9125.679    128.472   6.000  9.77966E-01  1.00644E+00 -2.84714E-02
