# # comment:                                                     FEFF 9.9.1  
# # Source:
# # Structure
# # Reduced
# # space
# # abc:
# # angles:
# # sites:
# # POT  SCF 100  7.0000   0, screened core-hole, AFOLP (folp(0)= 1.150)
# # Abs   Z=29 Rmt= 1.247 Rnm= 1.321 K  shell
# # Pot 1 Z=23 Rmt= 1.092 Rnm= 1.305
# # Pot 2 Z=30 Rmt= 1.322 Rnm= 1.419
# # Pot 3 Z=29 Rmt= 1.247 Rnm= 1.322
# # Pot 4 Z= 8 Rmt= 0.926 Rnm= 1.091
# # Gam_ch=1.729E+00 H-L exch Vi= 0.000E+00 Vr= 0.000E+00
# # Mu=-9.003E+00eV kf=2.264E+00 Vint=-1.733E+01eV Rs_int= 1.602
# FMS rfms= 9.0000
# # PATH  Rmax=-1.000,  Keep_limit= 0.00, Heap_limit 0.00  Pwcrit= 2.50%
#  S02=0.950  Temp=   0.00  Debye_temp=   0.00  Global_sig2= 0.00000
#  Energy zero shift, vr, vi    0.00000E+00   0.00000E+00
#  Curved wave amplitude ratio filter   4.000%
#     file         sig2 tot  cw amp ratio   deg  nlegs   reff  inp sig2
#     0/   0 paths used
#  xsedge+ 50, used to normalize mu           2.4759E-04
#  -----------------------------------------------------------------------
#  omega    e    k    mu    mu0     chi     @#
    8984.103    -12.813  -1.000  3.55262E-02  5.02416E-02 -1.47154E-02
    8984.402    -12.514  -0.960  3.74307E-02  5.37902E-02 -1.63595E-02
    8984.688    -12.228  -0.920  3.95025E-02  5.77253E-02 -1.82228E-02
    8984.963    -11.954  -0.880  4.17647E-02  6.21033E-02 -2.03387E-02
    8985.225    -11.691  -0.840  4.42440E-02  6.69897E-02 -2.27456E-02
    8985.475    -11.442  -0.800  4.69717E-02  7.24600E-02 -2.54883E-02
    8985.713    -11.204  -0.760  4.99835E-02  7.86012E-02 -2.86177E-02
    8985.938    -10.978  -0.720  5.33200E-02  8.55114E-02 -3.21914E-02
    8986.151    -10.765  -0.680  5.70258E-02  9.32982E-02 -3.62724E-02
    8986.353    -10.564  -0.640  6.11480E-02  1.02076E-01 -4.09276E-02
    8986.542    -10.375  -0.600  6.57327E-02  1.11955E-01 -4.62221E-02
    8986.718    -10.198  -0.560  7.08190E-02  1.23031E-01 -5.22119E-02
    8986.883    -10.033  -0.520  7.64294E-02  1.35360E-01 -5.89302E-02
    8987.035     -9.881  -0.480  8.25571E-02  1.48927E-01 -6.63702E-02
    8987.176     -9.741  -0.440  8.91508E-02  1.63615E-01 -7.44643E-02
    8987.304     -9.613  -0.400  9.61020E-02  1.79169E-01 -8.30672E-02
    8987.419     -9.497  -0.360  1.03240E-01  1.95191E-01 -9.19507E-02
    8987.523     -9.393  -0.320  1.10344E-01  2.11163E-01 -1.00819E-01
    8987.615     -9.302  -0.280  1.17166E-01  2.26511E-01 -1.09344E-01
    8987.694     -9.223  -0.240  1.23466E-01  2.40679E-01 -1.17213E-01
    8987.761     -9.156  -0.200  1.29041E-01  2.53205E-01 -1.24164E-01
    8987.816     -9.101  -0.160  1.33741E-01  2.63746E-01 -1.30004E-01
    8987.858     -9.058  -0.120  1.37469E-01  2.72082E-01 -1.34613E-01
    8987.889     -9.028  -0.080  1.40168E-01  2.78089E-01 -1.37922E-01
    8987.913     -9.003   0.000  1.42358E-01  2.82918E-01 -1.40560E-01
    8987.968     -8.948   0.120  1.47144E-01  2.93824E-01 -1.46680E-01
    8988.011     -8.906   0.160  1.50845E-01  3.02284E-01 -1.51439E-01
    8988.066     -8.851   0.200  1.55582E-01  3.13108E-01 -1.57526E-01
    8988.133     -8.784   0.240  1.61300E-01  3.26156E-01 -1.64856E-01
    8988.212     -8.704   0.280  1.67877E-01  3.41161E-01 -1.73284E-01
    8988.303     -8.613   0.320  1.75180E-01  3.57758E-01 -1.82579E-01
    8988.407     -8.509   0.360  1.83035E-01  3.75491E-01 -1.92455E-01
    8988.523     -8.394   0.400  1.91258E-01  3.93854E-01 -2.02596E-01
    8988.651     -8.266   0.440  1.99748E-01  4.12424E-01 -2.12676E-01
    8988.791     -8.125   0.480  2.08478E-01  4.30837E-01 -2.22359E-01
    8988.943     -7.973   0.520  2.17481E-01  4.48878E-01 -2.31397E-01
    8989.108     -7.808   0.560  2.26825E-01  4.66425E-01 -2.39600E-01
    8989.285     -7.632   0.600  2.36394E-01  4.83449E-01 -2.47056E-01
    8989.474     -7.443   0.640  2.45769E-01  5.00021E-01 -2.54252E-01
    8989.675     -7.241   0.680  2.54044E-01  5.16183E-01 -2.62139E-01
    8989.888     -7.028   0.720  2.60222E-01  5.32026E-01 -2.71804E-01
    8990.114     -6.803   0.760  2.63781E-01  5.47642E-01 -2.83861E-01
    8990.352     -6.565   0.800  2.64965E-01  5.63072E-01 -2.98107E-01
    8990.602     -6.315   0.840  2.64838E-01  5.78389E-01 -3.13551E-01
    8990.864     -6.053   0.880  2.64755E-01  5.93610E-01 -3.28855E-01
    8991.138     -5.778   0.920  2.65916E-01  6.08802E-01 -3.42886E-01
    8991.424     -5.492   0.960  2.68587E-01  6.23944E-01 -3.55356E-01
    8991.723     -5.193   1.000  2.72567E-01  6.39060E-01 -3.66493E-01
    8992.034     -4.882   1.040  2.78161E-01  6.54171E-01 -3.76010E-01
    8992.357     -4.559   1.080  2.86774E-01  6.69228E-01 -3.82455E-01
    8992.692     -4.224   1.120  2.99919E-01  6.84236E-01 -3.84318E-01
    8993.040     -3.876   1.160  3.18418E-01  6.99179E-01 -3.80761E-01
    8993.400     -3.517   1.200  3.43279E-01  7.14033E-01 -3.70754E-01
    8993.771     -3.145   1.240  3.75114E-01  7.28753E-01 -3.53639E-01
    8994.155     -2.761   1.280  4.12655E-01  7.43332E-01 -3.30676E-01
    8994.552     -2.365   1.320  4.53606E-01  7.57719E-01 -3.04113E-01
    8994.960     -1.956   1.360  4.97672E-01  7.71884E-01 -2.74212E-01
    8995.381     -1.536   1.400  5.46181E-01  7.85815E-01 -2.39634E-01
    8995.814     -1.103   1.440  5.99295E-01  7.99460E-01 -2.00165E-01
    8996.259     -0.658   1.480  6.56752E-01  8.12808E-01 -1.56056E-01
    8996.716     -0.201   1.520  7.20313E-01  8.25827E-01 -1.05514E-01
    8997.185      0.269   1.560  7.96605E-01  8.38485E-01 -4.18800E-02
    8997.667      0.750   1.600  8.92621E-01  8.50731E-01  4.18902E-02
    8998.161      1.244   1.640  1.00234E+00  8.62575E-01  1.39763E-01
    8998.667      1.750   1.680  1.10024E+00  8.74010E-01  2.26228E-01
    8999.185      2.268   1.720  1.16587E+00  8.84966E-01  2.80903E-01
    8999.715      2.799   1.760  1.20536E+00  8.95476E-01  3.09884E-01
    9000.258      3.341   1.800  1.22922E+00  9.05496E-01  3.23727E-01
    9000.812      3.896   1.840  1.24142E+00  9.15022E-01  3.26396E-01
    9001.379      4.463   1.880  1.24978E+00  9.24071E-01  3.25710E-01
    9001.958      5.042   1.920  1.26062E+00  9.32600E-01  3.28021E-01
    9002.550      5.633   1.960  1.27067E+00  9.40651E-01  3.30023E-01
    9003.153      6.237   2.000  1.27746E+00  9.48183E-01  3.29274E-01
    9003.769      6.852   2.040  1.28183E+00  9.55221E-01  3.26607E-01
    9004.397      7.480   2.080  1.28440E+00  9.61785E-01  3.22614E-01
    9005.037      8.120   2.120  1.28488E+00  9.67842E-01  3.17043E-01
    9005.689      8.773   2.160  1.27455E+00  9.73435E-01  3.01114E-01
    9006.354      9.437   2.200  1.24834E+00  9.78571E-01  2.69771E-01
    9007.030     10.114   2.240  1.21581E+00  9.83256E-01  2.32556E-01
    9007.719     10.803   2.280  1.18780E+00  9.87500E-01  2.00301E-01
    9008.420     11.504   2.320  1.16804E+00  9.91329E-01  1.76710E-01
    9009.133     12.217   2.360  1.15418E+00  9.94770E-01  1.59409E-01
    9009.859     12.942   2.400  1.14211E+00  9.97794E-01  1.44321E-01
    9010.596     13.680   2.440  1.12885E+00  1.00047E+00  1.28383E-01
    9011.346     14.430   2.480  1.11320E+00  1.00278E+00  1.10413E-01
    9012.108     15.192   2.520  1.09412E+00  1.00477E+00  8.93444E-02
    9012.882     15.966   2.560  1.06858E+00  1.00646E+00  6.21239E-02
    9013.669     16.752   2.600  1.03654E+00  1.00783E+00  2.87051E-02
    9014.467     17.551   2.640  1.00139E+00  1.00893E+00 -7.53720E-03
    9015.278     18.362   2.680  9.70239E-01  1.00979E+00 -3.95523E-02
    9016.101     19.185   2.720  9.45222E-01  1.01039E+00 -6.51711E-02
    9016.936     20.020   2.760  9.24978E-01  1.01078E+00 -8.58052E-02
    9017.783     20.867   2.800  9.09144E-01  1.01099E+00 -1.01846E-01
    9018.643     21.727   2.840  8.97252E-01  1.01098E+00 -1.13729E-01
    9019.515     22.598   2.880  8.88767E-01  1.01083E+00 -1.22060E-01
    9020.399     23.482   2.920  8.83307E-01  1.01051E+00 -1.27208E-01
    9021.295     24.378   2.960  8.80666E-01  1.01007E+00 -1.29406E-01
    9022.203     25.287   3.000  8.80229E-01  1.00949E+00 -1.29260E-01
    9023.124     26.207   3.040  8.81468E-01  1.00883E+00 -1.27362E-01
    9024.056     27.140   3.080  8.84132E-01  1.00806E+00 -1.23932E-01
    9025.001     28.085   3.120  8.87774E-01  1.00722E+00 -1.19441E-01
    9025.958     29.042   3.160  8.92254E-01  1.00629E+00 -1.14038E-01
    9026.927     30.011   3.200  8.97549E-01  1.00534E+00 -1.07793E-01
    9027.909     30.993   3.240  9.03439E-01  1.00433E+00 -1.00889E-01
    9028.903     31.986   3.280  9.09723E-01  1.00327E+00 -9.35502E-02
    9029.908     32.992   3.320  9.16188E-01  1.00221E+00 -8.60204E-02
    9030.926     34.010   3.360  9.22542E-01  1.00114E+00 -7.85929E-02
    9031.957     35.040   3.400  9.28224E-01  1.00004E+00 -7.18139E-02
    9032.999     36.083   3.440  9.33005E-01  9.98962E-01 -6.59573E-02
    9034.054     37.137   3.480  9.36819E-01  9.97890E-01 -6.10703E-02
    9035.120     38.204   3.520  9.39797E-01  9.96825E-01 -5.70275E-02
    9036.199     39.283   3.560  9.42231E-01  9.95791E-01 -5.35599E-02
    9037.291     40.374   3.600  9.44436E-01  9.94790E-01 -5.03548E-02
    9038.394     41.478   3.640  9.46871E-01  9.93827E-01 -4.69554E-02
    9039.510     42.593   3.680  9.50120E-01  9.92880E-01 -4.27601E-02
    9040.637     43.721   3.720  9.55028E-01  9.91995E-01 -3.69672E-02
    9041.777     44.861   3.760  9.62369E-01  9.91152E-01 -2.87821E-02
    9042.929     46.013   3.800  9.72618E-01  9.90351E-01 -1.77332E-02
    9044.094     47.177   3.840  9.85700E-01  9.89595E-01 -3.89582E-03
    9045.270     48.354   3.880  1.00099E+00  9.88905E-01  1.20840E-02
    9046.459     49.543   3.920  1.01731E+00  9.88262E-01  2.90459E-02
    9047.660     50.743   3.960  1.03320E+00  9.87667E-01  4.55377E-02
    9048.873     51.957   4.000  1.04740E+00  9.87141E-01  6.02544E-02
    9050.098     53.182   4.040  1.05902E+00  9.86686E-01  7.23342E-02
    9051.336     54.419   4.080  1.06761E+00  9.86278E-01  8.13352E-02
    9052.585     55.669   4.120  1.07310E+00  9.85918E-01  8.71818E-02
    9053.847     56.931   4.160  1.07559E+00  9.85628E-01  8.99632E-02
    9055.121     58.205   4.200  1.07518E+00  9.85409E-01  8.97738E-02
    9056.408     59.491   4.240  1.07200E+00  9.85215E-01  8.67881E-02
    9057.706     60.790   4.280  1.06655E+00  9.85110E-01  8.14414E-02
    9059.017     62.100   4.320  1.05929E+00  9.85031E-01  7.42602E-02
    9060.339     63.423   4.360  1.05080E+00  9.85017E-01  6.57838E-02
    9061.675     64.758   4.400  1.04161E+00  9.85050E-01  5.65611E-02
    9063.022     66.105   4.440  1.03229E+00  9.85148E-01  4.71416E-02
    9064.381     67.465   4.480  1.02334E+00  9.85267E-01  3.80713E-02
    9065.753     68.836   4.520  1.01536E+00  9.85448E-01  2.99081E-02
    9067.136     70.220   4.560  1.00883E+00  9.85672E-01  2.31567E-02
    9068.532     71.616   4.600  1.00413E+00  9.85934E-01  1.81916E-02
    9069.941     73.024   4.640  1.00139E+00  9.86211E-01  1.51750E-02
    9071.361     74.445   4.680  1.00041E+00  9.86546E-01  1.38653E-02
    9072.794     75.877   4.720  1.00042E+00  9.86895E-01  1.35298E-02
    9074.238     77.322   4.760  1.00046E+00  9.87276E-01  1.31795E-02
    9075.695     78.779   4.800  9.99593E-01  9.87668E-01  1.19252E-02
    9077.164     80.248   4.840  9.97366E-01  9.88091E-01  9.27435E-03
    9078.646     81.729   4.880  9.93748E-01  9.88545E-01  5.20378E-03
    9080.139     83.223   4.920  9.88986E-01  9.89003E-01 -1.72389E-05
    9081.645     84.729   4.960  9.83532E-01  9.89465E-01 -5.93271E-03
    9083.163     86.246   5.000  9.77932E-01  9.89928E-01 -1.19957E-02
    9084.693     87.777   5.040  9.72699E-01  9.90391E-01 -1.76919E-02
    9086.235     89.319   5.080  9.68230E-01  9.90854E-01 -2.26246E-02
    9087.790     90.873   5.120  9.64728E-01  9.91339E-01 -2.66111E-02
    9089.356     92.440   5.160  9.62075E-01  9.91797E-01 -2.97225E-02
    9090.935     94.019   5.200  9.59972E-01  9.92227E-01 -3.22546E-02
    9092.526     95.610   5.240  9.58040E-01  9.92672E-01 -3.46322E-02
    9094.129     97.213   5.280  9.55902E-01  9.93087E-01 -3.71849E-02
    9095.745     98.829   5.320  9.53482E-01  9.93471E-01 -3.99884E-02
    9097.373    100.456   5.360  9.51130E-01  9.93844E-01 -4.27143E-02
    9099.012    102.096   5.400  9.49412E-01  9.94206E-01 -4.47940E-02
    9100.664    103.748   5.440  9.48830E-01  9.94512E-01 -4.56820E-02
    9102.329    105.412   5.480  9.49671E-01  9.94805E-01 -4.51340E-02
    9104.005    107.089   5.520  9.51837E-01  9.95083E-01 -4.32466E-02
    9105.694    108.777   5.560  9.54941E-01  9.95303E-01 -4.03621E-02
    9107.394    110.478   5.600  9.58618E-01  9.95505E-01 -3.68879E-02
    9109.107    112.191   5.640  9.62536E-01  9.95646E-01 -3.31108E-02
    9110.832    113.916   5.680  9.66717E-01  9.95771E-01 -2.90542E-02
    9112.570    115.653   5.720  9.71332E-01  9.95855E-01 -2.45232E-02
    9114.319    117.403   5.760  9.76577E-01  9.95876E-01 -1.92993E-02
    9116.081    119.165   5.800  9.82490E-01  9.95880E-01 -1.33901E-02
    9117.855    120.939   5.840  9.88714E-01  9.95845E-01 -7.13034E-03
    9119.641    122.725   5.880  9.94610E-01  9.95745E-01 -1.13513E-03
    9121.439    124.523   5.920  9.99554E-01  9.95629E-01  3.92513E-03
    9123.250    126.334   5.960  1.00305E+00  9.95447E-01  7.60107E-03
    9125.073    128.156   6.000  1.00515E+00  9.95226E-01  9.92626E-03
