# # comment:                                                     FEFF 9.9.1  
# # Source:
# # Structure
# # Reduced
# # space
# # abc:
# # angles:
# # sites:
# # POT  SCF 100  7.0000   0, screened core-hole, AFOLP (folp(0)= 1.150)
# # Abs   Z=29 Rmt= 1.215 Rnm= 1.343 K  shell
# # Pot 1 Z=29 Rmt= 1.222 Rnm= 1.347
# # Pot 2 Z= 8 Rmt= 0.995 Rnm= 1.098
# # Gam_ch=1.729E+00 H-L exch Vi= 0.000E+00 Vr= 0.000E+00
# # Mu=-6.827E+00eV kf=2.107E+00 Vint=-1.480E+01eV Rs_int= 1.722
# FMS rfms= 9.0000
# # PATH  Rmax=-1.000,  Keep_limit= 0.00, Heap_limit 0.00  Pwcrit= 2.50%
#  S02=0.950  Temp=   0.00  Debye_temp=   0.00  Global_sig2= 0.00000
#  Energy zero shift, vr, vi    0.00000E+00   0.00000E+00
#  Curved wave amplitude ratio filter   4.000%
#     file         sig2 tot  cw amp ratio   deg  nlegs   reff  inp sig2
#     0/   0 paths used
#  xsedge+ 50, used to normalize mu           2.4379E-04
#  -----------------------------------------------------------------------
#  omega    e    k    mu    mu0     chi     @#
    8983.570    -10.637  -1.000  4.35877E-02  5.63780E-02 -1.27903E-02
    8983.869    -10.339  -0.960  4.62589E-02  6.05010E-02 -1.42422E-02
    8984.155    -10.052  -0.920  4.91791E-02  6.50822E-02 -1.59031E-02
    8984.429     -9.778  -0.880  5.23792E-02  7.01885E-02 -1.78093E-02
    8984.692     -9.516  -0.840  5.58940E-02  7.58982E-02 -2.00042E-02
    8984.941     -9.266  -0.800  5.97627E-02  8.23017E-02 -2.25390E-02
    8985.179     -9.028  -0.760  6.40287E-02  8.95026E-02 -2.54738E-02
    8985.405     -8.803  -0.720  6.87394E-02  9.76180E-02 -2.88786E-02
    8985.618     -8.589  -0.680  7.39448E-02  1.06777E-01 -3.28319E-02
    8985.819     -8.388  -0.640  7.96953E-02  1.17115E-01 -3.74194E-02
    8986.008     -8.199  -0.600  8.60375E-02  1.28765E-01 -4.27277E-02
    8986.185     -8.022  -0.560  9.30070E-02  1.41842E-01 -4.88349E-02
    8986.350     -7.858  -0.520  1.00618E-01  1.56412E-01 -5.57942E-02
    8986.502     -7.705  -0.480  1.08849E-01  1.72460E-01 -6.36109E-02
    8986.642     -7.565  -0.440  1.17629E-01  1.89845E-01 -7.22164E-02
    8986.770     -7.437  -0.400  1.26821E-01  2.08266E-01 -8.14450E-02
    8986.886     -7.321  -0.360  1.36223E-01  2.27249E-01 -9.10260E-02
    8986.990     -7.218  -0.320  1.45576E-01  2.46179E-01 -1.00603E-01
    8987.081     -7.126  -0.280  1.54591E-01  2.64372E-01 -1.09781E-01
    8987.160     -7.047  -0.240  1.62981E-01  2.81169E-01 -1.18188E-01
    8987.227     -6.980  -0.200  1.70492E-01  2.96019E-01 -1.25527E-01
    8987.282     -6.925  -0.160  1.76911E-01  3.08515E-01 -1.31604E-01
    8987.325     -6.882  -0.120  1.82075E-01  3.18396E-01 -1.36322E-01
    8987.355     -6.852  -0.080  1.85863E-01  3.25518E-01 -1.39655E-01
    8987.380     -6.827   0.000  1.88988E-01  3.31241E-01 -1.42253E-01
    8987.435     -6.773   0.120  1.96088E-01  3.44148E-01 -1.48060E-01
    8987.477     -6.730   0.160  2.01683E-01  3.54201E-01 -1.52518E-01
    8987.532     -6.675   0.200  2.08984E-01  3.67016E-01 -1.58032E-01
    8987.599     -6.608   0.240  2.18146E-01  3.82468E-01 -1.64322E-01
    8987.679     -6.529   0.280  2.29277E-01  4.00221E-01 -1.70943E-01
    8987.770     -6.437   0.320  2.42549E-01  4.19838E-01 -1.77289E-01
    8987.874     -6.334   0.360  2.58204E-01  4.40796E-01 -1.82592E-01
    8987.989     -6.218   0.400  2.76467E-01  4.62474E-01 -1.86007E-01
    8988.117     -6.090   0.440  2.97646E-01  4.84340E-01 -1.86694E-01
    8988.258     -5.950   0.480  3.22090E-01  5.05984E-01 -1.83893E-01
    8988.410     -5.797   0.520  3.49999E-01  5.27099E-01 -1.77100E-01
    8988.575     -5.633   0.560  3.81425E-01  5.47564E-01 -1.66139E-01
    8988.751     -5.456   0.600  4.15796E-01  5.67342E-01 -1.51546E-01
    8988.940     -5.267   0.640  4.51287E-01  5.86488E-01 -1.35201E-01
    8989.142     -5.066   0.680  4.83933E-01  6.05031E-01 -1.21098E-01
    8989.355     -4.852   0.720  5.07873E-01  6.23095E-01 -1.15222E-01
    8989.581     -4.627   0.760  5.17876E-01  6.40742E-01 -1.22866E-01
    8989.818     -4.389   0.800  5.13789E-01  6.58043E-01 -1.44254E-01
    8990.068     -4.139   0.840  5.01589E-01  6.75035E-01 -1.73446E-01
    8990.330     -3.877   0.880  4.89375E-01  6.91783E-01 -2.02408E-01
    8990.605     -3.603   0.920  4.82518E-01  7.08275E-01 -2.25757E-01
    8990.891     -3.316   0.960  4.80923E-01  7.24570E-01 -2.43648E-01
    8991.190     -3.017   1.000  4.78293E-01  7.40613E-01 -2.62320E-01
    8991.501     -2.707   1.040  4.67717E-01  7.56422E-01 -2.88705E-01
    8991.824     -2.383   1.080  4.50423E-01  7.71966E-01 -3.21543E-01
    8992.159     -2.048   1.120  4.34804E-01  7.87230E-01 -3.52426E-01
    8992.507     -1.701   1.160  4.26875E-01  8.02194E-01 -3.75319E-01
    8992.866     -1.341   1.200  4.28301E-01  8.16813E-01 -3.88513E-01
    8993.238     -0.969   1.240  4.40420E-01  8.31062E-01 -3.90642E-01
    8993.622     -0.585   1.280  4.64225E-01  8.44912E-01 -3.80687E-01
    8994.018     -0.189   1.320  4.98052E-01  8.58336E-01 -3.60284E-01
    8994.427      0.220   1.360  5.36971E-01  8.71283E-01 -3.34312E-01
    8994.847      0.640   1.400  5.74045E-01  8.83763E-01 -3.09717E-01
    8995.280      1.073   1.440  6.04841E-01  8.95708E-01 -2.90867E-01
    8995.725      1.518   1.480  6.31957E-01  9.07113E-01 -2.75156E-01
    8996.182      1.975   1.520  6.64273E-01  9.17970E-01 -2.53697E-01
    8996.652      2.445   1.560  7.13241E-01  9.28254E-01 -2.15012E-01
    8997.133      2.926   1.600  7.88079E-01  9.37962E-01 -1.49883E-01
    8997.627      3.420   1.640  8.91800E-01  9.47095E-01 -5.52950E-02
    8998.133      3.926   1.680  1.02194E+00  9.55631E-01  6.63141E-02
    8998.651      4.444   1.720  1.16666E+00  9.63570E-01  2.03094E-01
    8999.182      4.974   1.760  1.30409E+00  9.70918E-01  3.33176E-01
    8999.724      5.517   1.800  1.42006E+00  9.77700E-01  4.42362E-01
    9000.279      6.072   1.840  1.50619E+00  9.83920E-01  5.22274E-01
    9000.846      6.639   1.880  1.54348E+00  9.89567E-01  5.53917E-01
    9001.425      7.218   1.920  1.51955E+00  9.94670E-01  5.24877E-01
    9002.016      7.809   1.960  1.44700E+00  9.99277E-01  4.47722E-01
    9002.620      8.413   2.000  1.35830E+00  1.00336E+00  3.54945E-01
    9003.235      9.028   2.040  1.28843E+00  1.00695E+00  2.81477E-01
    9003.863      9.656   2.080  1.24718E+00  1.01010E+00  2.37078E-01
    9004.503     10.296   2.120  1.21489E+00  1.01280E+00  2.02094E-01
    9005.156     10.948   2.160  1.17080E+00  1.01510E+00  1.55696E-01
    9005.820     11.613   2.200  1.11719E+00  1.01700E+00  1.00189E-01
    9006.497     12.290   2.240  1.06855E+00  1.01855E+00  4.99937E-02
    9007.186     12.978   2.280  1.03252E+00  1.01975E+00  1.27678E-02
    9007.887     13.679   2.320  1.01146E+00  1.02064E+00 -9.18119E-03
    9008.600     14.393   2.360  1.00449E+00  1.02124E+00 -1.67467E-02
    9009.325     15.118   2.400  1.00990E+00  1.02158E+00 -1.16737E-02
    9010.063     15.856   2.440  1.02714E+00  1.02167E+00  5.47036E-03
    9010.813     16.606   2.480  1.05164E+00  1.02155E+00  3.00912E-02
    9011.575     17.368   2.520  1.06641E+00  1.02123E+00  4.51788E-02
    9012.349     18.142   2.560  1.06484E+00  1.02073E+00  4.41046E-02
    9013.135     18.928   2.600  1.05834E+00  1.02007E+00  3.82667E-02
    9013.934     19.727   2.640  1.05246E+00  1.01928E+00  3.31799E-02
    9014.745     20.537   2.680  1.04780E+00  1.01840E+00  2.94069E-02
    9015.568     21.360   2.720  1.04414E+00  1.01739E+00  2.67432E-02
    9016.403     22.196   2.760  1.04148E+00  1.01631E+00  2.51755E-02
    9017.250     23.043   2.800  1.03920E+00  1.01514E+00  2.40511E-02
    9018.110     23.902   2.840  1.03637E+00  1.01395E+00  2.24101E-02
    9018.981     24.774   2.880  1.03197E+00  1.01270E+00  1.92701E-02
    9019.865     25.658   2.920  1.02521E+00  1.01144E+00  1.37669E-02
    9020.761     26.554   2.960  1.01558E+00  1.01017E+00  5.41645E-03
    9021.670     27.462   3.000  1.00297E+00  1.00889E+00 -5.92201E-03
    9022.590     28.383   3.040  9.87761E-01  1.00762E+00 -1.98591E-02
    9023.523     29.316   3.080  9.70817E-01  1.00636E+00 -3.55392E-02
    9024.468     30.260   3.120  9.53377E-01  1.00513E+00 -5.17495E-02
    9025.425     31.218   3.160  9.36766E-01  1.00395E+00 -6.71869E-02
    9026.394     32.187   3.200  9.21999E-01  1.00280E+00 -8.08003E-02
    9027.376     33.168   3.240  9.09829E-01  1.00169E+00 -9.18583E-02
    9028.369     34.162   3.280  9.00235E-01  1.00064E+00 -1.00409E-01
    9029.375     35.168   3.320  8.92980E-01  9.99650E-01 -1.06670E-01
    9030.393     36.186   3.360  8.88003E-01  9.98728E-01 -1.10725E-01
    9031.423     37.216   3.400  8.85362E-01  9.97880E-01 -1.12518E-01
    9032.466     38.258   3.440  8.85123E-01  9.97086E-01 -1.11963E-01
    9033.520     39.313   3.480  8.87381E-01  9.96368E-01 -1.08986E-01
    9034.587     40.380   3.520  8.92093E-01  9.95729E-01 -1.03636E-01
    9035.666     41.459   3.560  8.98835E-01  9.95167E-01 -9.63319E-02
    9036.757     42.550   3.600  9.07184E-01  9.94684E-01 -8.74996E-02
    9037.861     43.653   3.640  9.16805E-01  9.94259E-01 -7.74539E-02
    9038.976     44.769   3.680  9.27511E-01  9.93935E-01 -6.64240E-02
    9040.104     45.897   3.720  9.39135E-01  9.93692E-01 -5.45567E-02
    9041.244     47.037   3.760  9.51662E-01  9.93506E-01 -4.18437E-02
    9042.396     48.189   3.800  9.65131E-01  9.93419E-01 -2.82879E-02
    9043.560     49.353   3.840  9.79360E-01  9.93389E-01 -1.40283E-02
    9044.737     50.530   3.880  9.94095E-01  9.93435E-01  6.59438E-04
    9045.926     51.718   3.920  1.00891E+00  9.93558E-01  1.53569E-02
    9047.127     52.919   3.960  1.02317E+00  9.93734E-01  2.94364E-02
    9048.340     54.132   4.000  1.03626E+00  9.94007E-01  4.22501E-02
    9049.565     55.358   4.040  1.04755E+00  9.94310E-01  5.32369E-02
    9050.802     56.595   4.080  1.05660E+00  9.94707E-01  6.18892E-02
    9052.052     57.845   4.120  1.06290E+00  9.95152E-01  6.77467E-02
    9053.314     59.107   4.160  1.06611E+00  9.95642E-01  7.04648E-02
    9054.588     60.381   4.200  1.06613E+00  9.96177E-01  6.99549E-02
    9055.874     61.667   4.240  1.06333E+00  9.96776E-01  6.65536E-02
    9057.173     62.965   4.280  1.05849E+00  9.97394E-01  6.10928E-02
    9058.483     64.276   4.320  1.05269E+00  9.98073E-01  5.46215E-02
    9059.806     65.599   4.360  1.04692E+00  9.98768E-01  4.81517E-02
    9061.141     66.934   4.400  1.04204E+00  9.99497E-01  4.25400E-02
    9062.488     68.281   4.440  1.03868E+00  1.00026E+00  3.84211E-02
    9063.848     69.640   4.480  1.03709E+00  1.00103E+00  3.60611E-02
    9065.219     71.012   4.520  1.03705E+00  1.00183E+00  3.52121E-02
    9066.603     72.396   4.560  1.03775E+00  1.00264E+00  3.51154E-02
    9067.999     73.792   4.600  1.03806E+00  1.00345E+00  3.46160E-02
    9069.407     75.200   4.640  1.03687E+00  1.00425E+00  3.26192E-02
    9070.828     76.620   4.680  1.03359E+00  1.00506E+00  2.85335E-02
    9072.260     78.053   4.720  1.02824E+00  1.00586E+00  2.23744E-02
    9073.705     79.498   4.760  1.02131E+00  1.00666E+00  1.46544E-02
    9075.162     80.955   4.800  1.01364E+00  1.00743E+00  6.21051E-03
    9076.631     82.424   4.840  1.00625E+00  1.00819E+00 -1.93225E-03
    9078.112     83.905   4.880  1.00027E+00  1.00894E+00 -8.66980E-03
    9079.606     85.399   4.920  9.96592E-01  1.00965E+00 -1.30598E-02
    9081.112     86.904   4.960  9.95683E-01  1.01033E+00 -1.46449E-02
    9082.629     88.422   5.000  9.97408E-01  1.01096E+00 -1.35570E-02
    9084.160     89.952   5.040  1.00122E+00  1.01156E+00 -1.03449E-02
    9085.702     91.495   5.080  1.00651E+00  1.01214E+00 -5.63514E-03
    9087.256     93.049   5.120  1.01269E+00  1.01265E+00  3.62135E-05
    9088.823     94.616   5.160  1.01919E+00  1.01312E+00  6.06882E-03
    9090.402     96.195   5.200  1.02510E+00  1.01355E+00  1.15475E-02
    9091.993     97.786   5.240  1.02914E+00  1.01393E+00  1.52058E-02
    9093.596     99.389   5.280  1.03021E+00  1.01427E+00  1.59413E-02
    9095.212    101.004   5.320  1.02789E+00  1.01453E+00  1.33561E-02
    9096.839    102.632   5.360  1.02266E+00  1.01475E+00  7.90694E-03
    9098.479    104.272   5.400  1.01554E+00  1.01492E+00  6.21305E-04
    9100.131    105.924   5.440  1.00772E+00  1.01502E+00 -7.30257E-03
    9101.795    107.588   5.480  1.00023E+00  1.01507E+00 -1.48473E-02
    9103.472    109.264   5.520  9.93698E-01  1.01508E+00 -2.13804E-02
    9105.160    110.953   5.560  9.88371E-01  1.01501E+00 -2.66426E-02
    9106.861    112.654   5.600  9.84390E-01  1.01490E+00 -3.05117E-02
    9108.574    114.367   5.640  9.81824E-01  1.01474E+00 -3.29185E-02
    9110.299    116.092   5.680  9.80479E-01  1.01451E+00 -3.40341E-02
    9112.036    117.829   5.720  9.79746E-01  1.01424E+00 -3.44934E-02
    9113.786    119.579   5.760  9.78762E-01  1.01392E+00 -3.51610E-02
    9115.548    121.340   5.800  9.76915E-01  1.01356E+00 -3.66464E-02
    9117.322    123.114   5.840  9.74225E-01  1.01314E+00 -3.89100E-02
    9119.108    124.900   5.880  9.71412E-01  1.01267E+00 -4.12597E-02
    9120.906    126.699   5.920  9.69610E-01  1.01220E+00 -4.25868E-02
    9122.717    128.509   5.960  9.69862E-01  1.01166E+00 -4.17989E-02
    9124.539    130.332   6.000  9.72908E-01  1.01108E+00 -3.81768E-02
