# # comment:                                                     FEFF 9.9.1  
# # Source:
# # Structure
# # Reduced
# # space
# # abc:
# # angles:
# # sites:
# # POT  SCF 100  7.0000   0, screened core-hole, AFOLP (folp(0)= 1.150)
# # Abs   Z=29 Rmt= 1.201 Rnm= 1.311 K  shell
# # Pot 1 Z=29 Rmt= 1.281 Rnm= 1.352
# # Pot 2 Z= 1 Rmt= 0.651 Rnm= 0.812
# # Pot 3 Z=17 Rmt= 1.122 Rnm= 1.438
# # Pot 4 Z= 8 Rmt= 0.988 Rnm= 1.101
# # Gam_ch=1.729E+00 H-L exch Vi= 0.000E+00 Vr= 0.000E+00
# # Mu=-6.558E+00eV kf=2.094E+00 Vint=-1.423E+01eV Rs_int= 1.732
# FMS rfms= 9.0000
# # PATH  Rmax=-1.000,  Keep_limit= 0.00, Heap_limit 0.00  Pwcrit= 2.50%
#  S02=0.950  Temp=   0.00  Debye_temp=   0.00  Global_sig2= 0.00000
#  Energy zero shift, vr, vi    0.00000E+00   0.00000E+00
#  Curved wave amplitude ratio filter   4.000%
#     file         sig2 tot  cw amp ratio   deg  nlegs   reff  inp sig2
#     0/   0 paths used
#  xsedge+ 50, used to normalize mu           2.4319E-04
#  -----------------------------------------------------------------------
#  omega    e    k    mu    mu0     chi     @#
    8983.396    -10.368  -1.000  3.62539E-02  5.54810E-02 -1.92271E-02
    8983.694    -10.069  -0.960  3.80188E-02  5.95084E-02 -2.14896E-02
    8983.981     -9.783  -0.920  3.99014E-02  6.39805E-02 -2.40791E-02
    8984.255     -9.508  -0.880  4.19127E-02  6.89622E-02 -2.70495E-02
    8984.517     -9.246  -0.840  4.40648E-02  7.45289E-02 -3.04641E-02
    8984.767     -8.996  -0.800  4.63717E-02  8.07679E-02 -3.43963E-02
    8985.005     -8.759  -0.760  4.88485E-02  8.77794E-02 -3.89309E-02
    8985.231     -8.533  -0.720  5.15120E-02  9.56763E-02 -4.41644E-02
    8985.444     -8.320  -0.680  5.43798E-02  1.04583E-01 -5.02031E-02
    8985.645     -8.119  -0.640  5.74698E-02  1.14630E-01 -5.71604E-02
    8985.834     -7.930  -0.600  6.07980E-02  1.25947E-01 -6.51487E-02
    8986.011     -7.753  -0.560  6.43757E-02  1.38642E-01 -7.42658E-02
    8986.175     -7.588  -0.520  6.82049E-02  1.52780E-01 -8.45746E-02
    8986.328     -7.436  -0.480  7.22717E-02  1.68345E-01 -9.60733E-02
    8986.468     -7.296  -0.440  7.65397E-02  1.85202E-01 -1.08662E-01
    8986.596     -7.168  -0.400  8.09433E-02  2.03058E-01 -1.22115E-01
    8986.712     -7.052  -0.360  8.53872E-02  2.21457E-01 -1.36070E-01
    8986.816     -6.948  -0.320  8.97513E-02  2.39803E-01 -1.50052E-01
    8986.907     -6.857  -0.280  9.39046E-02  2.57435E-01 -1.63530E-01
    8986.986     -6.777  -0.240  9.77215E-02  2.73716E-01 -1.75995E-01
    8987.053     -6.710  -0.200  1.01095E-01  2.88112E-01 -1.87017E-01
    8987.108     -6.656  -0.160  1.03945E-01  3.00228E-01 -1.96283E-01
    8987.151     -6.613  -0.120  1.06215E-01  3.09812E-01 -2.03596E-01
    8987.181     -6.582  -0.080  1.07869E-01  3.16719E-01 -2.08849E-01
    8987.206     -6.558   0.000  1.09231E-01  3.22270E-01 -2.13039E-01
    8987.261     -6.503   0.120  1.12277E-01  3.34806E-01 -2.22529E-01
    8987.303     -6.461   0.160  1.14609E-01  3.44543E-01 -2.29934E-01
    8987.358     -6.406   0.200  1.17599E-01  3.57000E-01 -2.39402E-01
    8987.425     -6.339   0.240  1.21226E-01  3.72001E-01 -2.50775E-01
    8987.504     -6.259   0.280  1.25470E-01  3.89263E-01 -2.63793E-01
    8987.596     -6.168   0.320  1.30311E-01  4.08370E-01 -2.78059E-01
    8987.699     -6.064   0.360  1.35713E-01  4.28804E-01 -2.93092E-01
    8987.815     -5.948   0.400  1.41619E-01  4.49967E-01 -3.08348E-01
    8987.943     -5.820   0.440  1.48050E-01  4.71372E-01 -3.23323E-01
    8988.084     -5.680   0.480  1.55033E-01  4.92584E-01 -3.37550E-01
    8988.236     -5.528   0.520  1.62765E-01  5.13370E-01 -3.50605E-01
    8988.401     -5.363   0.560  1.71514E-01  5.33572E-01 -3.62059E-01
    8988.577     -5.186   0.600  1.81684E-01  5.53155E-01 -3.71471E-01
    8988.766     -4.997   0.640  1.93750E-01  5.72190E-01 -3.78440E-01
    8988.967     -4.796   0.680  2.08155E-01  5.90702E-01 -3.82547E-01
    8989.181     -4.583   0.720  2.25462E-01  6.08790E-01 -3.83328E-01
    8989.406     -4.357   0.760  2.46417E-01  6.26509E-01 -3.80092E-01
    8989.644     -4.120   0.800  2.72120E-01  6.43927E-01 -3.71807E-01
    8989.894     -3.870   0.840  3.03664E-01  6.61116E-01 -3.57452E-01
    8990.156     -3.608   0.880  3.41033E-01  6.78075E-01 -3.37042E-01
    8990.430     -3.333   0.920  3.82203E-01  6.94849E-01 -3.12646E-01
    8990.717     -3.047   0.960  4.23479E-01  7.11432E-01 -2.87953E-01
    8991.016     -2.748   1.000  4.61525E-01  7.27807E-01 -2.66283E-01
    8991.327     -2.437   1.040  4.96417E-01  7.43968E-01 -2.47551E-01
    8991.650     -2.114   1.080  5.32264E-01  7.59903E-01 -2.27639E-01
    8991.985     -1.779   1.120  5.71034E-01  7.75572E-01 -2.04538E-01
    8992.332     -1.431   1.160  6.08634E-01  7.90933E-01 -1.82299E-01
    8992.692     -1.072   1.200  6.43187E-01  8.05980E-01 -1.62792E-01
    8993.064     -0.700   1.240  6.77689E-01  8.20684E-01 -1.42995E-01
    8993.448     -0.316   1.280  7.06863E-01  8.34974E-01 -1.28111E-01
    8993.844      0.080   1.320  7.12981E-01  8.48820E-01 -1.35839E-01
    8994.253      0.489   1.360  6.83187E-01  8.62233E-01 -1.79046E-01
    8994.673      0.910   1.400  6.31720E-01  8.75138E-01 -2.43419E-01
    8995.106      1.342   1.440  5.88376E-01  8.87529E-01 -2.99153E-01
    8995.551      1.787   1.480  5.70195E-01  8.99355E-01 -3.29160E-01
    8996.008      2.245   1.520  5.81061E-01  9.10650E-01 -3.29590E-01
    8996.478      2.714   1.560  6.19354E-01  9.21347E-01 -3.01993E-01
    8996.959      3.196   1.600  6.79753E-01  9.31443E-01 -2.51689E-01
    8997.453      3.689   1.640  7.55536E-01  9.40955E-01 -1.85419E-01
    8997.959      4.195   1.680  8.39818E-01  9.49862E-01 -1.10044E-01
    8998.477      4.713   1.720  9.27762E-01  9.58147E-01 -3.03855E-02
    8999.008      5.244   1.760  1.01888E+00  9.65852E-01  5.30269E-02
    8999.550      5.786   1.800  1.10344E+00  9.72940E-01  1.30500E-01
    9000.105      6.341   1.840  1.16441E+00  9.79460E-01  1.84948E-01
    9000.672      6.908   1.880  1.20795E+00  9.85397E-01  2.22551E-01
    9001.251      7.487   1.920  1.25894E+00  9.90781E-01  2.68163E-01
    9001.842      8.078   1.960  1.33260E+00  9.95621E-01  3.36977E-01
    9002.446      8.682   2.000  1.42371E+00  9.99949E-01  4.23764E-01
    9003.061      9.298   2.040  1.49913E+00  1.00378E+00  4.95350E-01
    9003.689      9.925   2.080  1.51262E+00  1.00713E+00  5.05486E-01
    9004.329     10.566   2.120  1.46321E+00  1.01003E+00  4.53179E-01
    9004.982     11.218   2.160  1.39708E+00  1.01249E+00  3.84585E-01
    9005.646     11.882   2.200  1.34367E+00  1.01458E+00  3.29093E-01
    9006.323     12.559   2.240  1.30254E+00  1.01627E+00  2.86269E-01
    9007.012     13.248   2.280  1.26150E+00  1.01762E+00  2.43885E-01
    9007.713     13.949   2.320  1.21246E+00  1.01863E+00  1.93822E-01
    9008.426     14.662   2.360  1.16038E+00  1.01935E+00  1.41022E-01
    9009.151     15.387   2.400  1.11738E+00  1.01979E+00  9.75895E-02
    9009.889     16.125   2.440  1.09524E+00  1.02000E+00  7.52479E-02
    9010.639     16.875   2.480  1.09338E+00  1.01996E+00  7.34172E-02
    9011.401     17.637   2.520  1.09667E+00  1.01972E+00  7.69536E-02
    9012.175     18.411   2.560  1.09180E+00  1.01931E+00  7.24952E-02
    9012.961     19.197   2.600  1.07982E+00  1.01873E+00  6.10937E-02
    9013.760     19.996   2.640  1.06429E+00  1.01801E+00  4.62769E-02
    9014.571     20.807   2.680  1.04735E+00  1.01718E+00  3.01733E-02
    9015.394     21.630   2.720  1.03037E+00  1.01625E+00  1.41169E-02
    9016.229     22.465   2.760  1.01437E+00  1.01523E+00 -8.59843E-04
    9017.076     23.312   2.800  9.99610E-01  1.01414E+00 -1.45303E-02
    9017.936     24.172   2.840  9.86410E-01  1.01297E+00 -2.65651E-02
    9018.807     25.043   2.880  9.74670E-01  1.01179E+00 -3.71190E-02
    9019.691     25.927   2.920  9.63602E-01  1.01057E+00 -4.69660E-02
    9020.587     26.824   2.960  9.52663E-01  1.00934E+00 -5.66756E-02
    9021.496     27.732   3.000  9.41433E-01  1.00811E+00 -6.66768E-02
    9022.416     28.652   3.040  9.30125E-01  1.00690E+00 -7.67776E-02
    9023.349     29.585   3.080  9.19490E-01  1.00568E+00 -8.61928E-02
    9024.294     30.530   3.120  9.10455E-01  1.00452E+00 -9.40624E-02
    9025.251     31.487   3.160  9.03552E-01  1.00337E+00 -9.98151E-02
    9026.220     32.456   3.200  8.99035E-01  1.00228E+00 -1.03242E-01
    9027.201     33.438   3.240  8.96922E-01  1.00121E+00 -1.04289E-01
    9028.195     34.431   3.280  8.96538E-01  1.00021E+00 -1.03675E-01
    9029.201     35.437   3.320  8.97013E-01  9.99285E-01 -1.02272E-01
    9030.219     36.455   3.360  8.97496E-01  9.98408E-01 -1.00912E-01
    9031.249     37.485   3.400  8.97502E-01  9.97605E-01 -1.00103E-01
    9032.292     38.528   3.440  8.96962E-01  9.96856E-01 -9.98936E-02
    9033.346     39.582   3.480  8.96277E-01  9.96207E-01 -9.99293E-02
    9034.413     40.649   3.520  8.96019E-01  9.95615E-01 -9.95962E-02
    9035.492     41.728   3.560  8.96532E-01  9.95102E-01 -9.85699E-02
    9036.583     42.819   3.600  8.98141E-01  9.94691E-01 -9.65494E-02
    9037.686     43.923   3.640  9.00988E-01  9.94338E-01 -9.33507E-02
    9038.802     45.038   3.680  9.05111E-01  9.94065E-01 -8.89538E-02
    9039.930     46.166   3.720  9.10483E-01  9.93871E-01 -8.33883E-02
    9041.070     47.306   3.760  9.17181E-01  9.93758E-01 -7.65765E-02
    9042.222     48.458   3.800  9.25251E-01  9.93724E-01 -6.84737E-02
    9043.386     49.622   3.840  9.34607E-01  9.93770E-01 -5.91629E-02
    9044.563     50.799   3.880  9.45170E-01  9.93893E-01 -4.87226E-02
    9045.751     51.988   3.920  9.56878E-01  9.94070E-01 -3.71923E-02
    9046.952     53.189   3.960  9.69686E-01  9.94324E-01 -2.46383E-02
    9048.165     54.402   4.000  9.83622E-01  9.94654E-01 -1.10314E-02
    9049.391     55.627   4.040  9.98757E-01  9.95058E-01  3.69949E-03
    9050.628     56.864   4.080  1.01497E+00  9.95512E-01  1.94619E-02
    9051.878     58.114   4.120  1.03190E+00  9.96036E-01  3.58603E-02
    9053.140     59.376   4.160  1.04876E+00  9.96585E-01  5.21713E-02
    9054.414     60.650   4.200  1.06465E+00  9.97222E-01  6.74304E-02
    9055.700     61.936   4.240  1.07850E+00  9.97881E-01  8.06241E-02
    9056.999     63.235   4.280  1.08975E+00  9.98581E-01  9.11727E-02
    9058.309     64.545   4.320  1.09825E+00  9.99342E-01  9.89039E-02
    9059.632     65.868   4.360  1.10412E+00  1.00012E+00  1.04002E-01
    9060.967     67.203   4.400  1.10774E+00  1.00093E+00  1.06809E-01
    9062.314     68.550   4.440  1.10940E+00  1.00175E+00  1.07647E-01
    9063.674     69.910   4.480  1.10926E+00  1.00260E+00  1.06653E-01
    9065.045     71.281   4.520  1.10727E+00  1.00348E+00  1.03783E-01
    9066.429     72.665   4.560  1.10326E+00  1.00435E+00  9.89144E-02
    9067.825     74.061   4.600  1.09705E+00  1.00523E+00  9.18151E-02
    9069.233     75.469   4.640  1.08850E+00  1.00612E+00  8.23801E-02
    9070.654     76.890   4.680  1.07795E+00  1.00701E+00  7.09397E-02
    9072.086     78.322   4.720  1.06630E+00  1.00789E+00  5.84085E-02
    9073.531     79.767   4.760  1.05489E+00  1.00875E+00  4.61449E-02
    9074.988     81.224   4.800  1.04504E+00  1.00959E+00  3.54501E-02
    9076.457     82.693   4.840  1.03735E+00  1.01043E+00  2.69257E-02
    9077.938     84.174   4.880  1.03147E+00  1.01123E+00  2.02426E-02
    9079.432     85.668   4.920  1.02638E+00  1.01199E+00  1.43878E-02
    9080.937     87.174   4.960  1.02097E+00  1.01272E+00  8.24837E-03
    9082.455     88.692   5.000  1.01461E+00  1.01343E+00  1.17738E-03
    9083.985     90.222   5.040  1.00720E+00  1.01410E+00 -6.90131E-03
    9085.528     91.764   5.080  9.98989E-01  1.01471E+00 -1.57185E-02
    9087.082     93.318   5.120  9.90445E-01  1.01529E+00 -2.48447E-02
    9088.649     94.885   5.160  9.82058E-01  1.01580E+00 -3.37468E-02
    9090.228     96.464   5.200  9.74544E-01  1.01627E+00 -4.17308E-02
    9091.819     98.055   5.240  9.68597E-01  1.01670E+00 -4.81020E-02
    9093.422     99.658   5.280  9.64704E-01  1.01708E+00 -5.23717E-02
    9095.037    101.274   5.320  9.62929E-01  1.01738E+00 -5.44539E-02
    9096.665    102.901   5.360  9.63029E-01  1.01764E+00 -5.46090E-02
    9098.305    104.541   5.400  9.64626E-01  1.01782E+00 -5.31948E-02
    9099.957    106.193   5.440  9.67603E-01  1.01795E+00 -5.03501E-02
    9101.621    107.857   5.480  9.72002E-01  1.01801E+00 -4.60123E-02
    9103.297    109.534   5.520  9.77860E-01  1.01803E+00 -4.01667E-02
    9104.986    111.222   5.560  9.84797E-01  1.01799E+00 -3.31940E-02
    9106.687    112.923   5.600  9.91976E-01  1.01788E+00 -2.59093E-02
    9108.400    114.636   5.640  9.98405E-01  1.01773E+00 -1.93267E-02
    9110.125    116.361   5.680  1.00325E+00  1.01753E+00 -1.42841E-02
    9111.862    118.099   5.720  1.00595E+00  1.01726E+00 -1.13149E-02
    9113.612    119.848   5.760  1.00633E+00  1.01695E+00 -1.06142E-02
    9115.374    121.610   5.800  1.00451E+00  1.01659E+00 -1.20752E-02
    9117.148    123.384   5.840  1.00087E+00  1.01616E+00 -1.52932E-02
    9118.934    125.170   5.880  9.95984E-01  1.01569E+00 -1.97069E-02
    9120.732    126.968   5.920  9.90476E-01  1.01519E+00 -2.47112E-02
    9122.542    128.779   5.960  9.85058E-01  1.01467E+00 -2.96164E-02
    9124.365    130.601   6.000  9.80572E-01  1.01407E+00 -3.34935E-02
