# # comment:                                                     FEFF 9.9.1  
# # Source:
# # Structure
# # Reduced
# # space
# # abc:
# # angles:
# # sites:
# # POT  SCF 100  7.0000   0, screened core-hole, AFOLP (folp(0)= 1.150)
# # Abs   Z=29 Rmt= 1.227 Rnm= 1.311 K  shell
# # Pot 1 Z=56 Rmt= 1.909 Rnm= 1.958
# # Pot 2 Z=22 Rmt= 1.302 Rnm= 1.425
# # Pot 3 Z=29 Rmt= 1.227 Rnm= 1.311
# # Pot 4 Z= 8 Rmt= 1.068 Rnm= 1.120
# # Gam_ch=1.729E+00 H-L exch Vi= 0.000E+00 Vr= 0.000E+00
# # Mu=-1.019E+01eV kf=1.984E+00 Vint=-1.878E+01eV Rs_int= 1.828
# FMS rfms= 9.0000
# # PATH  Rmax=-1.000,  Keep_limit= 0.00, Heap_limit 0.00  Pwcrit= 2.50%
#  S02=0.950  Temp=   0.00  Debye_temp=   0.00  Global_sig2= 0.00000
#  Energy zero shift, vr, vi    0.00000E+00   0.00000E+00
#  Curved wave amplitude ratio filter   4.000%
#     file         sig2 tot  cw amp ratio   deg  nlegs   reff  inp sig2
#     0/   0 paths used
#  xsedge+ 50, used to normalize mu           2.4684E-04
#  -----------------------------------------------------------------------
#  omega    e    k    mu    mu0     chi     @#
    8985.385    -14.004  -1.000  3.64375E-02  5.32661E-02 -1.68286E-02
    8985.684    -13.705  -0.960  3.82960E-02  5.71086E-02 -1.88126E-02
    8985.970    -13.418  -0.920  4.03011E-02  6.13757E-02 -2.10746E-02
    8986.244    -13.144  -0.880  4.24711E-02  6.61296E-02 -2.36585E-02
    8986.507    -12.882  -0.840  4.48276E-02  7.14428E-02 -2.66152E-02
    8986.756    -12.632  -0.800  4.73954E-02  7.73992E-02 -3.00038E-02
    8986.994    -12.394  -0.760  5.02032E-02  8.40950E-02 -3.38918E-02
    8987.220    -12.169  -0.720  5.32836E-02  9.16388E-02 -3.83553E-02
    8987.433    -11.955  -0.680  5.66724E-02  1.00150E-01 -4.34779E-02
    8987.634    -11.754  -0.640  6.04077E-02  1.09756E-01 -4.93480E-02
    8987.823    -11.565  -0.600  6.45267E-02  1.20579E-01 -5.60521E-02
    8988.000    -11.388  -0.560  6.90608E-02  1.32725E-01 -6.36644E-02
    8988.165    -11.224  -0.520  7.40277E-02  1.46257E-01 -7.22298E-02
    8988.317    -11.071  -0.480  7.94205E-02  1.61161E-01 -8.17406E-02
    8988.457    -10.931  -0.440  8.51950E-02  1.77305E-01 -9.21104E-02
    8988.585    -10.803  -0.400  9.12585E-02  1.94410E-01 -1.03152E-01
    8988.701    -10.687  -0.360  9.74654E-02  2.12035E-01 -1.14570E-01
    8988.805    -10.584  -0.320  1.03626E-01  2.29609E-01 -1.25983E-01
    8988.896    -10.492  -0.280  1.09526E-01  2.46495E-01 -1.36969E-01
    8988.975    -10.413  -0.240  1.14959E-01  2.62084E-01 -1.47124E-01
    8989.042    -10.346  -0.200  1.19750E-01  2.75862E-01 -1.56112E-01
    8989.097    -10.291  -0.160  1.23767E-01  2.87454E-01 -1.63687E-01
    8989.140    -10.249  -0.120  1.26919E-01  2.96619E-01 -1.69700E-01
    8989.170    -10.218  -0.080  1.29152E-01  3.03223E-01 -1.74071E-01
    8989.195    -10.194   0.000  1.30851E-01  3.08529E-01 -1.77678E-01
    8989.250    -10.139   0.120  1.35308E-01  3.20494E-01 -1.85185E-01
    8989.292    -10.096   0.160  1.38756E-01  3.29805E-01 -1.91049E-01
    8989.347    -10.041   0.200  1.43125E-01  3.41694E-01 -1.98569E-01
    8989.414     -9.974   0.240  1.48289E-01  3.55983E-01 -2.07693E-01
    8989.494     -9.895   0.280  1.54088E-01  3.72433E-01 -2.18345E-01
    8989.585     -9.804   0.320  1.60211E-01  3.90595E-01 -2.30384E-01
    8989.689     -9.700   0.360  1.66281E-01  4.09958E-01 -2.43677E-01
    8989.804     -9.584   0.400  1.71892E-01  4.29978E-01 -2.58086E-01
    8989.932     -9.456   0.440  1.76599E-01  4.50159E-01 -2.73560E-01
    8990.073     -9.316   0.480  1.80071E-01  4.70076E-01 -2.90006E-01
    8990.225     -9.163   0.520  1.82278E-01  4.89506E-01 -3.07228E-01
    8990.390     -8.999   0.560  1.83656E-01  5.08335E-01 -3.24679E-01
    8990.566     -8.822   0.600  1.85147E-01  5.26492E-01 -3.41345E-01
    8990.755     -8.633   0.640  1.88129E-01  5.44071E-01 -3.55942E-01
    8990.957     -8.432   0.680  1.93972E-01  5.61102E-01 -3.67129E-01
    8991.170     -8.219   0.720  2.03942E-01  5.77705E-01 -3.73763E-01
    8991.396     -7.993   0.760  2.19020E-01  5.93941E-01 -3.74921E-01
    8991.633     -7.755   0.800  2.39771E-01  6.09902E-01 -3.70131E-01
    8991.883     -7.505   0.840  2.65835E-01  6.25646E-01 -3.59811E-01
    8992.145     -7.243   0.880  2.95334E-01  6.41197E-01 -3.45862E-01
    8992.420     -6.969   0.920  3.25106E-01  6.56587E-01 -3.31481E-01
    8992.706     -6.682   0.960  3.52728E-01  6.71859E-01 -3.19130E-01
    8993.005     -6.384   1.000  3.79987E-01  6.87020E-01 -3.07033E-01
    8993.316     -6.073   1.040  4.13615E-01  7.02052E-01 -2.88438E-01
    8993.639     -5.750   1.080  4.59098E-01  7.16952E-01 -2.57853E-01
    8993.974     -5.414   1.120  5.09779E-01  7.31683E-01 -2.21904E-01
    8994.322     -5.067   1.160  5.45443E-01  7.46272E-01 -2.00829E-01
    8994.681     -4.707   1.200  5.54914E-01  7.60677E-01 -2.05763E-01
    8995.053     -4.335   1.240  5.50683E-01  7.74854E-01 -2.24170E-01
    8995.437     -3.951   1.280  5.48629E-01  7.88796E-01 -2.40167E-01
    8995.833     -3.555   1.320  5.52812E-01  8.02456E-01 -2.49644E-01
    8996.242     -3.147   1.360  5.59527E-01  8.15826E-01 -2.56299E-01
    8996.662     -2.726   1.400  5.67532E-01  8.28855E-01 -2.61323E-01
    8997.095     -2.293   1.440  5.84233E-01  8.41534E-01 -2.57302E-01
    8997.540     -1.848   1.480  6.22709E-01  8.53834E-01 -2.31125E-01
    8997.997     -1.391   1.520  6.92843E-01  8.65725E-01 -1.72882E-01
    8998.467     -0.922   1.560  7.74457E-01  8.77178E-01 -1.02721E-01
    8998.948     -0.440   1.600  8.25062E-01  8.88187E-01 -6.31251E-02
    8999.442      0.054   1.640  8.47616E-01  8.98747E-01 -5.11307E-02
    8999.948      0.560   1.680  8.93958E-01  9.08810E-01 -1.48512E-02
    9000.466      1.078   1.720  1.00532E+00  9.18392E-01  8.69280E-02
    9000.997      1.608   1.760  1.19172E+00  9.27491E-01  2.64229E-01
    9001.539      2.151   1.800  1.42764E+00  9.36065E-01  4.91578E-01
    9002.094      2.705   1.840  1.63745E+00  9.44134E-01  6.93321E-01
    9002.661      3.272   1.880  1.71369E+00  9.51720E-01  7.61966E-01
    9003.240      3.851   1.920  1.63752E+00  9.58784E-01  6.78734E-01
    9003.831      4.443   1.960  1.49826E+00  9.65347E-01  5.32913E-01
    9004.435      5.046   2.000  1.35930E+00  9.71437E-01  3.87865E-01
    9005.051      5.662   2.040  1.24560E+00  9.77038E-01  2.68566E-01
    9005.678      6.290   2.080  1.16553E+00  9.82157E-01  1.83375E-01
    9006.318      6.930   2.120  1.10841E+00  9.86840E-01  1.21572E-01
    9006.971      7.582   2.160  1.06575E+00  9.91076E-01  7.46691E-02
    9007.635      8.247   2.200  1.03885E+00  9.94892E-01  4.39574E-02
    9008.312      8.923   2.240  1.02503E+00  9.98296E-01  2.67287E-02
    9009.001      9.612   2.280  1.01942E+00  1.00130E+00  1.81240E-02
    9009.702     10.313   2.320  1.01879E+00  1.00393E+00  1.48620E-02
    9010.415     11.026   2.360  1.02058E+00  1.00622E+00  1.43633E-02
    9011.140     11.752   2.400  1.02567E+00  1.00815E+00  1.75151E-02
    9011.878     12.489   2.440  1.03290E+00  1.00979E+00  2.31105E-02
    9012.628     13.239   2.480  1.04060E+00  1.01113E+00  2.94684E-02
    9013.390     14.001   2.520  1.04835E+00  1.01219E+00  3.61549E-02
    9014.164     14.775   2.560  1.05307E+00  1.01300E+00  4.00691E-02
    9014.950     15.562   2.600  1.05383E+00  1.01357E+00  4.02614E-02
    9015.749     16.360   2.640  1.05127E+00  1.01392E+00  3.73505E-02
    9016.560     17.171   2.680  1.04624E+00  1.01407E+00  3.21761E-02
    9017.383     17.994   2.720  1.03917E+00  1.01402E+00  2.51491E-02
    9018.218     18.829   2.760  1.02975E+00  1.01383E+00  1.59131E-02
    9019.065     19.677   2.800  1.01711E+00  1.01348E+00  3.62186E-03
    9019.925     20.536   2.840  1.00135E+00  1.01299E+00 -1.16334E-02
    9020.796     21.408   2.880  9.83649E-01  1.01239E+00 -2.87397E-02
    9021.680     22.292   2.920  9.65782E-01  1.01170E+00 -4.59151E-02
    9022.576     23.188   2.960  9.49361E-01  1.01090E+00 -6.15370E-02
    9023.485     24.096   3.000  9.35017E-01  1.01002E+00 -7.50013E-02
    9024.405     25.017   3.040  9.22510E-01  1.00909E+00 -8.65769E-02
    9025.338     25.949   3.080  9.11425E-01  1.00811E+00 -9.66820E-02
    9026.283     26.894   3.120  9.01796E-01  1.00709E+00 -1.05291E-01
    9027.240     27.851   3.160  8.93653E-01  1.00603E+00 -1.12375E-01
    9028.209     28.821   3.200  8.86819E-01  1.00494E+00 -1.18118E-01
    9029.191     29.802   3.240  8.80865E-01  1.00386E+00 -1.22996E-01
    9030.184     30.796   3.280  8.75181E-01  1.00276E+00 -1.27578E-01
    9031.190     31.801   3.320  8.69621E-01  1.00166E+00 -1.32038E-01
    9032.208     32.820   3.360  8.64805E-01  1.00058E+00 -1.35780E-01
    9033.238     33.850   3.400  8.61920E-01  9.99519E-01 -1.37598E-01
    9034.281     34.892   3.440  8.62132E-01  9.98486E-01 -1.36353E-01
    9035.335     35.947   3.480  8.66321E-01  9.97487E-01 -1.31167E-01
    9036.402     37.014   3.520  8.74892E-01  9.96527E-01 -1.21634E-01
    9037.481     38.093   3.560  8.87795E-01  9.95604E-01 -1.07809E-01
    9038.572     39.184   3.600  9.04668E-01  9.94699E-01 -9.00309E-02
    9039.676     40.287   3.640  9.25339E-01  9.93858E-01 -6.85185E-02
    9040.791     41.403   3.680  9.49361E-01  9.93061E-01 -4.37009E-02
    9041.919     42.530   3.720  9.75926E-01  9.92332E-01 -1.64063E-02
    9043.059     43.670   3.760  1.00368E+00  9.91649E-01  1.20329E-02
    9044.211     44.822   3.800  1.03074E+00  9.91012E-01  3.97298E-02
    9045.375     45.987   3.840  1.05466E+00  9.90442E-01  6.42195E-02
    9046.552     47.163   3.880  1.07271E+00  9.89920E-01  8.27875E-02
    9047.741     48.352   3.920  1.08271E+00  9.89446E-01  9.32597E-02
    9048.942     49.553   3.960  1.08385E+00  9.89041E-01  9.48055E-02
    9050.155     50.766   4.000  1.07730E+00  9.88707E-01  8.85948E-02
    9051.380     51.991   4.040  1.06592E+00  9.88421E-01  7.75040E-02
    9052.617     53.229   4.080  1.05306E+00  9.88182E-01  6.48790E-02
    9053.867     54.479   4.120  1.04160E+00  9.88011E-01  5.35936E-02
    9055.129     55.740   4.160  1.03360E+00  9.87887E-01  4.57130E-02
    9056.403     57.014   4.200  1.03007E+00  9.87830E-01  4.22443E-02
    9057.689     58.301   4.240  1.03091E+00  9.87798E-01  4.31099E-02
    9058.988     59.599   4.280  1.03511E+00  9.87852E-01  4.72534E-02
    9060.298     60.910   4.320  1.04087E+00  9.87928E-01  5.29456E-02
    9061.621     62.233   4.360  1.04616E+00  9.88046E-01  5.81129E-02
    9062.956     63.568   4.400  1.04925E+00  9.88226E-01  6.10205E-02
    9064.303     64.915   4.440  1.04941E+00  9.88425E-01  6.09882E-02
    9065.663     66.274   4.480  1.04737E+00  9.88684E-01  5.86856E-02
    9067.034     67.646   4.520  1.04465E+00  9.88959E-01  5.56950E-02
    9068.418     69.030   4.560  1.04287E+00  9.89270E-01  5.35966E-02
    9069.814     70.426   4.600  1.04257E+00  9.89616E-01  5.29497E-02
    9071.222     71.834   4.640  1.04284E+00  9.89995E-01  5.28404E-02
    9072.643     73.254   4.680  1.04167E+00  9.90382E-01  5.12867E-02
    9074.075     74.687   4.720  1.03701E+00  9.90779E-01  4.62269E-02
    9075.520     76.131   4.760  1.02788E+00  9.91205E-01  3.66733E-02
    9076.977     77.588   4.800  1.01491E+00  9.91660E-01  2.32549E-02
    9078.446     79.057   4.840  9.99886E-01  9.92117E-01  7.76882E-03
    9079.927     80.539   4.880  9.84932E-01  9.92555E-01 -7.62216E-03
    9081.421     82.032   4.920  9.72025E-01  9.93014E-01 -2.09890E-02
    9082.927     83.538   4.960  9.62579E-01  9.93475E-01 -3.08962E-02
    9084.444     85.056   5.000  9.57439E-01  9.93935E-01 -3.64953E-02
    9085.975     86.586   5.040  9.56635E-01  9.94389E-01 -3.77542E-02
    9087.517     88.128   5.080  9.59271E-01  9.94817E-01 -3.55459E-02
    9089.071     89.683   5.120  9.63723E-01  9.95239E-01 -3.15163E-02
    9090.638     91.249   5.160  9.68020E-01  9.95656E-01 -2.76362E-02
    9092.217     92.828   5.200  9.70574E-01  9.96064E-01 -2.54901E-02
    9093.808     94.419   5.240  9.70695E-01  9.96440E-01 -2.57448E-02
    9095.411     96.023   5.280  9.68700E-01  9.96783E-01 -2.80832E-02
    9097.027     97.638   5.320  9.65574E-01  9.97113E-01 -3.15390E-02
    9098.654     99.266   5.360  9.62436E-01  9.97412E-01 -3.49751E-02
    9100.294    100.905   5.400  9.60044E-01  9.97695E-01 -3.76500E-02
    9101.946    102.557   5.440  9.58281E-01  9.97918E-01 -3.96371E-02
    9103.610    104.222   5.480  9.56542E-01  9.98127E-01 -4.15856E-02
    9105.287    105.898   5.520  9.54485E-01  9.98301E-01 -4.38164E-02
    9106.975    107.587   5.560  9.52666E-01  9.98459E-01 -4.57931E-02
    9108.676    109.287   5.600  9.52109E-01  9.98558E-01 -4.64489E-02
    9110.389    111.000   5.640  9.53252E-01  9.98638E-01 -4.53860E-02
    9112.114    112.726   5.680  9.56168E-01  9.98656E-01 -4.24878E-02
    9113.851    114.463   5.720  9.59966E-01  9.98655E-01 -3.86895E-02
    9115.601    116.212   5.760  9.63353E-01  9.98593E-01 -3.52402E-02
    9117.363    117.974   5.800  9.65625E-01  9.98516E-01 -3.28907E-02
    9119.137    119.748   5.840  9.67001E-01  9.98401E-01 -3.14003E-02
    9120.923    121.534   5.880  9.68502E-01  9.98223E-01 -2.97207E-02
    9122.721    123.333   5.920  9.71339E-01  9.98031E-01 -2.66916E-02
    9124.532    125.143   5.960  9.76561E-01  9.97802E-01 -2.12408E-02
    9126.354    126.966   6.000  9.84203E-01  9.97512E-01 -1.33088E-02
