# # comment:                                                     FEFF 9.9.1  
# # Source:
# # Structure
# # Reduced
# # space
# # abc:
# # angles:
# # sites:
# # POT  SCF 100  7.0000   0, screened core-hole, AFOLP (folp(0)= 1.150)
# # Abs   Z=29 Rmt= 1.243 Rnm= 1.360 K  shell
# # Pot 1 Z=29 Rmt= 1.251 Rnm= 1.357
# # Pot 2 Z= 1 Rmt= 0.709 Rnm= 0.849
# # Pot 3 Z=17 Rmt= 1.118 Rnm= 1.406
# # Pot 4 Z= 8 Rmt= 1.037 Rnm= 1.147
# # Gam_ch=1.729E+00 H-L exch Vi= 0.000E+00 Vr= 0.000E+00
# # Mu=-5.803E+00eV kf=2.025E+00 Vint=-1.344E+01eV Rs_int= 1.791
# FMS rfms= 9.0000
# # PATH  Rmax=-1.000,  Keep_limit= 0.00, Heap_limit 0.00  Pwcrit= 2.50%
#  S02=0.950  Temp=   0.00  Debye_temp=   0.00  Global_sig2= 0.00000
#  Energy zero shift, vr, vi    0.00000E+00   0.00000E+00
#  Curved wave amplitude ratio filter   4.000%
#     file         sig2 tot  cw amp ratio   deg  nlegs   reff  inp sig2
#     0/   0 paths used
#  xsedge+ 50, used to normalize mu           2.4293E-04
#  -----------------------------------------------------------------------
#  omega    e    k    mu    mu0     chi     @#
    8983.328     -9.613  -1.000  4.19515E-02  5.91867E-02 -1.72352E-02
    8983.626     -9.315  -0.960  4.41670E-02  6.36030E-02 -1.94360E-02
    8983.913     -9.028  -0.920  4.65359E-02  6.85164E-02 -2.19805E-02
    8984.187     -8.754  -0.880  4.90710E-02  7.40002E-02 -2.49292E-02
    8984.449     -8.492  -0.840  5.17861E-02  8.01397E-02 -2.83536E-02
    8984.699     -8.242  -0.800  5.46960E-02  8.70336E-02 -3.23376E-02
    8984.937     -8.004  -0.760  5.78164E-02  9.47952E-02 -3.69788E-02
    8985.163     -7.778  -0.720  6.11634E-02  1.03552E-01 -4.23890E-02
    8985.376     -7.565  -0.680  6.47534E-02  1.13446E-01 -4.86926E-02
    8985.577     -7.364  -0.640  6.86011E-02  1.24625E-01 -5.60234E-02
    8985.766     -7.175  -0.600  7.27185E-02  1.37234E-01 -6.45153E-02
    8985.943     -6.998  -0.560  7.71111E-02  1.51398E-01 -7.42874E-02
    8986.107     -6.833  -0.520  8.17733E-02  1.67192E-01 -8.54189E-02
    8986.260     -6.681  -0.480  8.66829E-02  1.84599E-01 -9.79162E-02
    8986.400     -6.541  -0.440  9.17936E-02  2.03466E-01 -1.11673E-01
    8986.528     -6.413  -0.400  9.70302E-02  2.23466E-01 -1.26436E-01
    8986.644     -6.297  -0.360  1.02287E-01  2.44082E-01 -1.41795E-01
    8986.748     -6.193  -0.320  1.07434E-01  2.64645E-01 -1.57211E-01
    8986.839     -6.102  -0.280  1.12330E-01  2.84409E-01 -1.72079E-01
    8986.918     -6.023  -0.240  1.16839E-01  3.02658E-01 -1.85819E-01
    8986.985     -5.956  -0.200  1.20840E-01  3.18790E-01 -1.97950E-01
    8987.040     -5.901  -0.160  1.24237E-01  3.32365E-01 -2.08128E-01
    8987.083     -5.858  -0.120  1.26955E-01  3.43098E-01 -2.16143E-01
    8987.113     -5.828  -0.080  1.28942E-01  3.50832E-01 -2.21890E-01
    8987.138     -5.803   0.000  1.30578E-01  3.57045E-01 -2.26467E-01
    8987.193     -5.748   0.120  1.34369E-01  3.71073E-01 -2.36704E-01
    8987.235     -5.706   0.160  1.37266E-01  3.81954E-01 -2.44689E-01
    8987.290     -5.651   0.200  1.41054E-01  3.95886E-01 -2.54832E-01
    8987.357     -5.584   0.240  1.45743E-01  4.12647E-01 -2.66904E-01
    8987.436     -5.505   0.280  1.51365E-01  4.31893E-01 -2.80527E-01
    8987.528     -5.413   0.320  1.58050E-01  4.53186E-01 -2.95136E-01
    8987.631     -5.309   0.360  1.65850E-01  4.75872E-01 -3.10022E-01
    8987.747     -5.194   0.400  1.74964E-01  4.99314E-01 -3.24350E-01
    8987.875     -5.066   0.440  1.85627E-01  5.22909E-01 -3.37282E-01
    8988.016     -4.925   0.480  1.98250E-01  5.46226E-01 -3.47976E-01
    8988.168     -4.773   0.520  2.13285E-01  5.68912E-01 -3.55627E-01
    8988.333     -4.608   0.560  2.31460E-01  5.90808E-01 -3.59349E-01
    8988.509     -4.432   0.600  2.53677E-01  6.11893E-01 -3.58216E-01
    8988.698     -4.243   0.640  2.80902E-01  6.32180E-01 -3.51278E-01
    8988.899     -4.042   0.680  3.13831E-01  6.51742E-01 -3.37911E-01
    8989.113     -3.828   0.720  3.52216E-01  6.70668E-01 -3.18452E-01
    8989.338     -3.603   0.760  3.94218E-01  6.89023E-01 -2.94805E-01
    8989.576     -3.365   0.800  4.36696E-01  7.06861E-01 -2.70165E-01
    8989.826     -3.115   0.840  4.77348E-01  7.24244E-01 -2.46896E-01
    8990.088     -2.853   0.880  5.17111E-01  7.41216E-01 -2.24105E-01
    8990.362     -2.578   0.920  5.59666E-01  7.57767E-01 -1.98101E-01
    8990.649     -2.292   0.960  6.07354E-01  7.73915E-01 -1.66561E-01
    8990.948     -1.993   1.000  6.57376E-01  7.89668E-01 -1.32293E-01
    8991.259     -1.682   1.040  7.01321E-01  8.05004E-01 -1.03682E-01
    8991.582     -1.359   1.080  7.29386E-01  8.19892E-01 -9.05062E-02
    8991.917     -1.024   1.120  7.38596E-01  8.34319E-01 -9.57232E-02
    8992.264     -0.677   1.160  7.31500E-01  8.48267E-01 -1.16767E-01
    8992.624     -0.317   1.200  7.10006E-01  8.61695E-01 -1.51689E-01
    8992.996      0.055   1.240  6.78659E-01  8.74580E-01 -1.95920E-01
    8993.380      0.439   1.280  6.47813E-01  8.86897E-01 -2.39084E-01
    8993.776      0.835   1.320  6.30241E-01  8.98645E-01 -2.68404E-01
    8994.185      1.244   1.360  6.33473E-01  9.09780E-01 -2.76308E-01
    8994.605      1.664   1.400  6.58172E-01  9.20300E-01 -2.62128E-01
    8995.038      2.097   1.440  7.03846E-01  9.30205E-01 -2.26360E-01
    8995.483      2.542   1.480  7.67119E-01  9.39455E-01 -1.72336E-01
    8995.940      2.999   1.520  8.38142E-01  9.48091E-01 -1.09950E-01
    8996.410      3.469   1.560  9.08508E-01  9.56059E-01 -4.75509E-02
    8996.891      3.950   1.600  9.77115E-01  9.63425E-01  1.36899E-02
    8997.385      4.444   1.640  1.04316E+00  9.70175E-01  7.29882E-02
    8997.891      4.950   1.680  1.10294E+00  9.76297E-01  1.26645E-01
    8998.409      5.468   1.720  1.15663E+00  9.81844E-01  1.74783E-01
    8998.939      5.999   1.760  1.21146E+00  9.86826E-01  2.24637E-01
    8999.482      6.541   1.800  1.28041E+00  9.91255E-01  2.89157E-01
    9000.037      7.096   1.840  1.37175E+00  9.95166E-01  3.76587E-01
    9000.604      7.663   1.880  1.47224E+00  9.98572E-01  4.73669E-01
    9001.183      8.242   1.920  1.54587E+00  1.00151E+00  5.44361E-01
    9001.774      8.833   1.960  1.55386E+00  1.00401E+00  5.49850E-01
    9002.378      9.437   2.000  1.49283E+00  1.00609E+00  4.86736E-01
    9002.993     10.052   2.040  1.39989E+00  1.00781E+00  3.92071E-01
    9003.621     10.680   2.080  1.31308E+00  1.00915E+00  3.03933E-01
    9004.261     11.320   2.120  1.24841E+00  1.01016E+00  2.38245E-01
    9004.914     11.973   2.160  1.20197E+00  1.01088E+00  1.91091E-01
    9005.578     12.637   2.200  1.16147E+00  1.01134E+00  1.50130E-01
    9006.255     13.314   2.240  1.12026E+00  1.01155E+00  1.08711E-01
    9006.944     14.003   2.280  1.08234E+00  1.01154E+00  7.07992E-02
    9007.645     14.704   2.320  1.05755E+00  1.01135E+00  4.61918E-02
    9008.358     15.417   2.360  1.05123E+00  1.01097E+00  4.02527E-02
    9009.083     16.142   2.400  1.05721E+00  1.01046E+00  4.67476E-02
    9009.821     16.880   2.440  1.06040E+00  1.00982E+00  5.05807E-02
    9010.571     17.630   2.480  1.05212E+00  1.00908E+00  4.30466E-02
    9011.333     18.392   2.520  1.03626E+00  1.00825E+00  2.80063E-02
    9012.107     19.166   2.560  1.01631E+00  1.00735E+00  8.95543E-03
    9012.893     19.952   2.600  9.95876E-01  1.00642E+00 -1.05473E-02
    9013.692     20.751   2.640  9.77566E-01  1.00544E+00 -2.78705E-02
    9014.503     21.562   2.680  9.62372E-01  1.00444E+00 -4.20645E-02
    9015.325     22.385   2.720  9.50099E-01  1.00343E+00 -5.33340E-02
    9016.161     23.220   2.760  9.39745E-01  1.00245E+00 -6.27079E-02
    9017.008     24.067   2.800  9.30553E-01  1.00148E+00 -7.09266E-02
    9017.867     24.927   2.840  9.22111E-01  1.00052E+00 -7.84060E-02
    9018.739     25.798   2.880  9.14117E-01  9.99612E-01 -8.54949E-02
    9019.623     26.682   2.920  9.06505E-01  9.98729E-01 -9.22245E-02
    9020.519     27.578   2.960  8.99654E-01  9.97933E-01 -9.82789E-02
    9021.428     28.487   3.000  8.93789E-01  9.97165E-01 -1.03376E-01
    9022.348     29.407   3.040  8.89420E-01  9.96468E-01 -1.07048E-01
    9023.281     30.340   3.080  8.87173E-01  9.95846E-01 -1.08673E-01
    9024.226     31.285   3.120  8.86842E-01  9.95301E-01 -1.08459E-01
    9025.183     32.242   3.160  8.87858E-01  9.94813E-01 -1.06955E-01
    9026.152     33.211   3.200  8.89723E-01  9.94425E-01 -1.04702E-01
    9027.133     34.192   3.240  8.92038E-01  9.94097E-01 -1.02059E-01
    9028.127     35.186   3.280  8.94789E-01  9.93872E-01 -9.90827E-02
    9029.133     36.192   3.320  8.98213E-01  9.93728E-01 -9.55153E-02
    9030.151     37.210   3.360  9.02630E-01  9.93645E-01 -9.10150E-02
    9031.181     38.240   3.400  9.08074E-01  9.93664E-01 -8.55902E-02
    9032.224     39.283   3.440  9.14418E-01  9.93765E-01 -7.93472E-02
    9033.278     40.337   3.480  9.21453E-01  9.93947E-01 -7.24948E-02
    9034.345     41.404   3.520  9.28913E-01  9.94187E-01 -6.52739E-02
    9035.424     42.483   3.560  9.36670E-01  9.94528E-01 -5.78573E-02
    9036.515     43.574   3.600  9.44728E-01  9.94947E-01 -5.02196E-02
    9037.618     44.678   3.640  9.53159E-01  9.95422E-01 -4.22625E-02
    9038.734     45.793   3.680  9.62046E-01  9.95971E-01 -3.39252E-02
    9039.862     46.921   3.720  9.71437E-01  9.96592E-01 -2.51551E-02
    9041.002     48.061   3.760  9.81362E-01  9.97263E-01 -1.59008E-02
    9042.154     49.213   3.800  9.91784E-01  9.97982E-01 -6.19837E-03
    9043.318     50.377   3.840  1.00272E+00  9.98768E-01  3.94961E-03
    9044.495     51.554   3.880  1.01421E+00  9.99598E-01  1.46072E-02
    9045.683     52.742   3.920  1.02621E+00  1.00047E+00  2.57353E-02
    9046.884     53.943   3.960  1.03854E+00  1.00138E+00  3.71615E-02
    9048.097     55.157   4.000  1.05094E+00  1.00233E+00  4.86099E-02
    9049.323     56.382   4.040  1.06311E+00  1.00331E+00  5.97962E-02
    9050.560     57.619   4.080  1.07479E+00  1.00431E+00  7.04776E-02
    9051.810     58.869   4.120  1.08578E+00  1.00533E+00  8.04524E-02
    9053.072     60.131   4.160  1.09583E+00  1.00636E+00  8.94712E-02
    9054.346     61.405   4.200  1.10452E+00  1.00739E+00  9.71297E-02
    9055.632     62.691   4.240  1.11138E+00  1.00845E+00  1.02929E-01
    9056.931     63.990   4.280  1.11594E+00  1.00948E+00  1.06463E-01
    9058.241     65.300   4.320  1.11791E+00  1.01050E+00  1.07411E-01
    9059.564     66.623   4.360  1.11698E+00  1.01152E+00  1.05456E-01
    9060.899     67.958   4.400  1.11284E+00  1.01251E+00  1.00334E-01
    9062.246     69.305   4.440  1.10544E+00  1.01348E+00  9.19624E-02
    9063.606     70.665   4.480  1.09505E+00  1.01442E+00  8.06335E-02
    9064.977     72.036   4.520  1.08251E+00  1.01535E+00  6.71664E-02
    9066.361     73.420   4.560  1.06901E+00  1.01621E+00  5.28030E-02
    9067.757     74.816   4.600  1.05591E+00  1.01705E+00  3.88637E-02
    9069.165     76.224   4.640  1.04416E+00  1.01782E+00  2.63365E-02
    9070.585     77.645   4.680  1.03417E+00  1.01855E+00  1.56234E-02
    9072.018     79.077   4.720  1.02574E+00  1.01923E+00  6.51089E-03
    9073.463     80.522   4.760  1.01830E+00  1.01987E+00 -1.56795E-03
    9074.920     81.979   4.800  1.01120E+00  1.02043E+00 -9.23006E-03
    9076.389     83.448   4.840  1.00400E+00  1.02095E+00 -1.69436E-02
    9077.870     84.929   4.880  9.96516E-01  1.02141E+00 -2.48948E-02
    9079.364     86.423   4.920  9.88702E-01  1.02178E+00 -3.30750E-02
    9080.869     87.928   4.960  9.80794E-01  1.02211E+00 -4.13193E-02
    9082.387     89.446   5.000  9.73082E-01  1.02237E+00 -4.92924E-02
    9083.917     90.976   5.040  9.66094E-01  1.02256E+00 -5.64637E-02
    9085.460     92.519   5.080  9.60544E-01  1.02267E+00 -6.21221E-02
    9087.014     94.073   5.120  9.57097E-01  1.02272E+00 -6.56246E-02
    9088.581     95.640   5.160  9.56113E-01  1.02272E+00 -6.66117E-02
    9090.160     97.219   5.200  9.57546E-01  1.02263E+00 -6.50855E-02
    9091.751     98.810   5.240  9.61170E-01  1.02251E+00 -6.13382E-02
    9093.354    100.413   5.280  9.66536E-01  1.02231E+00 -5.57770E-02
    9094.969    102.028   5.320  9.73205E-01  1.02204E+00 -4.88389E-02
    9096.597    103.656   5.360  9.80868E-01  1.02172E+00 -4.08549E-02
    9098.237    105.296   5.400  9.89122E-01  1.02133E+00 -3.22115E-02
    9099.889    106.948   5.440  9.97403E-01  1.02092E+00 -2.35166E-02
    9101.553    108.612   5.480  1.00474E+00  1.02044E+00 -1.56971E-02
    9103.229    110.288   5.520  1.01017E+00  1.01991E+00 -9.74131E-03
    9104.918    111.977   5.560  1.01305E+00  1.01934E+00 -6.29930E-03
    9106.619    113.678   5.600  1.01330E+00  1.01874E+00 -5.43963E-03
    9108.332    115.391   5.640  1.01138E+00  1.01809E+00 -6.70269E-03
    9110.057    117.116   5.680  1.00810E+00  1.01740E+00 -9.29368E-03
    9111.794    118.853   5.720  1.00439E+00  1.01667E+00 -1.22820E-02
    9113.544    120.603   5.760  1.00120E+00  1.01594E+00 -1.47406E-02
    9115.306    122.365   5.800  9.99279E-01  1.01518E+00 -1.58974E-02
    9117.079    124.139   5.840  9.99098E-01  1.01441E+00 -1.53097E-02
    9118.866    125.925   5.880  1.00059E+00  1.01361E+00 -1.30267E-02
    9120.664    127.723   5.920  1.00330E+00  1.01282E+00 -9.52511E-03
    9122.474    129.533   5.960  1.00662E+00  1.01202E+00 -5.39992E-03
    9124.297    131.356   6.000  1.01040E+00  1.01124E+00 -8.39035E-04
