# # comment:                                                     FEFF 9.9.1  
# # Source:
# # Structure
# # Reduced
# # space
# # abc:
# # angles:
# # sites:
# # POT  SCF 100  7.0000   0, screened core-hole, AFOLP (folp(0)= 1.150)
# # Abs   Z=29 Rmt= 1.350 Rnm= 1.417 K  shell
# # Pot 1 Z= 3 Rmt= 1.270 Rnm= 1.332
# # Pot 2 Z=29 Rmt= 1.361 Rnm= 1.421
# # Pot 3 Z=15 Rmt= 0.950 Rnm= 1.162
# # Pot 4 Z= 8 Rmt= 0.944 Rnm= 1.043
# # Gam_ch=1.729E+00 H-L exch Vi= 0.000E+00 Vr= 0.000E+00
# # Mu=-6.114E+00eV kf=2.358E+00 Vint=-1.712E+01eV Rs_int= 1.538
# FMS rfms= 9.0000
# # PATH  Rmax=-1.000,  Keep_limit= 0.00, Heap_limit 0.00  Pwcrit= 2.50%
#  S02=0.950  Temp=   0.00  Debye_temp=   0.00  Global_sig2= 0.00000
#  Energy zero shift, vr, vi    0.00000E+00   0.00000E+00
#  Curved wave amplitude ratio filter   4.000%
#     file         sig2 tot  cw amp ratio   deg  nlegs   reff  inp sig2
#     0/   0 paths used
#  xsedge+ 50, used to normalize mu           2.4664E-04
#  -----------------------------------------------------------------------
#  omega    e    k    mu    mu0     chi     @#
    8983.575     -9.924  -1.000  5.34701E-02  5.50904E-02 -1.62032E-03
    8983.874     -9.625  -0.960  5.72500E-02  5.91285E-02 -1.87849E-03
    8984.161     -9.339  -0.920  6.14482E-02  6.36203E-02 -2.17205E-03
    8984.435     -9.064  -0.880  6.61280E-02  6.86332E-02 -2.50513E-03
    8984.697     -8.802  -0.840  7.13635E-02  7.42457E-02 -2.88220E-03
    8984.947     -8.552  -0.800  7.72408E-02  8.05489E-02 -3.30817E-03
    8985.185     -8.315  -0.760  8.38592E-02  8.76475E-02 -3.78830E-03
    8985.410     -8.089  -0.720  9.13316E-02  9.56598E-02 -4.32820E-03
    8985.624     -7.876  -0.680  9.97826E-02  1.04716E-01 -4.93364E-03
    8985.825     -7.674  -0.640  1.09344E-01  1.14955E-01 -5.61027E-03
    8986.014     -7.486  -0.600  1.20148E-01  1.26511E-01 -6.36297E-03
    8986.191     -7.309  -0.560  1.32306E-01  1.39501E-01 -7.19480E-03
    8986.355     -7.144  -0.520  1.45888E-01  1.53993E-01 -8.10534E-03
    8986.507     -6.992  -0.480  1.60886E-01  1.69975E-01 -9.08842E-03
    8986.648     -6.852  -0.440  1.77174E-01  1.87304E-01 -1.01297E-02
    8986.776     -6.724  -0.400  1.94473E-01  2.05678E-01 -1.12049E-02
    8986.892     -6.608  -0.360  2.12338E-01  2.24618E-01 -1.22803E-02
    8986.995     -6.504  -0.320  2.30188E-01  2.43505E-01 -1.33165E-02
    8987.087     -6.413  -0.280  2.47375E-01  2.61650E-01 -1.42746E-02
    8987.166     -6.333  -0.240  2.63269E-01  2.78392E-01 -1.51231E-02
    8987.233     -6.266  -0.200  2.77338E-01  2.93180E-01 -1.58417E-02
    8987.288     -6.211  -0.160  2.89192E-01  3.05613E-01 -1.64209E-02
    8987.330     -6.169  -0.120  2.98575E-01  3.15435E-01 -1.68596E-02
    8987.361     -6.138  -0.080  3.05344E-01  3.22507E-01 -1.71638E-02
    8987.385     -6.114   0.000  3.10779E-01  3.28187E-01 -1.74088E-02
    8987.440     -6.059   0.120  3.22775E-01  3.40984E-01 -1.82090E-02
    8987.483     -6.016   0.160  3.32200E-01  3.50929E-01 -1.87292E-02
    8987.538     -5.962   0.200  3.44272E-01  3.63606E-01 -1.93338E-02
    8987.605     -5.894   0.240  3.58853E-01  3.78827E-01 -1.99746E-02
    8987.684     -5.815   0.280  3.75700E-01  3.96272E-01 -2.05727E-02
    8987.775     -5.724   0.320  3.94442E-01  4.15476E-01 -2.10339E-02
    8987.879     -5.620   0.360  4.14606E-01  4.35861E-01 -2.12552E-02
    8987.995     -5.504   0.400  4.35653E-01  4.56796E-01 -2.11432E-02
    8988.123     -5.376   0.440  4.56965E-01  4.77724E-01 -2.07590E-02
    8988.263     -5.236   0.480  4.77685E-01  4.98213E-01 -2.05280E-02
    8988.416     -5.084   0.520  4.96465E-01  5.17992E-01 -2.15267E-02
    8988.580     -4.919   0.560  5.11266E-01  5.36898E-01 -2.56313E-02
    8988.757     -4.742   0.600  5.19949E-01  5.54959E-01 -3.50097E-02
    8988.946     -4.553   0.640  5.21299E-01  5.72181E-01 -5.08821E-02
    8989.147     -4.352   0.680  5.16212E-01  5.88691E-01 -7.24782E-02
    8989.360     -4.139   0.720  5.07290E-01  6.04585E-01 -9.72945E-02
    8989.586     -3.913   0.760  4.97645E-01  6.19983E-01 -1.22338E-01
    8989.824     -3.676   0.800  4.90233E-01  6.34976E-01 -1.44743E-01
    8990.074     -3.426   0.840  4.88027E-01  6.49620E-01 -1.61593E-01
    8990.336     -3.163   0.880  4.93734E-01  6.64037E-01 -1.70303E-01
    8990.610     -2.889   0.920  5.08019E-01  6.78233E-01 -1.70213E-01
    8990.897     -2.603   0.960  5.28286E-01  6.92263E-01 -1.63977E-01
    8991.195     -2.304   1.000  5.49707E-01  7.06173E-01 -1.56465E-01
    8991.506     -1.993   1.040  5.69323E-01  7.19953E-01 -1.50630E-01
    8991.829     -1.670   1.080  5.88692E-01  7.33610E-01 -1.44917E-01
    8992.165     -1.335   1.120  6.11138E-01  7.47182E-01 -1.36044E-01
    8992.512     -0.987   1.160  6.38423E-01  7.60621E-01 -1.22198E-01
    8992.872     -0.628   1.200  6.72726E-01  7.73914E-01 -1.01188E-01
    8993.244     -0.256   1.240  7.18174E-01  7.87085E-01 -6.89111E-02
    8993.628      0.128   1.280  7.76925E-01  8.00094E-01 -2.31691E-02
    8994.024      0.525   1.320  8.46360E-01  8.12940E-01  3.34201E-02
    8994.432      0.933   1.360  9.20087E-01  8.25556E-01  9.45317E-02
    8994.853      1.354   1.400  9.92130E-01  8.37955E-01  1.54174E-01
    8995.286      1.786   1.440  1.05990E+00  8.50113E-01  2.09790E-01
    8995.731      2.231   1.480  1.12574E+00  8.61980E-01  2.63760E-01
    8996.188      2.689   1.520  1.19423E+00  8.73569E-01  3.20660E-01
    8996.657      3.158   1.560  1.25919E+00  8.84808E-01  3.74380E-01
    8997.139      3.640   1.600  1.30642E+00  8.95732E-01  4.10690E-01
    8997.633      4.133   1.640  1.32882E+00  9.06271E-01  4.22545E-01
    8998.139      4.639   1.680  1.32206E+00  9.16437E-01  4.05624E-01
    8998.657      5.158   1.720  1.28242E+00  9.26181E-01  3.56236E-01
    8999.187      5.688   1.760  1.22072E+00  9.35520E-01  2.85205E-01
    8999.730      6.230   1.800  1.15797E+00  9.44426E-01  2.13546E-01
    9000.284      6.785   1.840  1.10582E+00  9.52874E-01  1.52941E-01
    9000.851      7.352   1.880  1.06746E+00  9.60881E-01  1.06584E-01
    9001.430      7.931   1.920  1.05042E+00  9.68405E-01  8.20151E-02
    9002.022      8.523   1.960  1.05801E+00  9.75483E-01  8.25267E-02
    9002.625      9.126   2.000  1.08021E+00  9.82075E-01  9.81325E-02
    9003.241      9.742   2.040  1.09759E+00  9.88202E-01  1.09386E-01
    9003.869     10.370   2.080  1.09455E+00  9.93866E-01  1.00689E-01
    9004.509     11.010   2.120  1.07098E+00  9.99070E-01  7.19152E-02
    9005.161     11.662   2.160  1.03806E+00  1.00382E+00  3.42467E-02
    9005.826     12.326   2.200  1.00684E+00  1.00811E+00 -1.27171E-03
    9006.502     13.003   2.240  9.84948E-01  1.01195E+00 -2.70042E-02
    9007.191     13.692   2.280  9.75952E-01  1.01537E+00 -3.94227E-02
    9007.892     14.393   2.320  9.77292E-01  1.01838E+00 -4.10911E-02
    9008.605     15.106   2.360  9.81736E-01  1.02098E+00 -3.92482E-02
    9009.331     15.832   2.400  9.83427E-01  1.02321E+00 -3.97798E-02
    9010.068     16.569   2.440  9.81247E-01  1.02506E+00 -4.38113E-02
    9010.818     17.319   2.480  9.75855E-01  1.02655E+00 -5.06929E-02
    9011.580     18.081   2.520  9.68094E-01  1.02771E+00 -5.96121E-02
    9012.354     18.855   2.560  9.60541E-01  1.02856E+00 -6.80224E-02
    9013.141     19.642   2.600  9.56809E-01  1.02913E+00 -7.23187E-02
    9013.939     20.440   2.640  9.57944E-01  1.02941E+00 -7.14656E-02
    9014.750     21.251   2.680  9.62295E-01  1.02942E+00 -6.71212E-02
    9015.573     22.074   2.720  9.67308E-01  1.02920E+00 -6.18935E-02
    9016.408     22.909   2.760  9.72356E-01  1.02875E+00 -5.63972E-02
    9017.256     23.756   2.800  9.76665E-01  1.02812E+00 -5.14552E-02
    9018.115     24.616   2.840  9.78790E-01  1.02730E+00 -4.85057E-02
    9018.987     25.488   2.880  9.78987E-01  1.02633E+00 -4.73419E-02
    9019.871     26.372   2.920  9.78104E-01  1.02521E+00 -4.71011E-02
    9020.767     27.268   2.960  9.76697E-01  1.02395E+00 -4.72584E-02
    9021.675     28.176   3.000  9.74778E-01  1.02259E+00 -4.78098E-02
    9022.596     29.096   3.040  9.72091E-01  1.02113E+00 -4.90394E-02
    9023.528     30.029   3.080  9.68510E-01  1.01959E+00 -5.10795E-02
    9024.473     30.974   3.120  9.64255E-01  1.01798E+00 -5.37224E-02
    9025.430     31.931   3.160  9.59740E-01  1.01634E+00 -5.66009E-02
    9026.400     32.900   3.200  9.55456E-01  1.01467E+00 -5.92104E-02
    9027.381     33.882   3.240  9.52120E-01  1.01296E+00 -6.08371E-02
    9028.375     34.875   3.280  9.50467E-01  1.01124E+00 -6.07721E-02
    9029.380     35.881   3.320  9.50991E-01  1.00952E+00 -5.85299E-02
    9030.399     36.899   3.360  9.53915E-01  1.00781E+00 -5.38916E-02
    9031.429     37.929   3.400  9.59344E-01  1.00612E+00 -4.67794E-02
    9032.471     38.972   3.440  9.67311E-01  1.00447E+00 -3.71636E-02
    9033.526     40.027   3.480  9.77733E-01  1.00284E+00 -2.51113E-02
    9034.593     41.093   3.520  9.90410E-01  1.00128E+00 -1.08682E-02
    9035.672     42.172   3.560  1.00477E+00  9.99780E-01  4.99120E-03
    9036.763     43.263   3.600  1.01995E+00  9.98331E-01  2.16183E-02
    9037.866     44.367   3.640  1.03498E+00  9.96935E-01  3.80489E-02
    9038.982     45.482   3.680  1.04895E+00  9.95634E-01  5.33146E-02
    9040.109     46.610   3.720  1.06089E+00  9.94391E-01  6.64992E-02
    9041.249     47.750   3.760  1.07022E+00  9.93227E-01  7.69896E-02
    9042.401     48.902   3.800  1.07659E+00  9.92168E-01  8.44193E-02
    9043.566     50.067   3.840  1.07975E+00  9.91191E-01  8.85565E-02
    9044.742     51.243   3.880  1.07963E+00  9.90277E-01  8.93495E-02
    9045.931     52.432   3.920  1.07635E+00  9.89491E-01  8.68615E-02
    9047.132     53.633   3.960  1.07000E+00  9.88769E-01  8.12332E-02
    9048.345     54.846   4.000  1.06092E+00  9.88154E-01  7.27673E-02
    9049.570     56.071   4.040  1.04973E+00  9.87624E-01  6.21080E-02
    9050.808     57.309   4.080  1.03727E+00  9.87180E-01  5.00847E-02
    9052.058     58.558   4.120  1.02445E+00  9.86844E-01  3.76084E-02
    9053.319     59.820   4.160  1.01213E+00  9.86594E-01  2.55378E-02
    9054.593     61.094   4.200  1.00100E+00  9.86428E-01  1.45712E-02
    9055.880     62.380   4.240  9.91488E-01  9.86368E-01  5.12005E-03
    9057.178     63.679   4.280  9.83680E-01  9.86367E-01 -2.68767E-03
    9058.489     64.990   4.320  9.77461E-01  9.86469E-01 -9.00775E-03
    9059.812     66.312   4.360  9.72412E-01  9.86630E-01 -1.42183E-02
    9061.147     67.647   4.400  9.68128E-01  9.86890E-01 -1.87614E-02
    9062.494     68.995   4.440  9.64222E-01  9.87204E-01 -2.29817E-02
    9063.853     70.354   4.480  9.60570E-01  9.87591E-01 -2.70218E-02
    9065.225     71.726   4.520  9.57287E-01  9.88029E-01 -3.07415E-02
    9066.609     73.109   4.560  9.54747E-01  9.88537E-01 -3.37900E-02
    9068.005     74.505   4.600  9.53306E-01  9.89092E-01 -3.57866E-02
    9069.413     75.914   4.640  9.53284E-01  9.89713E-01 -3.64295E-02
    9070.833     77.334   4.680  9.54836E-01  9.90355E-01 -3.55192E-02
    9072.266     78.766   4.720  9.58022E-01  9.91056E-01 -3.30335E-02
    9073.710     80.211   4.760  9.62701E-01  9.91772E-01 -2.90709E-02
    9075.167     81.668   4.800  9.68619E-01  9.92523E-01 -2.39038E-02
    9076.636     83.137   4.840  9.75290E-01  9.93305E-01 -1.80153E-02
    9078.118     84.619   4.880  9.82046E-01  9.94093E-01 -1.20470E-02
    9079.611     86.112   4.920  9.88259E-01  9.94883E-01 -6.62438E-03
    9081.117     87.618   4.960  9.93598E-01  9.95675E-01 -2.07760E-03
    9082.635     89.136   5.000  9.98129E-01  9.96465E-01  1.66343E-03
    9084.165     90.666   5.040  1.00212E+00  9.97252E-01  4.86294E-03
    9085.707     92.208   5.080  1.00569E+00  9.98034E-01  7.65825E-03
    9087.262     93.763   5.120  1.00869E+00  9.98784E-01  9.90761E-03
    9088.828     95.329   5.160  1.01085E+00  9.99523E-01  1.13240E-02
    9090.407     96.908   5.200  1.01191E+00  1.00023E+00  1.16818E-02
    9091.998     98.499   5.240  1.01180E+00  1.00089E+00  1.09103E-02
    9093.602    100.102   5.280  1.01051E+00  1.00152E+00  8.99631E-03
    9095.217    101.718   5.320  1.00792E+00  1.00210E+00  5.82380E-03
    9096.845    103.345   5.360  1.00383E+00  1.00264E+00  1.19178E-03
    9098.484    104.985   5.400  9.98226E-01  1.00313E+00 -4.90391E-03
    9100.136    106.637   5.440  9.91485E-01  1.00355E+00 -1.20688E-02
    9101.801    108.301   5.480  9.84431E-01  1.00393E+00 -1.94995E-02
    9103.477    109.978   5.520  9.78081E-01  1.00426E+00 -2.61758E-02
    9105.166    111.666   5.560  9.73370E-01  1.00449E+00 -3.11172E-02
    9106.866    113.367   5.600  9.71092E-01  1.00469E+00 -3.35958E-02
    9108.579    115.080   5.640  9.71538E-01  1.00479E+00 -3.32530E-02
    9110.305    116.805   5.680  9.74665E-01  1.00484E+00 -3.01765E-02
    9112.042    118.543   5.720  9.79950E-01  1.00482E+00 -2.48685E-02
    9113.791    120.292   5.760  9.86670E-01  1.00474E+00 -1.80709E-02
    9115.553    122.054   5.800  9.94050E-01  1.00457E+00 -1.05167E-02
    9117.327    123.828   5.840  1.00160E+00  1.00434E+00 -2.74364E-03
    9119.113    125.614   5.880  1.00905E+00  1.00407E+00  4.97216E-03
    9120.912    127.412   5.920  1.01626E+00  1.00373E+00  1.25258E-02
    9122.722    129.223   5.960  1.02308E+00  1.00331E+00  1.97687E-02
    9124.545    131.045   6.000  1.02925E+00  1.00280E+00  2.64482E-02
