# # comment:                                                     FEFF 9.9.1  
# # Source:
# # Structure
# # Reduced
# # space
# # abc:
# # angles:
# # sites:
# # POT  SCF 100  7.0000   0, screened core-hole, AFOLP (folp(0)= 1.150)
# # Abs   Z=29 Rmt= 1.276 Rnm= 1.411 K  shell
# # Pot 1 Z=29 Rmt= 1.276 Rnm= 1.411
# # Pot 2 Z=15 Rmt= 0.944 Rnm= 1.158
# # Pot 3 Z= 8 Rmt= 0.864 Rnm= 1.036
# # Gam_ch=1.729E+00 H-L exch Vi= 0.000E+00 Vr= 0.000E+00
# # Mu=-5.960E+00eV kf=2.446E+00 Vint=-1.717E+01eV Rs_int= 1.483
# FMS rfms= 9.0000
# # PATH  Rmax=-1.000,  Keep_limit= 0.00, Heap_limit 0.00  Pwcrit= 2.50%
#  S02=0.950  Temp=   0.00  Debye_temp=   0.00  Global_sig2= 0.00000
#  Energy zero shift, vr, vi    0.00000E+00   0.00000E+00
#  Curved wave amplitude ratio filter   4.000%
#     file         sig2 tot  cw amp ratio   deg  nlegs   reff  inp sig2
#     0/   0 paths used
#  xsedge+ 50, used to normalize mu           2.4970E-04
#  -----------------------------------------------------------------------
#  omega    e    k    mu    mu0     chi     @#
    8983.246     -9.770  -1.000  5.35950E-02  5.30738E-02  5.21204E-04
    8983.545     -9.472  -0.960  5.75830E-02  5.69380E-02  6.45018E-04
    8983.831     -9.185  -0.920  6.20341E-02  6.12354E-02  7.98680E-04
    8984.106     -8.911  -0.880  6.70195E-02  6.60302E-02  9.89314E-04
    8984.368     -8.649  -0.840  7.26231E-02  7.13974E-02  1.22568E-03
    8984.618     -8.399  -0.800  7.89424E-02  7.74239E-02  1.51847E-03
    8984.855     -8.161  -0.760  8.60904E-02  8.42098E-02  1.88061E-03
    8985.081     -7.935  -0.720  9.41954E-02  9.18679E-02  2.32743E-03
    8985.294     -7.722  -0.680  1.03400E-01  1.00523E-01  2.87665E-03
    8985.495     -7.521  -0.640  1.13854E-01  1.10307E-01  3.54793E-03
    8985.684     -7.332  -0.600  1.25710E-01  1.21348E-01  4.36160E-03
    8985.861     -7.155  -0.560  1.39095E-01  1.33759E-01  5.33621E-03
    8986.026     -6.991  -0.520  1.54089E-01  1.47605E-01  6.48449E-03
    8986.178     -6.838  -0.480  1.70679E-01  1.62872E-01  7.80757E-03
    8986.318     -6.698  -0.440  1.88714E-01  1.79426E-01  9.28836E-03
    8986.446     -6.570  -0.400  2.07863E-01  1.96977E-01  1.08862E-02
    8986.562     -6.454  -0.360  2.27605E-01  2.15069E-01  1.25362E-02
    8986.666     -6.351  -0.320  2.47265E-01  2.33109E-01  1.41561E-02
    8986.757     -6.259  -0.280  2.66101E-01  2.50440E-01  1.56609E-02
    8986.837     -6.180  -0.240  2.83409E-01  2.66430E-01  1.69793E-02
    8986.904     -6.113  -0.200  2.98620E-01  2.80553E-01  1.80672E-02
    8986.959     -6.058  -0.160  3.11336E-01  2.92426E-01  1.89107E-02
    8987.001     -6.015  -0.120  3.21325E-01  3.01805E-01  1.95200E-02
    8987.032     -5.985  -0.080  3.28475E-01  3.08559E-01  1.99159E-02
    8987.056     -5.960   0.000  3.34153E-01  3.13983E-01  2.01704E-02
    8987.111     -5.906   0.120  3.46815E-01  3.26208E-01  2.06073E-02
    8987.154     -5.863   0.160  3.56667E-01  3.35694E-01  2.09739E-02
    8987.208     -5.808   0.200  3.69187E-01  3.47801E-01  2.13856E-02
    8987.276     -5.741   0.240  3.84105E-01  3.62333E-01  2.17722E-02
    8987.355     -5.662   0.280  4.01024E-01  3.78977E-01  2.20466E-02
    8987.446     -5.570   0.320  4.19434E-01  3.97311E-01  2.21230E-02
    8987.550     -5.467   0.360  4.38707E-01  4.16761E-01  2.19453E-02
    8987.666     -5.351   0.400  4.58249E-01  4.36722E-01  2.15274E-02
    8987.794     -5.223   0.440  4.77640E-01  4.56679E-01  2.09610E-02
    8987.934     -5.083   0.480  4.96552E-01  4.76204E-01  2.03483E-02
    8988.086     -4.930   0.520  5.14715E-01  4.95055E-01  1.96604E-02
    8988.251     -4.766   0.560  5.31619E-01  5.13073E-01  1.85463E-02
    8988.428     -4.589   0.600  5.46578E-01  5.30252E-01  1.63265E-02
    8988.617     -4.400   0.640  5.59046E-01  5.46654E-01  1.23922E-02
    8988.818     -4.199   0.680  5.69150E-01  5.62359E-01  6.79091E-03
    8989.031     -3.985   0.720  5.77670E-01  5.77504E-01  1.65894E-04
    8989.257     -3.760   0.760  5.85048E-01  5.92165E-01 -7.11773E-03
    8989.494     -3.522   0.800  5.91112E-01  6.06448E-01 -1.53357E-02
    8989.744     -3.272   0.840  5.96164E-01  6.20426E-01 -2.42618E-02
    8990.007     -3.010   0.880  6.02343E-01  6.34181E-01 -3.18378E-02
    8990.281     -2.736   0.920  6.12922E-01  6.47757E-01 -3.48350E-02
    8990.567     -2.449   0.960  6.29957E-01  6.61189E-01 -3.12320E-02
    8990.866     -2.150   1.000  6.52372E-01  6.74520E-01 -2.21480E-02
    8991.177     -1.840   1.040  6.75955E-01  6.87786E-01 -1.18306E-02
    8991.500     -1.516   1.080  6.95525E-01  7.00951E-01 -5.42559E-03
    8991.835     -1.181   1.120  7.07891E-01  7.14056E-01 -6.16539E-03
    8992.183     -0.834   1.160  7.13122E-01  7.27094E-01 -1.39723E-02
    8992.542     -0.474   1.200  7.14951E-01  7.40053E-01 -2.51022E-02
    8992.914     -0.102   1.240  7.18655E-01  7.52919E-01 -3.42642E-02
    8993.298      0.282   1.280  7.25939E-01  7.65673E-01 -3.97342E-02
    8993.695      0.678   1.320  7.34816E-01  7.78314E-01 -4.34977E-02
    8994.103      1.087   1.360  7.43827E-01  7.90821E-01 -4.69939E-02
    8994.524      1.507   1.400  7.50831E-01  8.03147E-01 -5.23167E-02
    8994.956      1.940   1.440  7.52666E-01  8.15307E-01 -6.26402E-02
    8995.401      2.385   1.480  7.49011E-01  8.27273E-01 -7.82626E-02
    8995.859      2.842   1.520  7.43534E-01  8.38979E-01 -9.54450E-02
    8996.328      3.312   1.560  7.44005E-01  8.50455E-01 -1.06451E-01
    8996.810      3.793   1.600  7.54521E-01  8.61655E-01 -1.07134E-01
    8997.303      4.287   1.640  7.69655E-01  8.72570E-01 -1.02915E-01
    8997.809      4.793   1.680  7.86373E-01  8.83171E-01 -9.67975E-02
    8998.328      5.311   1.720  8.08055E-01  8.93430E-01 -8.53745E-02
    8998.858      5.841   1.760  8.36082E-01  9.03360E-01 -6.72782E-02
    8999.400      6.384   1.800  8.69937E-01  9.12893E-01 -4.29559E-02
    8999.955      6.939   1.840  9.10177E-01  9.22065E-01 -1.18885E-02
    9000.522      7.506   1.880  9.54754E-01  9.30832E-01  2.39228E-02
    9001.101      8.085   1.920  9.97348E-01  9.39205E-01  5.81433E-02
    9001.692      8.676   1.960  1.03552E+00  9.47163E-01  8.83574E-02
    9002.296      9.280   2.000  1.07330E+00  9.54702E-01  1.18600E-01
    9002.912      9.895   2.040  1.11049E+00  9.61799E-01  1.48688E-01
    9003.540     10.523   2.080  1.13776E+00  9.68475E-01  1.69280E-01
    9004.180     11.163   2.120  1.14693E+00  9.74709E-01  1.72221E-01
    9004.832     11.815   2.160  1.14077E+00  9.80522E-01  1.60249E-01
    9005.496     12.480   2.200  1.12982E+00  9.85914E-01  1.43910E-01
    9006.173     13.157   2.240  1.12418E+00  9.90870E-01  1.33315E-01
    9006.862     13.845   2.280  1.12722E+00  9.95391E-01  1.31833E-01
    9007.563     14.546   2.320  1.13328E+00  9.99520E-01  1.33757E-01
    9008.276     15.260   2.360  1.13324E+00  1.00324E+00  1.29998E-01
    9009.002     15.985   2.400  1.12349E+00  1.00657E+00  1.16926E-01
    9009.739     16.723   2.440  1.10778E+00  1.00951E+00  9.82651E-02
    9010.489     17.473   2.480  1.09258E+00  1.01207E+00  8.05094E-02
    9011.251     18.235   2.520  1.08263E+00  1.01429E+00  6.83473E-02
    9012.025     19.009   2.560  1.07680E+00  1.01615E+00  6.06533E-02
    9012.812     19.795   2.600  1.06997E+00  1.01768E+00  5.22914E-02
    9013.610     20.594   2.640  1.05990E+00  1.01891E+00  4.09885E-02
    9014.421     21.404   2.680  1.04738E+00  1.01983E+00  2.75405E-02
    9015.244     22.227   2.720  1.03389E+00  1.02047E+00  1.34156E-02
    9016.079     23.063   2.760  1.02333E+00  1.02083E+00  2.49281E-03
    9016.926     23.910   2.800  1.01945E+00  1.02097E+00 -1.52062E-03
    9017.786     24.769   2.840  1.02091E+00  1.02087E+00  4.35807E-05
    9018.658     25.641   2.880  1.02234E+00  1.02053E+00  1.81061E-03
    9019.542     26.525   2.920  1.02141E+00  1.02002E+00  1.39323E-03
    9020.438     27.421   2.960  1.01744E+00  1.01931E+00 -1.87280E-03
    9021.346     28.329   3.000  1.01066E+00  1.01844E+00 -7.77909E-03
    9022.266     29.250   3.040  1.00147E+00  1.01741E+00 -1.59378E-02
    9023.199     30.183   3.080  9.90275E-01  1.01624E+00 -2.59693E-02
    9024.144     31.128   3.120  9.77705E-01  1.01496E+00 -3.72588E-02
    9025.101     32.085   3.160  9.64844E-01  1.01359E+00 -4.87450E-02
    9026.070     33.054   3.200  9.52709E-01  1.01211E+00 -5.93962E-02
    9027.052     34.035   3.240  9.41989E-01  1.01054E+00 -6.85525E-02
    9028.045     35.029   3.280  9.33069E-01  1.00892E+00 -7.58547E-02
    9029.051     36.035   3.320  9.26066E-01  1.00726E+00 -8.11934E-02
    9030.069     37.053   3.360  9.21039E-01  1.00553E+00 -8.44944E-02
    9031.099     38.083   3.400  9.18126E-01  1.00379E+00 -8.56653E-02
    9032.142     39.125   3.440  9.17239E-01  1.00204E+00 -8.48018E-02
    9033.196     40.180   3.480  9.18097E-01  1.00027E+00 -8.21678E-02
    9034.263     41.247   3.520  9.20572E-01  9.98511E-01 -7.79392E-02
    9035.342     42.326   3.560  9.24550E-01  9.96760E-01 -7.22107E-02
    9036.433     43.417   3.600  9.29866E-01  9.95016E-01 -6.51500E-02
    9037.537     44.520   3.640  9.36352E-01  9.93305E-01 -5.69538E-02
    9038.652     45.636   3.680  9.43696E-01  9.91633E-01 -4.79371E-02
    9039.780     46.764   3.720  9.51423E-01  9.90001E-01 -3.85784E-02
    9040.920     47.904   3.760  9.59004E-01  9.88433E-01 -2.94289E-02
    9042.072     49.056   3.800  9.66035E-01  9.86911E-01 -2.08759E-02
    9043.237     50.220   3.840  9.72306E-01  9.85437E-01 -1.31307E-02
    9044.413     51.397   3.880  9.77864E-01  9.84033E-01 -6.16858E-03
    9045.602     52.585   3.920  9.82962E-01  9.82682E-01  2.79998E-04
    9046.803     53.786   3.960  9.88020E-01  9.81427E-01  6.59271E-03
    9048.016     54.999   4.000  9.93287E-01  9.80229E-01  1.30584E-02
    9049.241     56.225   4.040  9.98920E-01  9.79130E-01  1.97900E-02
    9050.479     57.462   4.080  1.00475E+00  9.78089E-01  2.66602E-02
    9051.728     58.712   4.120  1.01043E+00  9.77128E-01  3.33034E-02
    9052.990     59.974   4.160  1.01553E+00  9.76269E-01  3.92587E-02
    9054.264     61.248   4.200  1.01965E+00  9.75491E-01  4.41549E-02
    9055.550     62.534   4.240  1.02257E+00  9.74773E-01  4.78006E-02
    9056.849     63.832   4.280  1.02431E+00  9.74157E-01  5.01557E-02
    9058.160     65.143   4.320  1.02495E+00  9.73623E-01  5.13238E-02
    9059.482     66.466   4.360  1.02458E+00  9.73172E-01  5.14041E-02
    9060.817     67.801   4.400  1.02332E+00  9.72823E-01  5.04920E-02
    9062.165     69.148   4.440  1.02128E+00  9.72534E-01  4.87515E-02
    9063.524     70.508   4.480  1.01870E+00  9.72323E-01  4.63800E-02
    9064.896     71.879   4.520  1.01574E+00  9.72213E-01  4.35268E-02
    9066.279     73.263   4.560  1.01243E+00  9.72160E-01  4.02754E-02
    9067.675     74.659   4.600  1.00879E+00  9.72182E-01  3.66030E-02
    9069.083     76.067   4.640  1.00466E+00  9.72281E-01  3.23811E-02
    9070.504     77.487   4.680  9.99971E-01  9.72454E-01  2.75170E-02
    9071.936     78.920   4.720  9.94810E-01  9.72678E-01  2.21322E-02
    9073.381     80.365   4.760  9.89492E-01  9.72972E-01  1.65196E-02
    9074.838     81.822   4.800  9.84350E-01  9.73315E-01  1.10356E-02
    9076.307     83.291   4.840  9.79650E-01  9.73725E-01  5.92479E-03
    9077.789     84.772   4.880  9.75465E-01  9.74180E-01  1.28487E-03
    9079.282     86.266   4.920  9.71866E-01  9.74676E-01 -2.81069E-03
    9080.788     87.771   4.960  9.68949E-01  9.75212E-01 -6.26344E-03
    9082.306     89.289   5.000  9.66784E-01  9.75786E-01 -9.00180E-03
    9083.836     90.819   5.040  9.65310E-01  9.76395E-01 -1.10849E-02
    9085.378     92.362   5.080  9.64268E-01  9.77016E-01 -1.27481E-02
    9086.933     93.916   5.120  9.63362E-01  9.77669E-01 -1.43076E-02
    9088.499     95.483   5.160  9.62263E-01  9.78352E-01 -1.60891E-02
    9090.078     97.062   5.200  9.60734E-01  9.79020E-01 -1.82861E-02
    9091.669     98.653   5.240  9.58861E-01  9.79735E-01 -2.08739E-02
    9093.272    100.256   5.280  9.56843E-01  9.80429E-01 -2.35863E-02
    9094.888    101.871   5.320  9.55081E-01  9.81120E-01 -2.60393E-02
    9096.515    103.499   5.360  9.53858E-01  9.81807E-01 -2.79492E-02
    9098.155    105.139   5.400  9.53275E-01  9.82468E-01 -2.91931E-02
    9099.807    106.791   5.440  9.53415E-01  9.83142E-01 -2.97274E-02
    9101.471    108.455   5.480  9.54293E-01  9.83764E-01 -2.94706E-02
    9103.148    110.131   5.520  9.56066E-01  9.84373E-01 -2.83077E-02
    9104.836    111.820   5.560  9.58794E-01  9.84970E-01 -2.61767E-02
    9106.537    113.521   5.600  9.62352E-01  9.85509E-01 -2.31569E-02
    9108.250    115.234   5.640  9.66570E-01  9.86030E-01 -1.94607E-02
    9109.975    116.959   5.680  9.71109E-01  9.86512E-01 -1.54027E-02
    9111.713    118.696   5.720  9.75556E-01  9.86928E-01 -1.13724E-02
    9113.462    120.446   5.760  9.79537E-01  9.87301E-01 -7.76464E-03
    9115.224    122.207   5.800  9.82812E-01  9.87652E-01 -4.84032E-03
    9116.998    123.981   5.840  9.85297E-01  9.87914E-01 -2.61676E-03
    9118.784    125.768   5.880  9.87266E-01  9.88151E-01 -8.85101E-04
    9120.582    127.566   5.920  9.88984E-01  9.88316E-01  6.67159E-04
    9122.393    129.376   5.960  9.90719E-01  9.88424E-01  2.29572E-03
    9124.215    131.199   6.000  9.92509E-01  9.88421E-01  4.08739E-03
