# # comment:                                                     FEFF 9.9.1  
# # Source:
# # Structure
# # Reduced
# # space
# # abc:
# # angles:
# # sites:
# # POT  SCF 100  7.0000   0, screened core-hole, AFOLP (folp(0)= 1.150)
# # Abs   Z=29 Rmt= 1.234 Rnm= 1.328 K  shell
# # Pot 1 Z=29 Rmt= 1.235 Rnm= 1.330
# # Pot 2 Z=42 Rmt= 1.152 Rnm= 1.357
# # Pot 3 Z= 8 Rmt= 0.939 Rnm= 1.080
# # Gam_ch=1.729E+00 H-L exch Vi= 0.000E+00 Vr= 0.000E+00
# # Mu=-5.338E+00eV kf=2.293E+00 Vint=-1.552E+01eV Rs_int= 1.582
# FMS rfms= 9.0000
# # PATH  Rmax=-1.000,  Keep_limit= 0.00, Heap_limit 0.00  Pwcrit= 2.50%
#  S02=0.950  Temp=   0.00  Debye_temp=   0.00  Global_sig2= 0.00000
#  Energy zero shift, vr, vi    0.00000E+00   0.00000E+00
#  Curved wave amplitude ratio filter   4.000%
#     file         sig2 tot  cw amp ratio   deg  nlegs   reff  inp sig2
#     0/   0 paths used
#  xsedge+ 50, used to normalize mu           2.4485E-04
#  -----------------------------------------------------------------------
#  omega    e    k    mu    mu0     chi     @#
    8983.434     -9.148  -1.000  4.92541E-02  5.92670E-02 -1.00129E-02
    8983.733     -8.849  -0.960  5.25275E-02  6.37390E-02 -1.12115E-02
    8984.019     -8.563  -0.920  5.61426E-02  6.87226E-02 -1.25801E-02
    8984.293     -8.289  -0.880  6.01487E-02  7.42946E-02 -1.41459E-02
    8984.555     -8.026  -0.840  6.46037E-02  8.05442E-02 -1.59405E-02
    8984.805     -7.776  -0.800  6.95743E-02  8.75749E-02 -1.80007E-02
    8985.043     -7.539  -0.760  7.51374E-02  9.55060E-02 -2.03686E-02
    8985.269     -7.313  -0.720  8.13800E-02  1.04472E-01 -2.30922E-02
    8985.482     -7.100  -0.680  8.83975E-02  1.14622E-01 -2.62244E-02
    8985.683     -6.899  -0.640  9.62912E-02  1.26113E-01 -2.98213E-02
    8985.872     -6.710  -0.600  1.05160E-01  1.39099E-01 -3.39386E-02
    8986.049     -6.533  -0.560  1.15088E-01  1.53713E-01 -3.86243E-02
    8986.214     -6.368  -0.520  1.26126E-01  1.70034E-01 -4.39087E-02
    8986.366     -6.216  -0.480  1.38260E-01  1.88049E-01 -4.97890E-02
    8986.506     -6.076  -0.440  1.51384E-01  2.07596E-01 -5.62127E-02
    8986.634     -5.948  -0.400  1.65271E-01  2.28334E-01 -6.30629E-02
    8986.750     -5.832  -0.360  1.79567E-01  2.49720E-01 -7.01533E-02
    8986.854     -5.728  -0.320  1.93810E-01  2.71051E-01 -7.72407E-02
    8986.945     -5.637  -0.280  2.07492E-01  2.91547E-01 -8.40549E-02
    8987.024     -5.558  -0.240  2.20121E-01  3.10458E-01 -9.03370E-02
    8987.091     -5.490  -0.200  2.31287E-01  3.27160E-01 -9.58730E-02
    8987.146     -5.436  -0.160  2.40690E-01  3.41200E-01 -1.00510E-01
    8987.189     -5.393  -0.120  2.48136E-01  3.52289E-01 -1.04153E-01
    8987.219     -5.362  -0.080  2.53514E-01  3.60273E-01 -1.06759E-01
    8987.244     -5.338   0.000  2.57847E-01  3.66683E-01 -1.08836E-01
    8987.299     -5.283   0.120  2.67345E-01  3.81128E-01 -1.13784E-01
    8987.341     -5.241   0.160  2.74792E-01  3.92339E-01 -1.17547E-01
    8987.396     -5.186   0.200  2.84338E-01  4.06624E-01 -1.22286E-01
    8987.463     -5.119   0.240  2.95913E-01  4.23790E-01 -1.27878E-01
    8987.543     -5.039   0.280  3.09301E-01  4.43429E-01 -1.34128E-01
    8987.634     -4.948   0.320  3.24264E-01  4.65027E-01 -1.40763E-01
    8987.738     -4.844   0.360  3.40426E-01  4.87904E-01 -1.47478E-01
    8987.853     -4.728   0.400  3.57360E-01  5.11360E-01 -1.54000E-01
    8987.981     -4.600   0.440  3.74571E-01  5.34737E-01 -1.60166E-01
    8988.122     -4.460   0.480  3.91497E-01  5.57542E-01 -1.66044E-01
    8988.274     -4.308   0.520  4.07549E-01  5.79418E-01 -1.71869E-01
    8988.439     -4.143   0.560  4.22316E-01  6.00242E-01 -1.77925E-01
    8988.615     -3.966   0.600  4.35626E-01  6.19977E-01 -1.84350E-01
    8988.804     -3.778   0.640  4.47622E-01  6.38672E-01 -1.91050E-01
    8989.006     -3.576   0.680  4.58627E-01  6.56402E-01 -1.97775E-01
    8989.219     -3.363   0.720  4.69160E-01  6.73320E-01 -2.04159E-01
    8989.444     -3.137   0.760  4.79744E-01  6.89535E-01 -2.09791E-01
    8989.682     -2.900   0.800  4.90731E-01  7.05107E-01 -2.14376E-01
    8989.932     -2.650   0.840  5.02337E-01  7.20163E-01 -2.17826E-01
    8990.194     -2.388   0.880  5.14537E-01  7.34773E-01 -2.20236E-01
    8990.469     -2.113   0.920  5.26908E-01  7.48968E-01 -2.22060E-01
    8990.755     -1.827   0.960  5.38829E-01  7.62788E-01 -2.23959E-01
    8991.054     -1.528   1.000  5.50519E-01  7.76280E-01 -2.25761E-01
    8991.365     -1.217   1.040  5.62797E-01  7.89461E-01 -2.26664E-01
    8991.688     -0.894   1.080  5.75203E-01  8.02297E-01 -2.27095E-01
    8992.023     -0.559   1.120  5.86669E-01  8.14831E-01 -2.28162E-01
    8992.371     -0.211   1.160  5.98657E-01  8.27057E-01 -2.28400E-01
    8992.730      0.148   1.200  6.15405E-01  8.38945E-01 -2.23540E-01
    8993.102      0.520   1.240  6.39762E-01  8.50502E-01 -2.10740E-01
    8993.486      0.904   1.280  6.69998E-01  8.61711E-01 -1.91713E-01
    8993.882      1.300   1.320  7.02092E-01  8.72555E-01 -1.70463E-01
    8994.291      1.709   1.360  7.34113E-01  8.83013E-01 -1.48900E-01
    8994.711      2.129   1.400  7.67060E-01  8.93086E-01 -1.26026E-01
    8995.144      2.562   1.440  8.00459E-01  9.02753E-01 -1.02295E-01
    8995.589      3.007   1.480  8.30618E-01  9.11994E-01 -8.13751E-02
    8996.046      3.465   1.520  8.57574E-01  9.20826E-01 -6.32520E-02
    8996.516      3.934   1.560  8.89347E-01  9.29230E-01 -3.98831E-02
    8996.997      4.415   1.600  9.34491E-01  9.37185E-01 -2.69383E-03
    8997.491      4.909   1.640  9.94856E-01  9.44693E-01  5.01627E-02
    8997.997      5.415   1.680  1.06923E+00  9.51775E-01  1.17455E-01
    8998.515      5.933   1.720  1.15482E+00  9.58391E-01  1.96424E-01
    8999.046      6.464   1.760  1.24191E+00  9.64588E-01  2.77324E-01
    8999.588      7.006   1.800  1.31913E+00  9.70327E-01  3.48801E-01
    9000.143      7.561   1.840  1.38505E+00  9.75633E-01  4.09416E-01
    9000.710      8.128   1.880  1.44230E+00  9.80533E-01  4.61763E-01
    9001.289      8.707   1.920  1.47803E+00  9.85010E-01  4.93018E-01
    9001.880      9.298   1.960  1.47203E+00  9.89095E-01  4.82934E-01
    9002.484      9.902   2.000  1.42211E+00  9.92791E-01  4.29323E-01
    9003.099     10.518   2.040  1.34847E+00  9.96087E-01  3.52386E-01
    9003.727     11.145   2.080  1.27754E+00  9.99052E-01  2.78483E-01
    9004.367     11.786   2.120  1.22329E+00  1.00165E+00  2.21639E-01
    9005.020     12.438   2.160  1.18486E+00  1.00392E+00  1.80936E-01
    9005.684     13.102   2.200  1.15447E+00  1.00588E+00  1.48584E-01
    9006.361     13.779   2.240  1.12757E+00  1.00755E+00  1.20016E-01
    9007.050     14.468   2.280  1.10838E+00  1.00895E+00  9.94253E-02
    9007.751     15.169   2.320  1.10263E+00  1.01008E+00  9.25484E-02
    9008.464     15.882   2.360  1.10617E+00  1.01097E+00  9.52002E-02
    9009.189     16.607   2.400  1.10618E+00  1.01163E+00  9.45493E-02
    9009.927     17.345   2.440  1.09507E+00  1.01208E+00  8.29880E-02
    9010.677     18.095   2.480  1.07770E+00  1.01235E+00  6.53525E-02
    9011.439     18.857   2.520  1.06630E+00  1.01244E+00  5.38545E-02
    9012.213     19.631   2.560  1.06865E+00  1.01237E+00  5.62756E-02
    9012.999     20.417   2.600  1.07833E+00  1.01215E+00  6.61775E-02
    9013.798     21.216   2.640  1.07988E+00  1.01182E+00  6.80633E-02
    9014.609     22.027   2.680  1.06098E+00  1.01137E+00  4.96159E-02
    9015.432     22.850   2.720  1.02567E+00  1.01082E+00  1.48447E-02
    9016.267     23.685   2.760  9.92851E-01  1.01018E+00 -1.73244E-02
    9017.114     24.532   2.800  9.65506E-01  1.00947E+00 -4.39626E-02
    9017.974     25.392   2.840  9.43880E-01  1.00871E+00 -6.48304E-02
    9018.845     26.263   2.880  9.27596E-01  1.00791E+00 -8.03110E-02
    9019.729     27.147   2.920  9.15963E-01  1.00706E+00 -9.10982E-02
    9020.625     28.043   2.960  9.08095E-01  1.00618E+00 -9.80851E-02
    9021.534     28.952   3.000  9.02711E-01  1.00529E+00 -1.02577E-01
    9022.454     29.872   3.040  8.98405E-01  1.00437E+00 -1.05963E-01
    9023.387     30.805   3.080  8.94305E-01  1.00347E+00 -1.09164E-01
    9024.332     31.750   3.120  8.89973E-01  1.00257E+00 -1.12600E-01
    9025.289     32.707   3.160  8.85190E-01  1.00171E+00 -1.16516E-01
    9026.258     33.676   3.200  8.80067E-01  1.00085E+00 -1.20779E-01
    9027.240     34.658   3.240  8.75077E-01  1.00002E+00 -1.24942E-01
    9028.233     35.651   3.280  8.70513E-01  9.99206E-01 -1.28694E-01
    9029.239     36.657   3.320  8.66807E-01  9.98454E-01 -1.31647E-01
    9030.257     37.675   3.360  8.64595E-01  9.97742E-01 -1.33147E-01
    9031.287     38.705   3.400  8.64645E-01  9.97071E-01 -1.32426E-01
    9032.330     39.748   3.440  8.67496E-01  9.96444E-01 -1.28949E-01
    9033.384     40.802   3.480  8.73628E-01  9.95862E-01 -1.22234E-01
    9034.451     41.869   3.520  8.83266E-01  9.95349E-01 -1.12083E-01
    9035.530     42.948   3.560  8.96203E-01  9.94904E-01 -9.87009E-02
    9036.621     44.039   3.600  9.11900E-01  9.94485E-01 -8.25857E-02
    9037.725     45.143   3.640  9.29781E-01  9.94157E-01 -6.43761E-02
    9038.840     46.258   3.680  9.48978E-01  9.93856E-01 -4.48778E-02
    9039.968     47.386   3.720  9.68652E-01  9.93625E-01 -2.49737E-02
    9041.108     48.526   3.760  9.88115E-01  9.93465E-01 -5.34992E-03
    9042.260     49.678   3.800  1.00670E+00  9.93356E-01  1.33471E-02
    9043.424     50.842   3.840  1.02386E+00  9.93317E-01  3.05425E-02
    9044.601     52.019   3.880  1.03909E+00  9.93327E-01  4.57667E-02
    9045.790     53.208   3.920  1.05196E+00  9.93406E-01  5.85561E-02
    9046.990     54.409   3.960  1.06189E+00  9.93531E-01  6.83587E-02
    9048.204     55.622   4.000  1.06854E+00  9.93703E-01  7.48388E-02
    9049.429     56.847   4.040  1.07193E+00  9.93941E-01  7.79873E-02
    9050.666     58.084   4.080  1.07234E+00  9.94223E-01  7.81176E-02
    9051.916     59.334   4.120  1.07039E+00  9.94549E-01  7.58401E-02
    9053.178     60.596   4.160  1.06695E+00  9.94917E-01  7.20285E-02
    9054.452     61.870   4.200  1.06281E+00  9.95325E-01  6.74845E-02
    9055.738     63.156   4.240  1.05861E+00  9.95794E-01  6.28174E-02
    9057.037     64.455   4.280  1.05470E+00  9.96280E-01  5.84190E-02
    9058.347     65.765   4.320  1.05121E+00  9.96799E-01  5.44145E-02
    9059.670     67.088   4.360  1.04806E+00  9.97330E-01  5.07321E-02
    9061.005     68.423   4.400  1.04520E+00  9.97894E-01  4.73047E-02
    9062.352     69.770   4.440  1.04277E+00  9.98490E-01  4.42785E-02
    9063.712     71.130   4.480  1.04102E+00  9.99096E-01  4.19289E-02
    9065.083     72.501   4.520  1.04028E+00  9.99730E-01  4.05500E-02
    9066.467     73.885   4.560  1.04063E+00  1.00037E+00  4.02661E-02
    9067.863     75.281   4.600  1.04191E+00  1.00101E+00  4.09030E-02
    9069.271     76.689   4.640  1.04363E+00  1.00165E+00  4.19835E-02
    9070.692     78.110   4.680  1.04512E+00  1.00229E+00  4.28285E-02
    9072.124     79.542   4.720  1.04562E+00  1.00295E+00  4.26734E-02
    9073.569     80.987   4.760  1.04443E+00  1.00356E+00  4.08713E-02
    9075.026     82.444   4.800  1.04128E+00  1.00418E+00  3.70948E-02
    9076.495     83.913   4.840  1.03619E+00  1.00478E+00  3.14139E-02
    9077.976     85.394   4.880  1.02962E+00  1.00537E+00  2.42470E-02
    9079.470     86.888   4.920  1.02217E+00  1.00595E+00  1.62236E-02
    9080.976     88.394   4.960  1.01446E+00  1.00647E+00  7.98094E-03
    9082.493     89.912   5.000  1.00703E+00  1.00701E+00  2.17796E-05
    9084.024     91.442   5.040  1.00010E+00  1.00748E+00 -7.38076E-03
    9085.566     92.984   5.080  9.93696E-01  1.00794E+00 -1.42401E-02
    9087.120     94.538   5.120  9.87542E-01  1.00833E+00 -2.07893E-02
    9088.687     96.105   5.160  9.81374E-01  1.00871E+00 -2.73358E-02
    9090.266     97.684   5.200  9.75054E-01  1.00905E+00 -3.39947E-02
    9091.857     99.275   5.240  9.68718E-01  1.00935E+00 -4.06278E-02
    9093.460    100.878   5.280  9.62725E-01  1.00960E+00 -4.68747E-02
    9095.076    102.494   5.320  9.57566E-01  1.00979E+00 -5.22225E-02
    9096.703    104.121   5.360  9.53874E-01  1.00996E+00 -5.60825E-02
    9098.343    105.761   5.400  9.52031E-01  1.01008E+00 -5.80511E-02
    9099.995    107.413   5.440  9.51988E-01  1.01014E+00 -5.81531E-02
    9101.659    109.077   5.480  9.53305E-01  1.01015E+00 -5.68491E-02
    9103.336    110.754   5.520  9.55412E-01  1.01012E+00 -5.47112E-02
    9105.024    112.442   5.560  9.57937E-01  1.01005E+00 -5.21141E-02
    9106.725    114.143   5.600  9.60828E-01  1.00994E+00 -4.91087E-02
    9108.438    115.856   5.640  9.64230E-01  1.00978E+00 -4.55459E-02
    9110.163    117.581   5.680  9.68300E-01  1.00955E+00 -4.12492E-02
    9111.900    119.319   5.720  9.73089E-01  1.00928E+00 -3.61910E-02
    9113.650    121.068   5.760  9.78475E-01  1.00899E+00 -3.05195E-02
    9115.412    122.830   5.800  9.84121E-01  1.00864E+00 -2.45230E-02
    9117.186    124.604   5.840  9.89693E-01  1.00825E+00 -1.85612E-02
    9118.972    126.390   5.880  9.94794E-01  1.00783E+00 -1.30336E-02
    9120.770    128.188   5.920  9.99062E-01  1.00737E+00 -8.30403E-03
    9122.581    129.999   5.960  1.00233E+00  1.00690E+00 -4.57140E-03
    9124.403    131.821   6.000  1.00469E+00  1.00634E+00 -1.65051E-03
