# # comment:                                                     FEFF 9.9.1  
# # Source:
# # Structure
# # Reduced
# # space
# # abc:
# # angles:
# # sites:
# # POT  SCF 100  7.0000   0, screened core-hole, AFOLP (folp(0)= 1.150)
# # Abs   Z=29 Rmt= 1.309 Rnm= 1.372 K  shell
# # Pot 1 Z=29 Rmt= 1.309 Rnm= 1.372
# # Pot 2 Z= 7 Rmt= 0.684 Rnm= 0.882
# # Pot 3 Z= 8 Rmt= 0.848 Rnm= 0.996
# # Gam_ch=1.729E+00 H-L exch Vi= 0.000E+00 Vr= 0.000E+00
# # Mu=-5.589E+00eV kf=2.769E+00 Vint=-1.832E+01eV Rs_int= 1.310
# FMS rfms= 9.0000
# # PATH  Rmax=-1.000,  Keep_limit= 0.00, Heap_limit 0.00  Pwcrit= 2.50%
#  S02=0.950  Temp=   0.00  Debye_temp=   0.00  Global_sig2= 0.00000
#  Energy zero shift, vr, vi    0.00000E+00   0.00000E+00
#  Curved wave amplitude ratio filter   4.000%
#     file         sig2 tot  cw amp ratio   deg  nlegs   reff  inp sig2
#     0/   0 paths used
#  xsedge+ 50, used to normalize mu           2.4811E-04
#  -----------------------------------------------------------------------
#  omega    e    k    mu    mu0     chi     @#
    8983.205     -9.399  -1.000  4.75266E-02  5.22149E-02 -4.68829E-03
    8983.504     -9.100  -0.960  5.06997E-02  5.59871E-02 -5.28735E-03
    8983.790     -8.814  -0.920  5.42112E-02  6.01808E-02 -5.96962E-03
    8984.065     -8.540  -0.880  5.81113E-02  6.48586E-02 -6.74731E-03
    8984.327     -8.278  -0.840  6.24592E-02  7.00937E-02 -7.63447E-03
    8984.577     -8.028  -0.800  6.73234E-02  7.59706E-02 -8.64722E-03
    8984.815     -7.790  -0.760  7.27829E-02  8.25867E-02 -9.80382E-03
    8985.040     -7.564  -0.720  7.89275E-02  9.00522E-02 -1.11247E-02
    8985.254     -7.351  -0.680  8.58563E-02  9.84884E-02 -1.26321E-02
    8985.455     -7.150  -0.640  9.36744E-02  1.08024E-01 -1.43494E-02
    8985.644     -6.961  -0.600  1.02486E-01  1.18785E-01 -1.62990E-02
    8985.820     -6.784  -0.560  1.12379E-01  1.30879E-01 -1.85000E-02
    8985.985     -6.619  -0.520  1.23408E-01  1.44371E-01 -2.09630E-02
    8986.137     -6.467  -0.480  1.35565E-01  1.59249E-01 -2.36842E-02
    8986.278     -6.327  -0.440  1.48742E-01  1.75380E-01 -2.66378E-02
    8986.406     -6.199  -0.400  1.62712E-01  1.92482E-01 -2.97705E-02
    8986.521     -6.083  -0.360  1.77111E-01  2.10110E-01 -3.29993E-02
    8986.625     -5.979  -0.320  1.91468E-01  2.27686E-01 -3.62178E-02
    8986.717     -5.888  -0.280  2.05261E-01  2.44569E-01 -3.93086E-02
    8986.796     -5.809  -0.240  2.17985E-01  2.60145E-01 -4.21602E-02
    8986.863     -5.742  -0.200  2.29220E-01  2.73900E-01 -4.46796E-02
    8986.918     -5.687  -0.160  2.38663E-01  2.85461E-01 -4.67985E-02
    8986.960     -5.644  -0.120  2.46120E-01  2.94593E-01 -4.84730E-02
    8986.991     -5.614  -0.080  2.51487E-01  3.01168E-01 -4.96800E-02
    8987.015     -5.589   0.000  2.55784E-01  3.06446E-01 -5.06624E-02
    8987.070     -5.534   0.120  2.65282E-01  3.18342E-01 -5.30599E-02
    8987.113     -5.492   0.160  2.72719E-01  3.27583E-01 -5.48634E-02
    8987.168     -5.437   0.200  2.82208E-01  3.39358E-01 -5.71495E-02
    8987.235     -5.370   0.240  2.93619E-01  3.53490E-01 -5.98714E-02
    8987.314     -5.290   0.280  3.06707E-01  3.69674E-01 -6.29668E-02
    8987.405     -5.199   0.320  3.21132E-01  3.87492E-01 -6.63597E-02
    8987.509     -5.095   0.360  3.36450E-01  4.06383E-01 -6.99324E-02
    8987.625     -4.980   0.400  3.52192E-01  4.25750E-01 -7.35583E-02
    8987.753     -4.852   0.440  3.67991E-01  4.45094E-01 -7.71035E-02
    8987.893     -4.711   0.480  3.83558E-01  4.64012E-01 -8.04540E-02
    8988.045     -4.559   0.520  3.98692E-01  4.82247E-01 -8.35547E-02
    8988.210     -4.394   0.560  4.13122E-01  4.99648E-01 -8.65259E-02
    8988.387     -4.218   0.600  4.26480E-01  5.16248E-01 -8.97678E-02
    8988.576     -4.029   0.640  4.38103E-01  5.32071E-01 -9.39680E-02
    8988.777     -3.827   0.680  4.47333E-01  5.47239E-01 -9.99054E-02
    8988.990     -3.614   0.720  4.53726E-01  5.61827E-01 -1.08102E-01
    8989.216     -3.389   0.760  4.57322E-01  5.75994E-01 -1.18672E-01
    8989.454     -3.151   0.800  4.58121E-01  5.89805E-01 -1.31684E-01
    8989.704     -2.901   0.840  4.55762E-01  6.03355E-01 -1.47594E-01
    8989.966     -2.639   0.880  4.50076E-01  6.16727E-01 -1.66652E-01
    8990.240     -2.364   0.920  4.42737E-01  6.29969E-01 -1.87231E-01
    8990.527     -2.078   0.960  4.37565E-01  6.43116E-01 -2.05552E-01
    8990.825     -1.779   1.000  4.38526E-01  6.56236E-01 -2.17710E-01
    8991.136     -1.468   1.040  4.48062E-01  6.69324E-01 -2.21262E-01
    8991.459     -1.145   1.080  4.67426E-01  6.82408E-01 -2.14982E-01
    8991.794     -0.810   1.120  4.96562E-01  6.95489E-01 -1.98928E-01
    8992.142     -0.462   1.160  5.32844E-01  7.08585E-01 -1.75740E-01
    8992.502     -0.103   1.200  5.72486E-01  7.21704E-01 -1.49219E-01
    8992.873      0.269   1.240  6.15072E-01  7.34794E-01 -1.19722E-01
    8993.258      0.653   1.280  6.64117E-01  7.47876E-01 -8.37596E-02
    8993.654      1.049   1.320  7.21912E-01  7.60932E-01 -3.90204E-02
    8994.062      1.458   1.360  7.85895E-01  7.73937E-01  1.19578E-02
    8994.483      1.878   1.400  8.49280E-01  7.86866E-01  6.24138E-02
    8994.916      2.311   1.440  9.05207E-01  7.99695E-01  1.05512E-01
    8995.361      2.756   1.480  9.49965E-01  8.12413E-01  1.37552E-01
    8995.818      3.213   1.520  9.83500E-01  8.24990E-01  1.58510E-01
    8996.287      3.683   1.560  1.01054E+00  8.37398E-01  1.73143E-01
    8996.769      4.164   1.600  1.03702E+00  8.49606E-01  1.87411E-01
    8997.263      4.658   1.640  1.06274E+00  8.61580E-01  2.01159E-01
    8997.769      5.164   1.680  1.08513E+00  8.73310E-01  2.11817E-01
    8998.287      5.682   1.720  1.10185E+00  8.84764E-01  2.17087E-01
    8998.817      6.213   1.760  1.10715E+00  8.95909E-01  2.11242E-01
    8999.360      6.755   1.800  1.10603E+00  9.06713E-01  1.99313E-01
    8999.914      7.310   1.840  1.11155E+00  9.17167E-01  1.94381E-01
    9000.481      7.877   1.880  1.12732E+00  9.27240E-01  2.00080E-01
    9001.060      8.456   1.920  1.14359E+00  9.36902E-01  2.06684E-01
    9001.652      9.047   1.960  1.14582E+00  9.46166E-01  1.99654E-01
    9002.255      9.651   2.000  1.13186E+00  9.54981E-01  1.76879E-01
    9002.871     10.266   2.040  1.11175E+00  9.63361E-01  1.48391E-01
    9003.499     10.894   2.080  1.09654E+00  9.71262E-01  1.25278E-01
    9004.139     11.534   2.120  1.09376E+00  9.78677E-01  1.15084E-01
    9004.791     12.187   2.160  1.10625E+00  9.85623E-01  1.20628E-01
    9005.456     12.851   2.200  1.13186E+00  9.92078E-01  1.39784E-01
    9006.132     13.528   2.240  1.16353E+00  9.98042E-01  1.65488E-01
    9006.821     14.217   2.280  1.19150E+00  1.00354E+00  1.87959E-01
    9007.522     14.918   2.320  1.20658E+00  1.00852E+00  1.98055E-01
    9008.235     15.631   2.360  1.20469E+00  1.01304E+00  1.91655E-01
    9008.961     16.356   2.400  1.19281E+00  1.01707E+00  1.75744E-01
    9009.698     17.094   2.440  1.18255E+00  1.02062E+00  1.61928E-01
    9010.448     17.844   2.480  1.17776E+00  1.02372E+00  1.54040E-01
    9011.210     18.606   2.520  1.17218E+00  1.02639E+00  1.45794E-01
    9011.984     19.380   2.560  1.15612E+00  1.02860E+00  1.27521E-01
    9012.771     20.166   2.600  1.12539E+00  1.03042E+00  9.49764E-02
    9013.569     20.965   2.640  1.08151E+00  1.03184E+00  4.96772E-02
    9014.380     21.776   2.680  1.03066E+00  1.03288E+00 -2.22452E-03
    9015.203     22.599   2.720  9.82517E-01  1.03356E+00 -5.10459E-02
    9016.038     23.434   2.760  9.44306E-01  1.03391E+00 -8.96063E-02
    9016.886     24.281   2.800  9.17949E-01  1.03394E+00 -1.15990E-01
    9017.745     25.141   2.840  9.01872E-01  1.03365E+00 -1.31782E-01
    9018.617     26.012   2.880  8.93831E-01  1.03311E+00 -1.39277E-01
    9019.501     26.896   2.920  8.91269E-01  1.03231E+00 -1.41046E-01
    9020.397     27.792   2.960  8.88471E-01  1.03128E+00 -1.42812E-01
    9021.305     28.701   3.000  8.79390E-01  1.03005E+00 -1.50656E-01
    9022.226     29.621   3.040  8.64196E-01  1.02863E+00 -1.64436E-01
    9023.158     30.554   3.080  8.48257E-01  1.02703E+00 -1.78776E-01
    9024.103     31.499   3.120  8.37163E-01  1.02530E+00 -1.88136E-01
    9025.060     32.456   3.160  8.35731E-01  1.02344E+00 -1.87710E-01
    9026.029     33.425   3.200  8.41607E-01  1.02149E+00 -1.79882E-01
    9027.011     34.407   3.240  8.52653E-01  1.01943E+00 -1.66780E-01
    9028.005     35.400   3.280  8.67083E-01  1.01732E+00 -1.50238E-01
    9029.010     36.406   3.320  8.83688E-01  1.01514E+00 -1.31453E-01
    9030.028     37.424   3.360  9.01988E-01  1.01294E+00 -1.10954E-01
    9031.059     38.454   3.400  9.21925E-01  1.01071E+00 -8.87884E-02
    9032.101     39.497   3.440  9.43401E-01  1.00850E+00 -6.51016E-02
    9033.156     40.551   3.480  9.65577E-01  1.00627E+00 -4.06964E-02
    9034.222     41.618   3.520  9.87644E-01  1.00408E+00 -1.64316E-02
    9035.301     42.697   3.560  1.00841E+00  1.00191E+00  6.49191E-03
    9036.393     43.788   3.600  1.02666E+00  9.99819E-01  2.68462E-02
    9037.496     44.892   3.640  1.04152E+00  9.97770E-01  4.37488E-02
    9038.612     46.007   3.680  1.05245E+00  9.95771E-01  5.66778E-02
    9039.739     47.135   3.720  1.05940E+00  9.93850E-01  6.55471E-02
    9040.879     48.275   3.760  1.06301E+00  9.92033E-01  7.09793E-02
    9042.031     49.427   3.800  1.06421E+00  9.90300E-01  7.39072E-02
    9043.196     50.591   3.840  1.06383E+00  9.88653E-01  7.51793E-02
    9044.372     51.768   3.880  1.06258E+00  9.87117E-01  7.54614E-02
    9045.561     52.957   3.920  1.06078E+00  9.85675E-01  7.51066E-02
    9046.762     54.157   3.960  1.05851E+00  9.84348E-01  7.41663E-02
    9047.975     55.371   4.000  1.05575E+00  9.83159E-01  7.25941E-02
    9049.200     56.596   4.040  1.05245E+00  9.82069E-01  7.03851E-02
    9050.438     57.833   4.080  1.04859E+00  9.81097E-01  6.74974E-02
    9051.687     59.083   4.120  1.04410E+00  9.80243E-01  6.38588E-02
    9052.949     60.345   4.160  1.03892E+00  9.79510E-01  5.94051E-02
    9054.223     61.619   4.200  1.03298E+00  9.78898E-01  5.40798E-02
    9055.510     62.905   4.240  1.02631E+00  9.78404E-01  4.79059E-02
    9056.808     64.204   4.280  1.01908E+00  9.78030E-01  4.10467E-02
    9058.119     65.514   4.320  1.01162E+00  9.77775E-01  3.38457E-02
    9059.442     66.837   4.360  1.00441E+00  9.77636E-01  2.67743E-02
    9060.777     68.172   4.400  9.97985E-01  9.77591E-01  2.03934E-02
    9062.124     69.519   4.440  9.92853E-01  9.77662E-01  1.51913E-02
    9063.483     70.879   4.480  9.89268E-01  9.77847E-01  1.14212E-02
    9064.855     72.250   4.520  9.87182E-01  9.78144E-01  9.03819E-03
    9066.239     73.634   4.560  9.86232E-01  9.78528E-01  7.70409E-03
    9067.634     75.030   4.600  9.85917E-01  9.78995E-01  6.92245E-03
    9069.043     76.438   4.640  9.85762E-01  9.79543E-01  6.21889E-03
    9070.463     77.859   4.680  9.85415E-01  9.80170E-01  5.24469E-03
    9071.896     79.291   4.720  9.84646E-01  9.80873E-01  3.77272E-03
    9073.340     80.736   4.760  9.83293E-01  9.81629E-01  1.66416E-03
    9074.797     82.193   4.800  9.81285E-01  9.82456E-01 -1.17096E-03
    9076.266     83.662   4.840  9.78570E-01  9.83350E-01 -4.78012E-03
    9077.748     85.143   4.880  9.75143E-01  9.84266E-01 -9.12331E-03
    9079.241     86.637   4.920  9.71152E-01  9.85242E-01 -1.40908E-02
    9080.747     88.143   4.960  9.66729E-01  9.86232E-01 -1.95026E-02
    9082.265     89.660   5.000  9.62169E-01  9.87252E-01 -2.50827E-02
    9083.795     91.191   5.040  9.57804E-01  9.88278E-01 -3.04741E-02
    9085.337     92.733   5.080  9.54067E-01  9.89305E-01 -3.52382E-02
    9086.892     94.287   5.120  9.51422E-01  9.90332E-01 -3.89098E-02
    9088.458     95.854   5.160  9.50246E-01  9.91356E-01 -4.11093E-02
    9090.037     97.433   5.200  9.50745E-01  9.92373E-01 -4.16277E-02
    9091.628     99.024   5.240  9.52845E-01  9.93355E-01 -4.05101E-02
    9093.231    100.627   5.280  9.56302E-01  9.94301E-01 -3.79989E-02
    9094.847    102.243   5.320  9.60725E-01  9.95209E-01 -3.44840E-02
    9096.475    103.870   5.360  9.65713E-01  9.96096E-01 -3.03837E-02
    9098.114    105.510   5.400  9.70803E-01  9.96916E-01 -2.61126E-02
    9099.766    107.162   5.440  9.75641E-01  9.97664E-01 -2.20222E-02
    9101.431    108.826   5.480  9.80012E-01  9.98361E-01 -1.83493E-02
    9103.107    110.503   5.520  9.83840E-01  9.98984E-01 -1.51437E-02
    9104.796    112.191   5.560  9.87249E-01  9.99552E-01 -1.23034E-02
    9106.496    113.892   5.600  9.90342E-01  1.00002E+00 -9.67917E-03
    9108.209    115.605   5.640  9.93227E-01  1.00043E+00 -7.20141E-03
    9109.934    117.330   5.680  9.95811E-01  1.00073E+00 -4.92200E-03
    9111.672    119.067   5.720  9.97962E-01  1.00096E+00 -2.99366E-03
    9113.421    120.817   5.760  9.99552E-01  1.00112E+00 -1.56835E-03
    9115.183    122.579   5.800  1.00047E+00  1.00118E+00 -7.12295E-04
    9116.957    124.353   5.840  1.00078E+00  1.00113E+00 -3.48935E-04
    9118.743    126.139   5.880  1.00076E+00  1.00102E+00 -2.63885E-04
    9120.541    127.937   5.920  1.00066E+00  1.00080E+00 -1.44421E-04
    9122.352    129.748   5.960  1.00084E+00  1.00049E+00  3.40747E-04
    9124.175    131.570   6.000  1.00156E+00  1.00004E+00  1.51500E-03
