# # comment:                                                     FEFF 9.9.1  
# # Source:
# # Structure
# # Reduced
# # space
# # abc:
# # angles:
# # sites:
# # POT  SCF 100  7.0000   0, screened core-hole, AFOLP (folp(0)= 1.150)
# # Abs   Z=29 Rmt= 1.213 Rnm= 1.343 K  shell
# # Pot 1 Z=63 Rmt= 1.742 Rnm= 1.823
# # Pot 2 Z=29 Rmt= 1.213 Rnm= 1.344
# # Pot 3 Z=42 Rmt= 1.146 Rnm= 1.355
# # Pot 4 Z= 8 Rmt= 0.984 Rnm= 1.091
# # Gam_ch=1.729E+00 H-L exch Vi= 0.000E+00 Vr= 0.000E+00
# # Mu=-5.906E+00eV kf=2.245E+00 Vint=-1.608E+01eV Rs_int= 1.615
# FMS rfms= 9.0000
# # PATH  Rmax=-1.000,  Keep_limit= 0.00, Heap_limit 0.00  Pwcrit= 2.50%
#  S02=0.950  Temp=   0.00  Debye_temp=   0.00  Global_sig2= 0.00000
#  Energy zero shift, vr, vi    0.00000E+00   0.00000E+00
#  Curved wave amplitude ratio filter   4.000%
#     file         sig2 tot  cw amp ratio   deg  nlegs   reff  inp sig2
#     0/   0 paths used
#  xsedge+ 50, used to normalize mu           2.4642E-04
#  -----------------------------------------------------------------------
#  omega    e    k    mu    mu0     chi     @#
    8983.592     -9.716  -1.000  4.81015E-02  5.69689E-02 -8.86740E-03
    8983.890     -9.417  -0.960  5.13888E-02  6.12126E-02 -9.82378E-03
    8984.177     -9.130  -0.920  5.50378E-02  6.59379E-02 -1.09001E-02
    8984.451     -8.856  -0.880  5.91033E-02  7.12167E-02 -1.21134E-02
    8984.713     -8.594  -0.840  6.36497E-02  7.71325E-02 -1.34828E-02
    8984.963     -8.344  -0.800  6.87520E-02  8.37826E-02 -1.50306E-02
    8985.201     -8.106  -0.760  7.44966E-02  9.12783E-02 -1.67817E-02
    8985.427     -7.881  -0.720  8.09819E-02  9.97460E-02 -1.87641E-02
    8985.640     -7.667  -0.680  8.83167E-02  1.09325E-01 -2.10081E-02
    8985.841     -7.466  -0.640  9.66165E-02  1.20162E-01 -2.35451E-02
    8986.030     -7.277  -0.600  1.05996E-01  1.32401E-01 -2.64056E-02
    8986.207     -7.100  -0.560  1.16552E-01  1.46167E-01 -2.96151E-02
    8986.371     -6.936  -0.520  1.28347E-01  1.61535E-01 -3.31878E-02
    8986.524     -6.783  -0.480  1.41369E-01  1.78488E-01 -3.71185E-02
    8986.664     -6.643  -0.440  1.55505E-01  1.96878E-01 -4.13730E-02
    8986.792     -6.515  -0.400  1.70503E-01  2.16382E-01 -4.58799E-02
    8986.908     -6.399  -0.360  1.85965E-01  2.36493E-01 -5.05277E-02
    8987.011     -6.296  -0.320  2.01377E-01  2.56549E-01 -5.51718E-02
    8987.103     -6.204  -0.280  2.16169E-01  2.75820E-01 -5.96507E-02
    8987.182     -6.125  -0.240  2.29795E-01  2.93601E-01 -6.38063E-02
    8987.249     -6.058  -0.200  2.41805E-01  3.09307E-01 -6.75027E-02
    8987.304     -6.003  -0.160  2.51875E-01  3.22511E-01 -7.06357E-02
    8987.347     -5.961  -0.120  2.59808E-01  3.32942E-01 -7.31345E-02
    8987.377     -5.930  -0.080  2.65497E-01  3.40453E-01 -7.49563E-02
    8987.402     -5.906   0.000  2.70023E-01  3.46484E-01 -7.64615E-02
    8987.457     -5.851   0.120  2.80302E-01  3.60082E-01 -7.97801E-02
    8987.499     -5.808   0.160  2.88282E-01  3.70631E-01 -8.23489E-02
    8987.554     -5.753   0.200  2.98434E-01  3.84080E-01 -8.56464E-02
    8987.621     -5.686   0.240  3.10575E-01  4.00234E-01 -8.96591E-02
    8987.700     -5.607   0.280  3.24397E-01  4.18748E-01 -9.43511E-02
    8987.792     -5.516   0.320  3.39466E-01  4.39126E-01 -9.96596E-02
    8987.895     -5.412   0.360  3.55254E-01  4.60732E-01 -1.05478E-01
    8988.011     -5.296   0.400  3.71223E-01  4.82894E-01 -1.11671E-01
    8988.139     -5.168   0.440  3.87001E-01  5.05039E-01 -1.18039E-01
    8988.279     -5.028   0.480  4.02366E-01  5.26687E-01 -1.24321E-01
    8988.432     -4.875   0.520  4.17248E-01  5.47504E-01 -1.30256E-01
    8988.596     -4.711   0.560  4.31675E-01  5.67395E-01 -1.35720E-01
    8988.773     -4.534   0.600  4.45304E-01  5.86306E-01 -1.41002E-01
    8988.962     -4.345   0.640  4.57267E-01  6.04305E-01 -1.47038E-01
    8989.163     -4.144   0.680  4.66156E-01  6.21460E-01 -1.55304E-01
    8989.377     -3.931   0.720  4.70848E-01  6.37894E-01 -1.67047E-01
    8989.602     -3.705   0.760  4.71600E-01  6.53710E-01 -1.82110E-01
    8989.840     -3.467   0.800  4.70517E-01  6.69021E-01 -1.98504E-01
    8990.090     -3.217   0.840  4.70471E-01  6.83888E-01 -2.13417E-01
    8990.352     -2.955   0.880  4.73514E-01  6.98394E-01 -2.24880E-01
    8990.626     -2.681   0.920  4.79709E-01  7.12566E-01 -2.32857E-01
    8990.913     -2.394   0.960  4.87786E-01  7.26481E-01 -2.38695E-01
    8991.212     -2.096   1.000  4.96613E-01  7.40123E-01 -2.43511E-01
    8991.523     -1.785   1.040  5.05961E-01  7.53506E-01 -2.47544E-01
    8991.846     -1.462   1.080  5.15829E-01  7.66675E-01 -2.50845E-01
    8992.181     -1.126   1.120  5.25936E-01  7.79588E-01 -2.53652E-01
    8992.528     -0.779   1.160  5.36372E-01  7.92280E-01 -2.55908E-01
    8992.888     -0.419   1.200  5.48752E-01  8.04696E-01 -2.55943E-01
    8993.260     -0.047   1.240  5.66472E-01  8.16864E-01 -2.50392E-01
    8993.644      0.337   1.280  5.92078E-01  8.28745E-01 -2.36667E-01
    8994.040      0.733   1.320  6.25435E-01  8.40318E-01 -2.14882E-01
    8994.449      1.141   1.360  6.63678E-01  8.51582E-01 -1.87904E-01
    8994.869      1.562   1.400  7.02932E-01  8.62514E-01 -1.59582E-01
    8995.302      1.995   1.440  7.41067E-01  8.73093E-01 -1.32026E-01
    8995.747      2.440   1.480  7.79186E-01  8.83312E-01 -1.04126E-01
    8996.204      2.897   1.520  8.19951E-01  8.93149E-01 -7.31979E-02
    8996.674      3.366   1.560  8.61865E-01  9.02581E-01 -4.07165E-02
    8997.155      3.848   1.600  8.96563E-01  9.11626E-01 -1.50630E-02
    8997.649      4.342   1.640  9.18654E-01  9.20241E-01 -1.58695E-03
    8998.155      4.848   1.680  9.36246E-01  9.28466E-01  7.77948E-03
    8998.673      5.366   1.720  9.63683E-01  9.36238E-01  2.74456E-02
    8999.203      5.896   1.760  1.00817E+00  9.43597E-01  6.45772E-02
    8999.746      6.439   1.800  1.06586E+00  9.50504E-01  1.15359E-01
    9000.301      6.993   1.840  1.12919E+00  9.57002E-01  1.72189E-01
    9000.868      7.560   1.880  1.19022E+00  9.63074E-01  2.27150E-01
    9001.447      8.139   1.920  1.23799E+00  9.68702E-01  2.69291E-01
    9002.038      8.731   1.960  1.26367E+00  9.73930E-01  2.89744E-01
    9002.642      9.334   2.000  1.27007E+00  9.78764E-01  2.91306E-01
    9003.257      9.950   2.040  1.27061E+00  9.83189E-01  2.87422E-01
    9003.885     10.578   2.080  1.27438E+00  9.87210E-01  2.87168E-01
    9004.525     11.218   2.120  1.27880E+00  9.90876E-01  2.87925E-01
    9005.178     11.870   2.160  1.27723E+00  9.94174E-01  2.83053E-01
    9005.842     12.535   2.200  1.26661E+00  9.97129E-01  2.69479E-01
    9006.519     13.211   2.240  1.24731E+00  9.99751E-01  2.47557E-01
    9007.207     13.900   2.280  1.21969E+00  1.00205E+00  2.17640E-01
    9007.908     14.601   2.320  1.18778E+00  1.00405E+00  1.83731E-01
    9008.622     15.314   2.360  1.15954E+00  1.00578E+00  1.53767E-01
    9009.347     16.040   2.400  1.13781E+00  1.00721E+00  1.30603E-01
    9010.085     16.777   2.440  1.11976E+00  1.00841E+00  1.11358E-01
    9010.835     17.527   2.480  1.10146E+00  1.00936E+00  9.21020E-02
    9011.597     18.289   2.520  1.08020E+00  1.01008E+00  7.01180E-02
    9012.371     19.063   2.560  1.05476E+00  1.01061E+00  4.41437E-02
    9013.157     19.850   2.600  1.02785E+00  1.01095E+00  1.69071E-02
    9013.956     20.648   2.640  1.00713E+00  1.01111E+00 -3.98550E-03
    9014.766     21.459   2.680  9.95183E-01  1.01114E+00 -1.59524E-02
    9015.589     22.282   2.720  9.85456E-01  1.01100E+00 -2.55468E-02
    9016.425     23.117   2.760  9.76371E-01  1.01072E+00 -3.43505E-02
    9017.272     23.965   2.800  9.68816E-01  1.01034E+00 -4.15244E-02
    9018.131     24.824   2.840  9.63240E-01  1.00987E+00 -4.66264E-02
    9019.003     25.696   2.880  9.58973E-01  1.00928E+00 -5.03115E-02
    9019.887     26.580   2.920  9.54628E-01  1.00864E+00 -5.40128E-02
    9020.783     27.476   2.960  9.49047E-01  1.00792E+00 -5.88771E-02
    9021.691     28.384   3.000  9.41666E-01  1.00716E+00 -6.54905E-02
    9022.612     29.305   3.040  9.32486E-01  1.00632E+00 -7.38385E-02
    9023.545     30.237   3.080  9.22177E-01  1.00547E+00 -8.32969E-02
    9024.490     31.182   3.120  9.11573E-01  1.00461E+00 -9.30370E-02
    9025.447     32.139   3.160  9.01600E-01  1.00372E+00 -1.02117E-01
    9026.416     33.109   3.200  8.93405E-01  1.00282E+00 -1.09411E-01
    9027.397     34.090   3.240  8.88120E-01  1.00191E+00 -1.13793E-01
    9028.391     35.084   3.280  8.86212E-01  1.00101E+00 -1.14800E-01
    9029.397     36.090   3.320  8.87786E-01  1.00011E+00 -1.12328E-01
    9030.415     37.108   3.360  8.92627E-01  9.99244E-01 -1.06617E-01
    9031.445     38.138   3.400  9.00077E-01  9.98385E-01 -9.83085E-02
    9032.487     39.180   3.440  9.09361E-01  9.97581E-01 -8.82200E-02
    9033.542     40.235   3.480  9.19679E-01  9.96791E-01 -7.71116E-02
    9034.609     41.302   3.520  9.30453E-01  9.96038E-01 -6.55845E-02
    9035.688     42.381   3.560  9.41197E-01  9.95324E-01 -5.41270E-02
    9036.779     43.472   3.600  9.51719E-01  9.94648E-01 -4.29291E-02
    9037.882     44.575   3.640  9.61974E-01  9.94014E-01 -3.20402E-02
    9038.998     45.691   3.680  9.71761E-01  9.93424E-01 -2.16632E-02
    9040.126     46.818   3.720  9.80691E-01  9.92898E-01 -1.22077E-02
    9041.266     47.958   3.760  9.88330E-01  9.92417E-01 -4.08714E-03
    9042.418     49.111   3.800  9.94409E-01  9.91980E-01  2.42880E-03
    9043.582     50.275   3.840  9.98912E-01  9.91586E-01  7.32581E-03
    9044.759     51.451   3.880  1.00216E+00  9.91261E-01  1.09034E-02
    9045.947     52.640   3.920  1.00464E+00  9.90982E-01  1.36609E-02
    9047.148     53.841   3.960  1.00685E+00  9.90769E-01  1.60767E-02
    9048.361     55.054   4.000  1.00916E+00  9.90579E-01  1.85856E-02
    9049.587     56.279   4.040  1.01189E+00  9.90456E-01  2.14386E-02
    9050.824     57.517   4.080  1.01501E+00  9.90399E-01  2.46091E-02
    9052.074     58.767   4.120  1.01817E+00  9.90365E-01  2.78078E-02
    9053.336     60.028   4.160  1.02104E+00  9.90395E-01  3.06414E-02
    9054.610     61.302   4.200  1.02318E+00  9.90468E-01  3.27158E-02
    9055.896     62.589   4.240  1.02440E+00  9.90581E-01  3.38177E-02
    9057.194     63.887   4.280  1.02482E+00  9.90733E-01  3.40824E-02
    9058.505     65.198   4.320  1.02494E+00  9.90924E-01  3.40161E-02
    9059.828     66.521   4.360  1.02546E+00  9.91132E-01  3.43246E-02
    9061.163     67.856   4.400  1.02707E+00  9.91398E-01  3.56715E-02
    9062.510     69.203   4.440  1.03007E+00  9.91701E-01  3.83657E-02
    9063.870     70.562   4.480  1.03423E+00  9.92019E-01  4.22080E-02
    9065.241     71.934   4.520  1.03891E+00  9.92369E-01  4.65373E-02
    9066.625     73.318   4.560  1.04322E+00  9.92752E-01  5.04668E-02
    9068.021     74.714   4.600  1.04621E+00  9.93142E-01  5.30637E-02
    9069.429     76.122   4.640  1.04712E+00  9.93539E-01  5.35848E-02
    9070.849     77.542   4.680  1.04566E+00  9.93966E-01  5.16927E-02
    9072.282     78.975   4.720  1.04193E+00  9.94420E-01  4.75071E-02
    9073.727     80.419   4.760  1.03639E+00  9.94856E-01  4.15292E-02
    9075.184     81.876   4.800  1.02981E+00  9.95313E-01  3.44967E-02
    9076.653     83.346   4.840  1.02291E+00  9.95749E-01  2.71650E-02
    9078.134     84.827   4.880  1.01638E+00  9.96205E-01  2.01788E-02
    9079.628     86.320   4.920  1.01067E+00  9.96638E-01  1.40335E-02
    9081.133     87.826   4.960  1.00612E+00  9.97090E-01  9.03521E-03
    9082.651     89.344   5.000  1.00277E+00  9.97514E-01  5.25944E-03
    9084.181     90.874   5.040  1.00040E+00  9.97931E-01  2.46982E-03
    9085.724     92.416   5.080  9.98480E-01  9.98318E-01  1.61843E-04
    9087.278     93.971   5.120  9.96435E-01  9.98697E-01 -2.26153E-03
    9088.845     95.537   5.160  9.93773E-01  9.99068E-01 -5.29500E-03
    9090.424     97.116   5.200  9.90228E-01  9.99405E-01 -9.17681E-03
    9092.015     98.707   5.240  9.85790E-01  9.99709E-01 -1.39192E-02
    9093.618    100.311   5.280  9.80675E-01  9.99999E-01 -1.93241E-02
    9095.233    101.926   5.320  9.75244E-01  1.00026E+00 -2.50121E-02
    9096.861    103.554   5.360  9.70038E-01  1.00050E+00 -3.04608E-02
    9098.501    105.193   5.400  9.65561E-01  1.00068E+00 -3.51199E-02
    9100.153    106.845   5.440  9.62343E-01  1.00085E+00 -3.85047E-02
    9101.817    108.510   5.480  9.60677E-01  1.00098E+00 -4.03003E-02
    9103.493    110.186   5.520  9.60635E-01  1.00107E+00 -4.04319E-02
    9105.182    111.875   5.560  9.62011E-01  1.00112E+00 -3.91076E-02
    9106.883    113.575   5.600  9.64396E-01  1.00113E+00 -3.67334E-02
    9108.596    115.288   5.640  9.67299E-01  1.00110E+00 -3.38021E-02
    9110.321    117.014   5.680  9.70331E-01  1.00106E+00 -3.07270E-02
    9112.058    118.751   5.720  9.73183E-01  1.00095E+00 -2.77708E-02
    9113.808    120.500   5.760  9.75792E-01  1.00083E+00 -2.50396E-02
    9115.570    122.262   5.800  9.78090E-01  1.00065E+00 -2.25607E-02
    9117.343    124.036   5.840  9.80161E-01  1.00045E+00 -2.02919E-02
    9119.130    125.822   5.880  9.82075E-01  1.00022E+00 -1.81457E-02
    9120.928    127.621   5.920  9.83932E-01  9.99952E-01 -1.60200E-02
    9122.738    129.431   5.960  9.85794E-01  9.99620E-01 -1.38262E-02
    9124.561    131.254   6.000  9.87831E-01  9.99281E-01 -1.14499E-02
