# # comment:                                                     FEFF 9.9.1  
# # Source:
# # Structure
# # Reduced
# # space
# # abc:
# # angles:117.636567
# # sites:
# # POT  SCF 100  7.0000   0, screened core-hole, AFOLP (folp(0)= 1.150)
# # Abs   Z=29 Rmt= 1.264 Rnm= 1.326 K  shell
# # Pot 1 Z=25 Rmt= 1.247 Rnm= 1.366
# # Pot 2 Z=29 Rmt= 1.264 Rnm= 1.326
# # Pot 3 Z= 8 Rmt= 1.026 Rnm= 1.102
# # Gam_ch=1.729E+00 H-L exch Vi= 0.000E+00 Vr= 0.000E+00
# # Mu=-1.018E+01eV kf=2.200E+00 Vint=-1.770E+01eV Rs_int= 1.649
# FMS rfms= 9.0000
# # PATH  Rmax=-1.000,  Keep_limit= 0.00, Heap_limit 0.00  Pwcrit= 2.50%
#  S02=0.950  Temp=   0.00  Debye_temp=   0.00  Global_sig2= 0.00000
#  Energy zero shift, vr, vi    0.00000E+00   0.00000E+00
#  Curved wave amplitude ratio filter   4.000%
#     file         sig2 tot  cw amp ratio   deg  nlegs   reff  inp sig2
#     0/   0 paths used
#  xsedge+ 50, used to normalize mu           2.4820E-04
#  -----------------------------------------------------------------------
#  omega    e    k    mu    mu0     chi     @#
    8984.277    -13.991  -1.000  3.03630E-02  4.78299E-02 -1.74668E-02
    8984.576    -13.692  -0.960  3.16881E-02  5.11254E-02 -1.94373E-02
    8984.863    -13.406  -0.920  3.31037E-02  5.47725E-02 -2.16688E-02
    8985.137    -13.131  -0.880  3.46220E-02  5.88218E-02 -2.41998E-02
    8985.399    -12.869  -0.840  3.62573E-02  6.33320E-02 -2.70748E-02
    8985.649    -12.619  -0.800  3.80266E-02  6.83709E-02 -3.03443E-02
    8985.887    -12.382  -0.760  3.99501E-02  7.40162E-02 -3.40661E-02
    8986.112    -12.156  -0.720  4.20514E-02  8.03556E-02 -3.83042E-02
    8986.326    -11.943  -0.680  4.43570E-02  8.74853E-02 -4.31283E-02
    8986.527    -11.742  -0.640  4.68954E-02  9.55066E-02 -4.86112E-02
    8986.716    -11.553  -0.600  4.96950E-02  1.04519E-01 -5.48237E-02
    8986.893    -11.376  -0.560  5.27798E-02  1.14606E-01 -6.18261E-02
    8987.057    -11.211  -0.520  5.61620E-02  1.25817E-01 -6.96550E-02
    8987.210    -11.059  -0.480  5.98327E-02  1.38139E-01 -7.83060E-02
    8987.350    -10.919  -0.440  6.37506E-02  1.51464E-01 -8.77129E-02
    8987.478    -10.791  -0.400  6.78334E-02  1.65563E-01 -9.77296E-02
    8987.594    -10.675  -0.360  7.19573E-02  1.80079E-01 -1.08122E-01
    8987.697    -10.571  -0.320  7.59692E-02  1.94547E-01 -1.18578E-01
    8987.789    -10.480  -0.280  7.97114E-02  2.08449E-01 -1.28738E-01
    8987.868    -10.400  -0.240  8.30492E-02  2.21288E-01 -1.38239E-01
    8987.935    -10.333  -0.200  8.58911E-02  2.32643E-01 -1.46752E-01
    8987.990    -10.279  -0.160  8.81938E-02  2.42204E-01 -1.54010E-01
    8988.033    -10.236  -0.120  8.99511E-02  2.49769E-01 -1.59818E-01
    8988.063    -10.205  -0.080  9.11770E-02  2.55224E-01 -1.64047E-01
    8988.087    -10.181   0.000  9.21206E-02  2.59610E-01 -1.67490E-01
    8988.142    -10.126   0.120  9.42494E-02  2.69499E-01 -1.75249E-01
    8988.185    -10.083   0.160  9.58443E-02  2.77221E-01 -1.81377E-01
    8988.240    -10.029   0.200  9.77553E-02  2.87073E-01 -1.89318E-01
    8988.307     -9.962   0.240  9.99301E-02  2.98978E-01 -1.99048E-01
    8988.386     -9.882   0.280  1.02186E-01  3.12684E-01 -2.10498E-01
    8988.478     -9.791   0.320  1.04404E-01  3.27893E-01 -2.23489E-01
    8988.581     -9.687   0.360  1.06514E-01  3.44211E-01 -2.37697E-01
    8988.697     -9.571   0.400  1.08540E-01  3.61192E-01 -2.52652E-01
    8988.825     -9.443   0.440  1.10675E-01  3.78471E-01 -2.67796E-01
    8988.965     -9.303   0.480  1.13236E-01  3.95708E-01 -2.82472E-01
    8989.118     -9.151   0.520  1.16711E-01  4.12733E-01 -2.96021E-01
    8989.282     -8.986   0.560  1.21606E-01  4.29439E-01 -3.07833E-01
    8989.459     -8.809   0.600  1.28347E-01  4.45818E-01 -3.17471E-01
    8989.648     -8.620   0.640  1.37054E-01  4.61916E-01 -3.24862E-01
    8989.849     -8.419   0.680  1.46983E-01  4.77765E-01 -3.30782E-01
    8990.062     -8.206   0.720  1.56105E-01  4.93444E-01 -3.37339E-01
    8990.288     -7.980   0.760  1.61423E-01  5.09032E-01 -3.47609E-01
    8990.526     -7.743   0.800  1.61187E-01  5.24581E-01 -3.63393E-01
    8990.776     -7.493   0.840  1.56969E-01  5.40131E-01 -3.83162E-01
    8991.038     -7.231   0.880  1.52471E-01  5.55692E-01 -4.03221E-01
    8991.312     -6.956   0.920  1.50866E-01  5.71344E-01 -4.20477E-01
    8991.599     -6.670   0.960  1.53541E-01  5.87034E-01 -4.33493E-01
    8991.897     -6.371   1.000  1.60933E-01  6.02803E-01 -4.41871E-01
    8992.208     -6.060   1.040  1.73020E-01  6.18625E-01 -4.45606E-01
    8992.531     -5.737   1.080  1.89642E-01  6.34487E-01 -4.44845E-01
    8992.867     -5.402   1.120  2.10857E-01  6.50389E-01 -4.39532E-01
    8993.214     -5.054   1.160  2.36836E-01  6.66270E-01 -4.29433E-01
    8993.574     -4.695   1.200  2.66907E-01  6.82122E-01 -4.15215E-01
    8993.946     -4.323   1.240  2.99991E-01  6.97895E-01 -3.97904E-01
    8994.330     -3.939   1.280  3.36782E-01  7.13578E-01 -3.76796E-01
    8994.726     -3.543   1.320  3.80905E-01  7.29117E-01 -3.48213E-01
    8995.134     -3.134   1.360  4.39392E-01  7.44479E-01 -3.05087E-01
    8995.555     -2.713   1.400  5.14899E-01  7.59628E-01 -2.44728E-01
    8995.988     -2.281   1.440  6.00991E-01  7.74528E-01 -1.73536E-01
    8996.433     -1.836   1.480  6.93781E-01  7.89123E-01 -9.53423E-02
    8996.890     -1.378   1.520  7.91173E-01  8.03418E-01 -1.22452E-02
    8997.359     -0.909   1.560  8.76978E-01  8.17339E-01  5.96388E-02
    8997.841     -0.427   1.600  9.41577E-01  8.30871E-01  1.10706E-01
    8998.335      0.066   1.640  9.92984E-01  8.44001E-01  1.48983E-01
    8998.841      0.572   1.680  1.02843E+00  8.56676E-01  1.71757E-01
    8999.359      1.090   1.720  1.06210E+00  8.68887E-01  1.93216E-01
    8999.889      1.621   1.760  1.11966E+00  8.80604E-01  2.39051E-01
    9000.432      2.163   1.800  1.19234E+00  8.91820E-01  3.00518E-01
    9000.986      2.718   1.840  1.26808E+00  9.02507E-01  3.65576E-01
    9001.553      3.285   1.880  1.33673E+00  9.12681E-01  4.24047E-01
    9002.132      3.864   1.920  1.38777E+00  9.22298E-01  4.65476E-01
    9002.724      4.455   1.960  1.42763E+00  9.31399E-01  4.96231E-01
    9003.327      5.059   2.000  1.48697E+00  9.39941E-01  5.47032E-01
    9003.943      5.675   2.040  1.56719E+00  9.47945E-01  6.19241E-01
    9004.571      6.302   2.080  1.60571E+00  9.55392E-01  6.50319E-01
    9005.211      6.943   2.120  1.55592E+00  9.62330E-01  5.93588E-01
    9005.863      7.595   2.160  1.44275E+00  9.68740E-01  4.74013E-01
    9006.528      8.259   2.200  1.31040E+00  9.74628E-01  3.35767E-01
    9007.204      8.936   2.240  1.17381E+00  9.80021E-01  1.93787E-01
    9007.893      9.625   2.280  1.06468E+00  9.84927E-01  7.97552E-02
    9008.594     10.326   2.320  1.01283E+00  9.89374E-01  2.34540E-02
    9009.307     11.039   2.360  1.00365E+00  9.93348E-01  1.03002E-02
    9010.033     11.764   2.400  9.92418E-01  9.96902E-01 -4.48426E-03
    9010.770     12.502   2.440  9.51190E-01  1.00002E+00 -4.88331E-02
    9011.520     13.252   2.480  8.96351E-01  1.00276E+00 -1.06411E-01
    9012.282     14.014   2.520  8.50093E-01  1.00511E+00 -1.55018E-01
    9013.056     14.788   2.560  8.23167E-01  1.00712E+00 -1.83952E-01
    9013.843     15.574   2.600  8.30941E-01  1.00879E+00 -1.77853E-01
    9014.641     16.373   2.640  8.70125E-01  1.01013E+00 -1.40005E-01
    9015.452     17.184   2.680  9.10450E-01  1.01120E+00 -1.00747E-01
    9016.275     18.007   2.720  9.40280E-01  1.01199E+00 -7.17056E-02
    9017.110     18.842   2.760  9.56264E-01  1.01252E+00 -5.62593E-02
    9017.958     19.689   2.800  9.58925E-01  1.01282E+00 -5.38974E-02
    9018.817     20.549   2.840  9.52007E-01  1.01289E+00 -6.08848E-02
    9019.689     21.421   2.880  9.40400E-01  1.01278E+00 -7.23808E-02
    9020.573     22.304   2.920  9.27892E-01  1.01250E+00 -8.46080E-02
    9021.469     23.201   2.960  9.16700E-01  1.01206E+00 -9.53577E-02
    9022.377     24.109   3.000  9.07112E-01  1.01146E+00 -1.04350E-01
    9023.298     25.029   3.040  8.98422E-01  1.01074E+00 -1.12318E-01
    9024.230     25.962   3.080  8.89962E-01  1.00990E+00 -1.19938E-01
    9025.175     26.907   3.120  8.81412E-01  1.00897E+00 -1.27560E-01
    9026.132     27.864   3.160  8.73529E-01  1.00798E+00 -1.34454E-01
    9027.102     28.833   3.200  8.67706E-01  1.00690E+00 -1.39191E-01
    9028.083     29.815   3.240  8.65409E-01  1.00576E+00 -1.40352E-01
    9029.077     30.808   3.280  8.67516E-01  1.00458E+00 -1.37066E-01
    9030.083     31.814   3.320  8.74345E-01  1.00339E+00 -1.29042E-01
    9031.101     32.832   3.360  8.85426E-01  1.00214E+00 -1.16713E-01
    9032.131     33.862   3.400  8.99485E-01  1.00090E+00 -1.01417E-01
    9033.173     34.905   3.440  9.14993E-01  9.99643E-01 -8.46503E-02
    9034.228     35.959   3.480  9.30897E-01  9.98406E-01 -6.75085E-02
    9035.295     37.026   3.520  9.46553E-01  9.97175E-01 -5.06224E-02
    9036.374     38.105   3.560  9.61799E-01  9.95974E-01 -3.41744E-02
    9037.465     39.196   3.600  9.76801E-01  9.94784E-01 -1.79830E-02
    9038.568     40.300   3.640  9.91970E-01  9.93628E-01 -1.65831E-03
    9039.684     41.415   3.680  1.00786E+00  9.92510E-01  1.53510E-02
    9040.811     42.543   3.720  1.02497E+00  9.91432E-01  3.35374E-02
    9041.951     43.683   3.760  1.04334E+00  9.90397E-01  5.29423E-02
    9043.104     44.835   3.800  1.06202E+00  9.89427E-01  7.25926E-02
    9044.268     45.999   3.840  1.07924E+00  9.88503E-01  9.07409E-02
    9045.444     47.176   3.880  1.09312E+00  9.87626E-01  1.05494E-01
    9046.633     48.365   3.920  1.10227E+00  9.86818E-01  1.15456E-01
    9047.834     49.566   3.960  1.10605E+00  9.86058E-01  1.19992E-01
    9049.047     50.779   4.000  1.10452E+00  9.85368E-01  1.19148E-01
    9050.272     52.004   4.040  1.09810E+00  9.84728E-01  1.13374E-01
    9051.510     53.241   4.080  1.08788E+00  9.84162E-01  1.03717E-01
    9052.760     54.491   4.120  1.07574E+00  9.83668E-01  9.20729E-02
    9054.021     55.753   4.160  1.06391E+00  9.83225E-01  8.06824E-02
    9055.295     57.027   4.200  1.05414E+00  9.82856E-01  7.12849E-02
    9056.582     58.313   4.240  1.04727E+00  9.82559E-01  6.47106E-02
    9057.880     59.612   4.280  1.04308E+00  9.82312E-01  6.07682E-02
    9059.191     60.922   4.320  1.04056E+00  9.82135E-01  5.84279E-02
    9060.514     62.245   4.360  1.03837E+00  9.82008E-01  5.63602E-02
    9061.849     63.580   4.400  1.03542E+00  9.81949E-01  5.34737E-02
    9063.196     64.927   4.440  1.03109E+00  9.81937E-01  4.91572E-02
    9064.555     66.287   4.480  1.02518E+00  9.81971E-01  4.32134E-02
    9065.927     67.658   4.520  1.01766E+00  9.82071E-01  3.55885E-02
    9067.311     69.042   4.560  1.00840E+00  9.82215E-01  2.61836E-02
    9068.707     70.438   4.600  9.97236E-01  9.82400E-01  1.48356E-02
    9070.115     71.846   4.640  9.84161E-01  9.82626E-01  1.53489E-03
    9071.535     73.267   4.680  9.69429E-01  9.82892E-01 -1.34626E-02
    9072.968     74.699   4.720  9.53560E-01  9.83197E-01 -2.96367E-02
    9074.412     76.144   4.760  9.37379E-01  9.83540E-01 -4.61611E-02
    9075.869     77.601   4.800  9.22093E-01  9.83920E-01 -6.18270E-02
    9077.339     79.070   4.840  9.09213E-01  9.84333E-01 -7.51203E-02
    9078.820     80.551   4.880  9.00159E-01  9.84756E-01 -8.45967E-02
    9080.313     82.045   4.920  8.95652E-01  9.85188E-01 -8.95360E-02
    9081.819     83.551   4.960  8.95664E-01  9.85670E-01 -9.00058E-02
    9083.337     85.069   5.000  8.99483E-01  9.86135E-01 -8.66513E-02
    9084.867     86.599   5.040  9.06193E-01  9.86603E-01 -8.04095E-02
    9086.409     88.141   5.080  9.14828E-01  9.87095E-01 -7.22672E-02
    9087.964     89.695   5.120  9.24581E-01  9.87590E-01 -6.30086E-02
    9089.530     91.262   5.160  9.35229E-01  9.88083E-01 -5.28537E-02
    9091.109     92.841   5.200  9.47036E-01  9.88551E-01 -4.15148E-02
    9092.700     94.432   5.240  9.60347E-01  9.89035E-01 -2.86880E-02
    9094.304     96.035   5.280  9.74781E-01  9.89494E-01 -1.47127E-02
    9095.919     97.651   5.320  9.88983E-01  9.89944E-01 -9.60580E-04
    9097.547     99.278   5.360  1.00097E+00  9.90363E-01  1.06060E-02
    9099.187    100.918   5.400  1.00917E+00  9.90772E-01  1.83948E-02
    9100.839    102.570   5.440  1.01320E+00  9.91148E-01  2.20523E-02
    9102.503    104.234   5.480  1.01412E+00  9.91511E-01  2.26044E-02
    9104.179    105.911   5.520  1.01360E+00  9.91815E-01  2.17829E-02
    9105.868    107.599   5.560  1.01312E+00  9.92106E-01  2.10158E-02
    9107.568    109.300   5.600  1.01328E+00  9.92383E-01  2.08929E-02
    9109.281    111.013   5.640  1.01390E+00  9.92599E-01  2.13011E-02
    9111.007    112.738   5.680  1.01444E+00  9.92776E-01  2.16660E-02
    9112.744    114.476   5.720  1.01399E+00  9.92935E-01  2.10509E-02
    9114.493    116.225   5.760  1.01142E+00  9.93032E-01  1.83869E-02
    9116.255    117.987   5.800  1.00618E+00  9.93111E-01  1.30696E-02
    9118.029    119.761   5.840  9.98677E-01  9.93126E-01  5.55099E-03
    9119.815    121.547   5.880  9.90438E-01  9.93099E-01 -2.66041E-03
    9121.614    123.345   5.920  9.83259E-01  9.93031E-01 -9.77266E-03
    9123.424    125.156   5.960  9.78324E-01  9.92919E-01 -1.45953E-02
    9125.247    126.978   6.000  9.75959E-01  9.92739E-01 -1.67803E-02
