# # comment:                                                     FEFF 9.9.1  
# # Source:
# # Structure
# # Reduced
# # space
# # abc:
# # angles:
# # sites:
# # POT  SCF 100  7.0000   0, screened core-hole, AFOLP (folp(0)= 1.150)
# # Abs   Z=29 Rmt= 1.138 Rnm= 1.245 K  shell
# # Pot 1 Z=27 Rmt= 1.204 Rnm= 1.321
# # Pot 2 Z=29 Rmt= 1.138 Rnm= 1.245
# # Pot 3 Z= 8 Rmt= 0.991 Rnm= 1.087
# # Gam_ch=1.729E+00 H-L exch Vi= 0.000E+00 Vr= 0.000E+00
# # Mu=-1.063E+01eV kf=2.249E+00 Vint=-1.784E+01eV Rs_int= 1.612
# FMS rfms= 9.0000
# # PATH  Rmax=-1.000,  Keep_limit= 0.00, Heap_limit 0.00  Pwcrit= 2.50%
#  S02=0.950  Temp=   0.00  Debye_temp=   0.00  Global_sig2= 0.00000
#  Energy zero shift, vr, vi    0.00000E+00   0.00000E+00
#  Curved wave amplitude ratio filter   4.000%
#     file         sig2 tot  cw amp ratio   deg  nlegs   reff  inp sig2
#     0/   0 paths used
#  xsedge+ 50, used to normalize mu           2.4644E-04
#  -----------------------------------------------------------------------
#  omega    e    k    mu    mu0     chi     @#
    8984.525    -14.442  -1.000  2.95649E-02  5.07025E-02 -2.11376E-02
    8984.824    -14.144  -0.960  3.07999E-02  5.42438E-02 -2.34439E-02
    8985.110    -13.857  -0.920  3.21064E-02  5.81649E-02 -2.60585E-02
    8985.385    -13.583  -0.880  3.34914E-02  6.25203E-02 -2.90289E-02
    8985.647    -13.321  -0.840  3.49624E-02  6.73733E-02 -3.24109E-02
    8985.897    -13.071  -0.800  3.65282E-02  7.27972E-02 -3.62690E-02
    8986.134    -12.833  -0.760  3.81984E-02  7.88757E-02 -4.06773E-02
    8986.360    -12.607  -0.720  3.99836E-02  8.57033E-02 -4.57197E-02
    8986.573    -12.394  -0.680  4.18950E-02  9.33837E-02 -5.14887E-02
    8986.774    -12.193  -0.640  4.39438E-02  1.02026E-01 -5.80823E-02
    8986.963    -12.004  -0.600  4.61403E-02  1.11737E-01 -6.55971E-02
    8987.140    -11.827  -0.560  4.84920E-02  1.22608E-01 -7.41160E-02
    8987.305    -11.663  -0.520  5.10017E-02  1.34691E-01 -8.36891E-02
    8987.457    -11.510  -0.480  5.36639E-02  1.47971E-01 -9.43075E-02
    8987.597    -11.370  -0.440  5.64612E-02  1.62334E-01 -1.05873E-01
    8987.725    -11.242  -0.400  5.93613E-02  1.77532E-01 -1.18171E-01
    8987.841    -11.126  -0.360  6.23147E-02  1.93181E-01 -1.30866E-01
    8987.945    -11.022  -0.320  6.52561E-02  2.08779E-01 -1.43523E-01
    8988.036    -10.931  -0.280  6.81085E-02  2.23769E-01 -1.55661E-01
    8988.116    -10.852  -0.240  7.07894E-02  2.37615E-01 -1.66825E-01
    8988.183    -10.785  -0.200  7.32182E-02  2.49862E-01 -1.76643E-01
    8988.237    -10.730  -0.160  7.53210E-02  2.60175E-01 -1.84854E-01
    8988.280    -10.687  -0.120  7.70339E-02  2.68337E-01 -1.91303E-01
    8988.311    -10.657  -0.080  7.83068E-02  2.74223E-01 -1.95916E-01
    8988.335    -10.632   0.000  7.93853E-02  2.78956E-01 -1.99571E-01
    8988.390    -10.577   0.120  8.20021E-02  2.89655E-01 -2.07653E-01
    8988.433    -10.535   0.160  8.39736E-02  2.97975E-01 -2.14001E-01
    8988.487    -10.480   0.200  8.65285E-02  3.08622E-01 -2.22094E-01
    8988.554    -10.413   0.240  8.96934E-02  3.21473E-01 -2.31780E-01
    8988.634    -10.334   0.280  9.34592E-02  3.36281E-01 -2.42822E-01
    8988.725    -10.242   0.320  9.78555E-02  3.52728E-01 -2.54873E-01
    8988.829    -10.139   0.360  1.02815E-01  3.70393E-01 -2.67578E-01
    8988.945    -10.023   0.400  1.08223E-01  3.88802E-01 -2.80578E-01
    8989.073     -9.895   0.440  1.13836E-01  4.07519E-01 -2.93683E-01
    8989.213     -9.754   0.480  1.19391E-01  4.26244E-01 -3.06852E-01
    8989.365     -9.602   0.520  1.24587E-01  4.44752E-01 -3.20165E-01
    8989.530     -9.437   0.560  1.29294E-01  4.62929E-01 -3.33635E-01
    8989.707     -9.261   0.600  1.33635E-01  4.80786E-01 -3.47151E-01
    8989.896     -9.072   0.640  1.37693E-01  4.98306E-01 -3.60613E-01
    8990.097     -8.871   0.680  1.41534E-01  5.15584E-01 -3.74050E-01
    8990.310     -8.657   0.720  1.44767E-01  5.32682E-01 -3.87915E-01
    8990.536     -8.432   0.760  1.46867E-01  5.49662E-01 -4.02795E-01
    8990.773     -8.194   0.800  1.47405E-01  5.66576E-01 -4.19170E-01
    8991.023     -7.944   0.840  1.46435E-01  5.83464E-01 -4.37028E-01
    8991.285     -7.682   0.880  1.44840E-01  6.00334E-01 -4.55494E-01
    8991.560     -7.408   0.920  1.44288E-01  6.17225E-01 -4.72937E-01
    8991.846     -7.121   0.960  1.46349E-01  6.34142E-01 -4.87793E-01
    8992.145     -6.822   1.000  1.51976E-01  6.51062E-01 -4.99086E-01
    8992.456     -6.511   1.040  1.61784E-01  6.67955E-01 -5.06171E-01
    8992.779     -6.188   1.080  1.76595E-01  6.84823E-01 -5.08228E-01
    8993.114     -5.853   1.120  1.97908E-01  7.01623E-01 -5.03715E-01
    8993.462     -5.506   1.160  2.28432E-01  7.18329E-01 -4.89897E-01
    8993.821     -5.146   1.200  2.72976E-01  7.34889E-01 -4.61914E-01
    8994.193     -4.774   1.240  3.39947E-01  7.51270E-01 -4.11323E-01
    8994.577     -4.390   1.280  4.42898E-01  7.67416E-01 -3.24518E-01
    8994.974     -3.994   1.320  5.97458E-01  7.83291E-01 -1.85833E-01
    8995.382     -3.585   1.360  8.00934E-01  7.98857E-01  2.07753E-03
    8995.803     -3.165   1.400  9.97387E-01  8.14078E-01  1.83309E-01
    8996.235     -2.732   1.440  1.09019E+00  8.28897E-01  2.61289E-01
    8996.680     -2.287   1.480  1.04423E+00  8.43297E-01  2.00929E-01
    8997.138     -1.830   1.520  9.21110E-01  8.57221E-01  6.38888E-02
    8997.607     -1.360   1.560  7.86140E-01  8.70637E-01 -8.44970E-02
    8998.089     -0.879   1.600  6.80360E-01  8.83531E-01 -2.03172E-01
    8998.582     -0.385   1.640  6.28648E-01  8.95874E-01 -2.67226E-01
    8999.088      0.121   1.680  6.34881E-01  9.07656E-01 -2.72775E-01
    8999.606      0.639   1.720  6.66662E-01  9.18828E-01 -2.52166E-01
    9000.137      1.170   1.760  6.75091E-01  9.29407E-01 -2.54316E-01
    9000.679      1.712   1.800  6.56427E-01  9.39389E-01 -2.82962E-01
    9001.234      2.267   1.840  6.48354E-01  9.48733E-01 -3.00379E-01
    9001.801      2.834   1.880  6.88678E-01  9.57477E-01 -2.68798E-01
    9002.380      3.413   1.920  7.94712E-01  9.65604E-01 -1.70892E-01
    9002.971      4.004   1.960  9.54840E-01  9.73119E-01 -1.82789E-02
    9003.575      4.608   2.000  1.11473E+00  9.80047E-01  1.34679E-01
    9004.191      5.223   2.040  1.19838E+00  9.86392E-01  2.11985E-01
    9004.819      5.851   2.080  1.20433E+00  9.92164E-01  2.12167E-01
    9005.459      6.491   2.120  1.22934E+00  9.97369E-01  2.31973E-01
    9006.111      7.144   2.160  1.32404E+00  1.00204E+00  3.22000E-01
    9006.775      7.808   2.200  1.43451E+00  1.00620E+00  4.28307E-01
    9007.452      8.485   2.240  1.45743E+00  1.00985E+00  4.47576E-01
    9008.141      9.174   2.280  1.37975E+00  1.01304E+00  3.66708E-01
    9008.842      9.875   2.320  1.28027E+00  1.01580E+00  2.64468E-01
    9009.555     10.588   2.360  1.19731E+00  1.01810E+00  1.79209E-01
    9010.280     11.313   2.400  1.15009E+00  1.02002E+00  1.30072E-01
    9011.018     12.051   2.440  1.15618E+00  1.02156E+00  1.34619E-01
    9011.768     12.801   2.480  1.20726E+00  1.02276E+00  1.84494E-01
    9012.530     13.563   2.520  1.25860E+00  1.02362E+00  2.34978E-01
    9013.304     14.337   2.560  1.27266E+00  1.02418E+00  2.48481E-01
    9014.090     15.123   2.600  1.25940E+00  1.02448E+00  2.34921E-01
    9014.889     15.922   2.640  1.22743E+00  1.02450E+00  2.02921E-01
    9015.700     16.733   2.680  1.17877E+00  1.02431E+00  1.54458E-01
    9016.523     17.556   2.720  1.14117E+00  1.02389E+00  1.17280E-01
    9017.358     18.391   2.760  1.11733E+00  1.02330E+00  9.40383E-02
    9018.205     19.238   2.800  1.10164E+00  1.02253E+00  7.91129E-02
    9019.065     20.098   2.840  1.08785E+00  1.02161E+00  6.62473E-02
    9019.937     20.969   2.880  1.07312E+00  1.02056E+00  5.25673E-02
    9020.820     21.853   2.920  1.05798E+00  1.01939E+00  3.85969E-02
    9021.717     22.749   2.960  1.04424E+00  1.01813E+00  2.61116E-02
    9022.625     23.658   3.000  1.03315E+00  1.01679E+00  1.63633E-02
    9023.545     24.578   3.040  1.02407E+00  1.01537E+00  8.69624E-03
    9024.478     25.511   3.080  1.01578E+00  1.01393E+00  1.85709E-03
    9025.423     26.456   3.120  1.00741E+00  1.01242E+00 -5.01737E-03
    9026.380     27.413   3.160  9.98180E-01  1.01090E+00 -1.27246E-02
    9027.349     28.382   3.200  9.86974E-01  1.00936E+00 -2.23821E-02
    9028.331     29.363   3.240  9.72389E-01  1.00781E+00 -3.54163E-02
    9029.324     30.357   3.280  9.53344E-01  1.00628E+00 -5.29336E-02
    9030.330     31.363   3.320  9.30323E-01  1.00476E+00 -7.44330E-02
    9031.348     32.381   3.360  9.06099E-01  1.00324E+00 -9.71454E-02
    9032.378     33.411   3.400  8.84198E-01  1.00179E+00 -1.17590E-01
    9033.421     34.454   3.440  8.66902E-01  1.00035E+00 -1.33447E-01
    9034.475     35.508   3.480  8.54743E-01  9.98952E-01 -1.44208E-01
    9035.542     36.575   3.520  8.47357E-01  9.97621E-01 -1.50264E-01
    9036.621     37.654   3.560  8.43447E-01  9.96336E-01 -1.52889E-01
    9037.712     38.745   3.600  8.42166E-01  9.95121E-01 -1.52954E-01
    9038.816     39.848   3.640  8.43287E-01  9.93957E-01 -1.50669E-01
    9039.931     40.964   3.680  8.46957E-01  9.92865E-01 -1.45908E-01
    9041.059     42.092   3.720  8.53037E-01  9.91828E-01 -1.38791E-01
    9042.199     43.232   3.760  8.61305E-01  9.90887E-01 -1.29583E-01
    9043.351     44.384   3.800  8.71427E-01  9.90001E-01 -1.18575E-01
    9044.515     45.548   3.840  8.83149E-01  9.89194E-01 -1.06045E-01
    9045.692     46.725   3.880  8.96329E-01  9.88466E-01 -9.21371E-02
    9046.881     47.913   3.920  9.10889E-01  9.87816E-01 -7.69268E-02
    9048.082     49.114   3.960  9.26576E-01  9.87245E-01 -6.06693E-02
    9049.295     50.327   4.000  9.42689E-01  9.86755E-01 -4.40658E-02
    9050.520     51.553   4.040  9.58144E-01  9.86342E-01 -2.81978E-02
    9051.758     52.790   4.080  9.71567E-01  9.86007E-01 -1.44396E-02
    9053.007     54.040   4.120  9.81606E-01  9.85729E-01 -4.12207E-03
    9054.269     55.302   4.160  9.87333E-01  9.85549E-01  1.78417E-03
    9055.543     56.576   4.200  9.88555E-01  9.85423E-01  3.13195E-03
    9056.829     57.862   4.240  9.86481E-01  9.85374E-01  1.10726E-03
    9058.128     59.161   4.280  9.83824E-01  9.85400E-01 -1.57532E-03
    9059.438     60.471   4.320  9.83976E-01  9.85477E-01 -1.50111E-03
    9060.761     61.794   4.360  9.89686E-01  9.85628E-01  4.05872E-03
    9062.096     63.129   4.400  1.00193E+00  9.85850E-01  1.60826E-02
    9063.443     64.476   4.440  1.01961E+00  9.86119E-01  3.34941E-02
    9064.803     65.836   4.480  1.04047E+00  9.86437E-01  5.40306E-02
    9066.174     67.207   4.520  1.06232E+00  9.86821E-01  7.54948E-02
    9067.558     68.591   4.560  1.08366E+00  9.87248E-01  9.64120E-02
    9068.954     69.987   4.600  1.10277E+00  9.87717E-01  1.15048E-01
    9070.362     71.395   4.640  1.11699E+00  9.88226E-01  1.28765E-01
    9071.783     72.816   4.680  1.12359E+00  9.88772E-01  1.34815E-01
    9073.215     74.248   4.720  1.12119E+00  9.89333E-01  1.31858E-01
    9074.660     75.693   4.760  1.11073E+00  9.89950E-01  1.20777E-01
    9076.117     77.150   4.800  1.09487E+00  9.90578E-01  1.04292E-01
    9077.586     78.619   4.840  1.07686E+00  9.91215E-01  8.56463E-02
    9079.067     80.100   4.880  1.05983E+00  9.91881E-01  6.79483E-02
    9080.561     81.594   4.920  1.04625E+00  9.92575E-01  5.36740E-02
    9082.067     83.099   4.960  1.03723E+00  9.93251E-01  4.39761E-02
    9083.585     84.617   5.000  1.03249E+00  9.93949E-01  3.85416E-02
    9085.115     86.147   5.040  1.03080E+00  9.94623E-01  3.61728E-02
    9086.657     87.690   5.080  1.03096E+00  9.95319E-01  3.56435E-02
    9088.211     89.244   5.120  1.03195E+00  9.95988E-01  3.59620E-02
    9089.778     90.811   5.160  1.03272E+00  9.96651E-01  3.60682E-02
    9091.357     92.390   5.200  1.03214E+00  9.97309E-01  3.48350E-02
    9092.948     93.981   5.240  1.02938E+00  9.97935E-01  3.14467E-02
    9094.551     95.584   5.280  1.02424E+00  9.98549E-01  2.56933E-02
    9096.167     97.199   5.320  1.01674E+00  9.99129E-01  1.76106E-02
    9097.794     98.827   5.360  1.00674E+00  9.99674E-01  7.06789E-03
    9099.434    100.467   5.400  9.94069E-01  1.00020E+00 -6.13220E-03
    9101.086    102.119   5.440  9.78935E-01  1.00067E+00 -2.17341E-02
    9102.750    103.783   5.480  9.62140E-01  1.00112E+00 -3.89797E-02
    9104.427    105.459   5.520  9.44750E-01  1.00153E+00 -5.67799E-02
    9106.115    107.148   5.560  9.28015E-01  1.00188E+00 -7.38602E-02
    9107.816    108.849   5.600  9.13298E-01  1.00220E+00 -8.89007E-02
    9109.529    110.562   5.640  9.01577E-01  1.00246E+00 -1.00880E-01
    9111.254    112.287   5.680  8.93512E-01  1.00267E+00 -1.09159E-01
    9112.992    114.024   5.720  8.89604E-01  1.00284E+00 -1.13238E-01
    9114.741    115.774   5.760  8.90439E-01  1.00297E+00 -1.12529E-01
    9116.503    117.536   5.800  8.96590E-01  1.00302E+00 -1.06435E-01
    9118.277    119.310   5.840  9.08262E-01  1.00304E+00 -9.47753E-02
    9120.063    121.096   5.880  9.24756E-01  1.00301E+00 -7.82504E-02
    9121.861    122.894   5.920  9.44469E-01  1.00293E+00 -5.84615E-02
    9123.672    124.704   5.960  9.65344E-01  1.00278E+00 -3.74339E-02
    9125.494    126.527   6.000  9.86080E-01  1.00254E+00 -1.64626E-02
