# # comment:                                                     FEFF 9.9.1  
# # Source:
# # Structure
# # Reduced
# # space
# # abc:
# # angles:
# # sites:
# # POT  SCF 100  7.0000   0, screened core-hole, AFOLP (folp(0)= 1.150)
# # Abs   Z=29 Rmt= 1.164 Rnm= 1.265 K  shell
# # Pot 1 Z=38 Rmt= 1.777 Rnm= 1.853
# # Pot 2 Z=29 Rmt= 1.182 Rnm= 1.274
# # Pot 3 Z=83 Rmt= 1.634 Rnm= 1.793
# # Pot 4 Z= 8 Rmt= 1.054 Rnm= 1.105
# # Gam_ch=1.729E+00 H-L exch Vi= 0.000E+00 Vr= 0.000E+00
# # Mu=-8.705E+00eV kf=1.874E+00 Vint=-1.646E+01eV Rs_int= 1.935
# FMS rfms= 9.0000
# # PATH  Rmax=-1.000,  Keep_limit= 0.00, Heap_limit 0.00  Pwcrit= 2.50%
#  S02=0.950  Temp=   0.00  Debye_temp=   0.00  Global_sig2= 0.00000
#  Energy zero shift, vr, vi    0.00000E+00   0.00000E+00
#  Curved wave amplitude ratio filter   4.000%
#     file         sig2 tot  cw amp ratio   deg  nlegs   reff  inp sig2
#     0/   0 paths used
#  xsedge+ 50, used to normalize mu           2.4287E-04
#  -----------------------------------------------------------------------
#  omega    e    k    mu    mu0     chi     @#
    8985.015    -12.515  -1.000  3.64685E-02  5.54282E-02 -1.89598E-02
    8985.314    -12.217  -0.960  3.83766E-02  5.94358E-02 -2.10592E-02
    8985.600    -11.930  -0.920  4.04408E-02  6.38845E-02 -2.34437E-02
    8985.874    -11.656  -0.880  4.26804E-02  6.88383E-02 -2.61579E-02
    8986.136    -11.394  -0.840  4.51181E-02  7.43721E-02 -2.92541E-02
    8986.386    -11.144  -0.800  4.77795E-02  8.05723E-02 -3.27927E-02
    8986.624    -10.906  -0.760  5.06942E-02  8.75378E-02 -3.68437E-02
    8986.850    -10.681  -0.720  5.38948E-02  9.53806E-02 -4.14858E-02
    8987.063    -10.467  -0.680  5.74173E-02  1.04224E-01 -4.68063E-02
    8987.264    -10.266  -0.640  6.12987E-02  1.14196E-01 -5.28976E-02
    8987.453    -10.077  -0.600  6.55753E-02  1.25426E-01 -5.98505E-02
    8987.630     -9.900  -0.560  7.02770E-02  1.38020E-01 -6.77432E-02
    8987.795     -9.736  -0.520  7.54208E-02  1.52043E-01 -7.66224E-02
    8987.947     -9.583  -0.480  8.10005E-02  1.67479E-01 -8.64787E-02
    8988.087     -9.443  -0.440  8.69756E-02  1.84193E-01 -9.72177E-02
    8988.215     -9.315  -0.400  9.32607E-02  2.01897E-01 -1.08636E-01
    8988.331     -9.199  -0.360  9.97210E-02  2.20136E-01 -1.20415E-01
    8988.435     -9.096  -0.320  1.06177E-01  2.38322E-01 -1.32144E-01
    8988.526     -9.004  -0.280  1.12424E-01  2.55800E-01 -1.43376E-01
    8988.605     -8.925  -0.240  1.18249E-01  2.71939E-01 -1.53690E-01
    8988.672     -8.858  -0.200  1.23464E-01  2.86210E-01 -1.62746E-01
    8988.727     -8.803  -0.160  1.27912E-01  2.98221E-01 -1.70309E-01
    8988.770     -8.760  -0.120  1.31480E-01  3.07722E-01 -1.76242E-01
    8988.800     -8.730  -0.080  1.34091E-01  3.14570E-01 -1.80479E-01
    8988.825     -8.705   0.000  1.36248E-01  3.20074E-01 -1.83826E-01
    8988.880     -8.651   0.120  1.41016E-01  3.32494E-01 -1.91478E-01
    8988.922     -8.608   0.160  1.44713E-01  3.42156E-01 -1.97442E-01
    8988.977     -8.553   0.200  1.49483E-01  3.54517E-01 -2.05035E-01
    8989.044     -8.486   0.240  1.55235E-01  3.69383E-01 -2.14148E-01
    8989.123     -8.407   0.280  1.61927E-01  3.86516E-01 -2.24589E-01
    8989.215     -8.315   0.320  1.69365E-01  4.05484E-01 -2.36119E-01
    8989.319     -8.212   0.360  1.77276E-01  4.25755E-01 -2.48479E-01
    8989.434     -8.096   0.400  1.85326E-01  4.46778E-01 -2.61452E-01
    8989.562     -7.968   0.440  1.93199E-01  4.68031E-01 -2.74832E-01
    8989.703     -7.828   0.480  2.00721E-01  4.89147E-01 -2.88426E-01
    8989.855     -7.675   0.520  2.07898E-01  5.09814E-01 -3.01916E-01
    8990.020     -7.511   0.560  2.15091E-01  5.29957E-01 -3.14866E-01
    8990.196     -7.334   0.600  2.22608E-01  5.49522E-01 -3.26914E-01
    8990.385     -7.145   0.640  2.30596E-01  5.68520E-01 -3.37924E-01
    8990.587     -6.944   0.680  2.38971E-01  5.87057E-01 -3.48085E-01
    8990.800     -6.730   0.720  2.47511E-01  6.05191E-01 -3.57680E-01
    8991.025     -6.505   0.760  2.56198E-01  6.22998E-01 -3.66800E-01
    8991.263     -6.267   0.800  2.65472E-01  6.40544E-01 -3.75072E-01
    8991.513     -6.017   0.840  2.76094E-01  6.57882E-01 -3.81787E-01
    8991.775     -5.755   0.880  2.89090E-01  6.75030E-01 -3.85940E-01
    8992.050     -5.481   0.920  3.05570E-01  6.92014E-01 -3.86444E-01
    8992.336     -5.194   0.960  3.26630E-01  7.08848E-01 -3.82218E-01
    8992.635     -4.895   1.000  3.53393E-01  7.25534E-01 -3.72141E-01
    8992.946     -4.585   1.040  3.86812E-01  7.42026E-01 -3.55214E-01
    8993.269     -4.261   1.080  4.26351E-01  7.58311E-01 -3.31960E-01
    8993.604     -3.926   1.120  4.66538E-01  7.74390E-01 -3.07852E-01
    8993.952     -3.579   1.160  4.96250E-01  7.90198E-01 -2.93949E-01
    8994.311     -3.219   1.200  5.07237E-01  8.05709E-01 -2.98472E-01
    8994.683     -2.847   1.240  5.02982E-01  8.20892E-01 -3.17910E-01
    8995.067     -2.463   1.280  4.95312E-01  8.35716E-01 -3.40404E-01
    8995.463     -2.067   1.320  4.95980E-01  8.50109E-01 -3.54129E-01
    8995.872     -1.658   1.360  5.14467E-01  8.64078E-01 -3.49611E-01
    8996.292     -1.238   1.400  5.56900E-01  8.77570E-01 -3.20670E-01
    8996.725     -0.805   1.440  6.24248E-01  8.90554E-01 -2.66305E-01
    8997.170     -0.360   1.480  7.07654E-01  9.03018E-01 -1.95364E-01
    8997.627      0.097   1.520  7.81694E-01  9.14892E-01 -1.33198E-01
    8998.097      0.567   1.560  8.18149E-01  9.26209E-01 -1.08060E-01
    8998.578      1.048   1.600  8.16157E-01  9.36922E-01 -1.20765E-01
    8999.072      1.542   1.640  7.99053E-01  9.47028E-01 -1.47975E-01
    8999.578      2.048   1.680  7.92250E-01  9.56522E-01 -1.64272E-01
    9000.096      2.566   1.720  8.16821E-01  9.65383E-01 -1.48563E-01
    9000.627      3.096   1.760  8.88858E-01  9.73635E-01 -8.47772E-02
    9001.169      3.639   1.800  1.01341E+00  9.81258E-01  3.21507E-02
    9001.724      4.194   1.840  1.16812E+00  9.88255E-01  1.79864E-01
    9002.291      4.761   1.880  1.29899E+00  9.94675E-01  3.04318E-01
    9002.870      5.340   1.920  1.37332E+00  1.00048E+00  3.72840E-01
    9003.461      5.931   1.960  1.40365E+00  1.00573E+00  3.97918E-01
    9004.065      6.534   2.000  1.41267E+00  1.01041E+00  4.02261E-01
    9004.680      7.150   2.040  1.41283E+00  1.01456E+00  3.98268E-01
    9005.308      7.778   2.080  1.40866E+00  1.01818E+00  3.90478E-01
    9005.948      8.418   2.120  1.39770E+00  1.02133E+00  3.76376E-01
    9006.601      9.070   2.160  1.37850E+00  1.02401E+00  3.54493E-01
    9007.265      9.735   2.200  1.35268E+00  1.02624E+00  3.26441E-01
    9007.942     10.412   2.240  1.31891E+00  1.02805E+00  2.90865E-01
    9008.631     11.100   2.280  1.27050E+00  1.02945E+00  2.41048E-01
    9009.332     11.801   2.320  1.21583E+00  1.03051E+00  1.85319E-01
    9010.045     12.515   2.360  1.17115E+00  1.03123E+00  1.39926E-01
    9010.770     13.240   2.400  1.13575E+00  1.03164E+00  1.04106E-01
    9011.508     13.978   2.440  1.11025E+00  1.03175E+00  7.85033E-02
    9012.258     14.727   2.480  1.09475E+00  1.03161E+00  6.31398E-02
    9013.020     15.489   2.520  1.08848E+00  1.03124E+00  5.72448E-02
    9013.794     16.264   2.560  1.08900E+00  1.03063E+00  5.83726E-02
    9014.580     17.050   2.600  1.09366E+00  1.02984E+00  6.38274E-02
    9015.379     17.849   2.640  1.09960E+00  1.02888E+00  7.07275E-02
    9016.190     18.659   2.680  1.10388E+00  1.02778E+00  7.61004E-02
    9017.013     19.482   2.720  1.10331E+00  1.02653E+00  7.67744E-02
    9017.848     20.317   2.760  1.09506E+00  1.02519E+00  6.98722E-02
    9018.695     21.165   2.800  1.07739E+00  1.02376E+00  5.36371E-02
    9019.555     22.024   2.840  1.05129E+00  1.02222E+00  2.90672E-02
    9020.426     22.896   2.880  1.02052E+00  1.02066E+00 -1.32931E-04
    9021.310     23.780   2.920  9.89480E-01  1.01905E+00 -2.95699E-02
    9022.206     24.676   2.960  9.61205E-01  1.01741E+00 -5.62002E-02
    9023.115     25.584   3.000  9.37439E-01  1.01573E+00 -7.82922E-02
    9024.035     26.505   3.040  9.18891E-01  1.01407E+00 -9.51832E-02
    9024.968     27.438   3.080  9.05676E-01  1.01242E+00 -1.06743E-01
    9025.913     28.382   3.120  8.98001E-01  1.01077E+00 -1.12771E-01
    9026.870     29.340   3.160  8.95750E-01  1.00916E+00 -1.13410E-01
    9027.839     30.309   3.200  8.98253E-01  1.00758E+00 -1.09331E-01
    9028.820     31.290   3.240  9.04182E-01  1.00605E+00 -1.01869E-01
    9029.814     32.284   3.280  9.11125E-01  1.00459E+00 -9.34611E-02
    9030.820     33.290   3.320  9.15799E-01  1.00317E+00 -8.73701E-02
    9031.838     34.308   3.360  9.15637E-01  1.00180E+00 -8.61674E-02
    9032.868     35.338   3.400  9.09750E-01  1.00054E+00 -9.07866E-02
    9033.911     36.380   3.440  8.99272E-01  9.99324E-01 -1.00052E-01
    9034.965     37.435   3.480  8.86935E-01  9.98192E-01 -1.11257E-01
    9036.032     38.502   3.520  8.75866E-01  9.97142E-01 -1.21276E-01
    9037.111     39.581   3.560  8.68540E-01  9.96196E-01 -1.27656E-01
    9038.202     40.672   3.600  8.66138E-01  9.95314E-01 -1.29176E-01
    9039.306     41.775   3.640  8.69092E-01  9.94538E-01 -1.25446E-01
    9040.421     42.891   3.680  8.77394E-01  9.93849E-01 -1.16455E-01
    9041.549     44.019   3.720  8.90311E-01  9.93246E-01 -1.02935E-01
    9042.689     45.159   3.760  9.06201E-01  9.92750E-01 -8.65490E-02
    9043.841     46.311   3.800  9.22981E-01  9.92342E-01 -6.93608E-02
    9045.005     47.475   3.840  9.38702E-01  9.92019E-01 -5.33174E-02
    9046.182     48.652   3.880  9.52256E-01  9.91784E-01 -3.95279E-02
    9047.371     49.840   3.920  9.63749E-01  9.91656E-01 -2.79074E-02
    9048.571     51.041   3.960  9.73999E-01  9.91614E-01 -1.76148E-02
    9049.785     52.254   4.000  9.83956E-01  9.91656E-01 -7.70038E-03
    9051.010     53.480   4.040  9.94117E-01  9.91781E-01  2.33582E-03
    9052.247     54.717   4.080  1.00437E+00  9.91989E-01  1.23814E-02
    9053.497     55.967   4.120  1.01418E+00  9.92301E-01  2.18780E-02
    9054.759     57.229   4.160  1.02282E+00  9.92672E-01  3.01520E-02
    9056.033     58.503   4.200  1.03004E+00  9.93121E-01  3.69188E-02
    9057.319     59.789   4.240  1.03611E+00  9.93646E-01  4.24652E-02
    9058.618     61.087   4.280  1.04175E+00  9.94225E-01  4.75263E-02
    9059.928     62.398   4.320  1.04799E+00  9.94898E-01  5.30902E-02
    9061.251     63.721   4.360  1.05571E+00  9.95600E-01  6.01059E-02
    9062.586     65.056   4.400  1.06554E+00  9.96370E-01  6.91649E-02
    9063.933     66.403   4.440  1.07738E+00  9.97187E-01  8.01896E-02
    9065.293     67.762   4.480  1.09025E+00  9.98069E-01  9.21767E-02
    9066.664     69.134   4.520  1.10237E+00  9.98972E-01  1.03400E-01
    9068.048     70.518   4.560  1.11201E+00  9.99934E-01  1.12073E-01
    9069.444     71.914   4.600  1.11782E+00  1.00091E+00  1.16906E-01
    9070.852     73.322   4.640  1.11917E+00  1.00192E+00  1.17252E-01
    9072.273     74.742   4.680  1.11591E+00  1.00294E+00  1.12962E-01
    9073.705     76.175   4.720  1.10843E+00  1.00399E+00  1.04436E-01
    9075.150     77.620   4.760  1.09739E+00  1.00505E+00  9.23357E-02
    9076.607     79.077   4.800  1.08364E+00  1.00613E+00  7.75108E-02
    9078.076     80.546   4.840  1.06806E+00  1.00719E+00  6.08709E-02
    9079.557     82.027   4.880  1.05151E+00  1.00827E+00  4.32406E-02
    9081.051     83.521   4.920  1.03468E+00  1.00933E+00  2.53565E-02
    9082.556     85.026   4.960  1.01826E+00  1.01037E+00  7.88821E-03
    9084.074     86.544   5.000  1.00288E+00  1.01139E+00 -8.50292E-03
    9085.604     88.074   5.040  9.89343E-01  1.01239E+00 -2.30463E-02
    9087.147     89.617   5.080  9.78630E-01  1.01336E+00 -3.47257E-02
    9088.701     91.171   5.120  9.72113E-01  1.01428E+00 -4.21719E-02
    9090.268     92.738   5.160  9.71182E-01  1.01520E+00 -4.40141E-02
    9091.847     94.317   5.200  9.76538E-01  1.01605E+00 -3.95084E-02
    9093.438     95.908   5.240  9.87643E-01  1.01687E+00 -2.92319E-02
    9095.041     97.511   5.280  1.00240E+00  1.01764E+00 -1.52352E-02
    9096.656     99.126   5.320  1.01771E+00  1.01835E+00 -6.44579E-04
    9098.284    100.754   5.360  1.03019E+00  1.01902E+00  1.11719E-02
    9099.924    102.394   5.400  1.03713E+00  1.01961E+00  1.75185E-02
    9101.576    104.046   5.440  1.03709E+00  1.02013E+00  1.69636E-02
    9103.240    105.710   5.480  1.03017E+00  1.02062E+00  9.54944E-03
    9104.917    107.386   5.520  1.01770E+00  1.02101E+00 -3.31784E-03
    9106.605    109.075   5.560  1.00203E+00  1.02135E+00 -1.93251E-02
    9108.306    110.776   5.600  9.85731E-01  1.02162E+00 -3.58886E-02
    9110.019    112.489   5.640  9.71120E-01  1.02183E+00 -5.07113E-02
    9111.744    114.214   5.680  9.59725E-01  1.02197E+00 -6.22417E-02
    9113.481    115.951   5.720  9.52225E-01  1.02202E+00 -6.97989E-02
    9115.231    117.701   5.760  9.48713E-01  1.02200E+00 -7.32919E-02
    9116.993    119.462   5.800  9.48999E-01  1.02193E+00 -7.29331E-02
    9118.767    121.236   5.840  9.52606E-01  1.02179E+00 -6.91794E-02
    9120.553    123.022   5.880  9.58695E-01  1.02156E+00 -6.28681E-02
    9122.351    124.821   5.920  9.65954E-01  1.02129E+00 -5.53360E-02
    9124.162    126.631   5.960  9.72890E-01  1.02094E+00 -4.80455E-02
    9125.984    128.454   6.000  9.78272E-01  1.02045E+00 -4.21769E-02
