# # comment:                                                     FEFF 9.9.1  
# # Source:
# # Structure
# # Reduced
# # space
# # abc:
# # angles:
# # sites:
# # POT  SCF 100  7.0000   0, screened core-hole, AFOLP (folp(0)= 1.150)
# # Abs   Z=29 Rmt= 1.238 Rnm= 1.306 K  shell
# # Pot 1 Z=56 Rmt= 1.911 Rnm= 1.967
# # Pot 2 Z=57 Rmt= 1.746 Rnm= 1.825
# # Pot 3 Z=29 Rmt= 1.238 Rnm= 1.306
# # Pot 4 Z= 8 Rmt= 1.084 Rnm= 1.132
# # Gam_ch=1.729E+00 H-L exch Vi= 0.000E+00 Vr= 0.000E+00
# # Mu=-1.018E+01eV kf=1.976E+00 Vint=-1.759E+01eV Rs_int= 1.836
# FMS rfms= 9.0000
# # PATH  Rmax=-1.000,  Keep_limit= 0.00, Heap_limit 0.00  Pwcrit= 2.50%
#  S02=0.950  Temp=   0.00  Debye_temp=   0.00  Global_sig2= 0.00000
#  Energy zero shift, vr, vi    0.00000E+00   0.00000E+00
#  Curved wave amplitude ratio filter   4.000%
#     file         sig2 tot  cw amp ratio   deg  nlegs   reff  inp sig2
#     0/   0 paths used
#  xsedge+ 50, used to normalize mu           2.4495E-04
#  -----------------------------------------------------------------------
#  omega    e    k    mu    mu0     chi     @#
    8985.047    -13.994  -1.000  3.39640E-02  5.30377E-02 -1.90738E-02
    8985.346    -13.695  -0.960  3.56535E-02  5.68187E-02 -2.11653E-02
    8985.633    -13.409  -0.920  3.74848E-02  6.10116E-02 -2.35267E-02
    8985.907    -13.135  -0.880  3.94787E-02  6.56758E-02 -2.61971E-02
    8986.169    -12.873  -0.840  4.16596E-02  7.08809E-02 -2.92212E-02
    8986.419    -12.623  -0.800  4.40564E-02  7.67068E-02 -3.26504E-02
    8986.657    -12.385  -0.760  4.67028E-02  8.32454E-02 -3.65427E-02
    8986.882    -12.159  -0.720  4.96376E-02  9.06004E-02 -4.09628E-02
    8987.096    -11.946  -0.680  5.29042E-02  9.88854E-02 -4.59812E-02
    8987.297    -11.745  -0.640  5.65495E-02  1.08221E-01 -5.16710E-02
    8987.486    -11.556  -0.600  6.06203E-02  1.18723E-01 -5.81027E-02
    8987.663    -11.379  -0.560  6.51579E-02  1.30493E-01 -6.53349E-02
    8987.827    -11.214  -0.520  7.01888E-02  1.43588E-01 -7.33995E-02
    8987.980    -11.062  -0.480  7.57126E-02  1.57995E-01 -8.22820E-02
    8988.120    -10.922  -0.440  8.16869E-02  1.73586E-01 -9.18990E-02
    8988.248    -10.794  -0.400  8.80142E-02  1.90094E-01 -1.02079E-01
    8988.364    -10.678  -0.360  9.45374E-02  2.07097E-01 -1.12559E-01
    8988.467    -10.574  -0.320  1.01048E-01  2.24049E-01 -1.23001E-01
    8988.559    -10.483  -0.280  1.07310E-01  2.40341E-01 -1.33031E-01
    8988.638    -10.404  -0.240  1.13093E-01  2.55387E-01 -1.42294E-01
    8988.705    -10.337  -0.200  1.18203E-01  2.68694E-01 -1.50491E-01
    8988.760    -10.282  -0.160  1.22499E-01  2.79897E-01 -1.57399E-01
    8988.803    -10.239  -0.120  1.25894E-01  2.88761E-01 -1.62868E-01
    8988.833    -10.209  -0.080  1.28346E-01  2.95153E-01 -1.66806E-01
    8988.857    -10.184   0.000  1.30346E-01  3.00292E-01 -1.69946E-01
    8988.912    -10.129   0.120  1.34689E-01  3.11881E-01 -1.77192E-01
    8988.955    -10.087   0.160  1.38000E-01  3.20914E-01 -1.82913E-01
    8989.010    -10.032   0.200  1.42129E-01  3.32455E-01 -1.90326E-01
    8989.077     -9.965   0.240  1.46940E-01  3.46366E-01 -1.99427E-01
    8989.156     -9.885   0.280  1.52179E-01  3.62394E-01 -2.10216E-01
    8989.248     -9.794   0.320  1.57541E-01  3.80164E-01 -2.22623E-01
    8989.351     -9.690   0.360  1.62585E-01  3.99204E-01 -2.36619E-01
    8989.467     -9.575   0.400  1.66822E-01  4.18973E-01 -2.52151E-01
    8989.595     -9.447   0.440  1.69931E-01  4.39030E-01 -2.69099E-01
    8989.735     -9.306   0.480  1.71807E-01  4.59018E-01 -2.87211E-01
    8989.888     -9.154   0.520  1.72603E-01  4.78668E-01 -3.06065E-01
    8990.052     -8.989   0.560  1.72806E-01  4.97876E-01 -3.25070E-01
    8990.229     -8.813   0.600  1.72921E-01  5.16607E-01 -3.43686E-01
    8990.418     -8.624   0.640  1.73353E-01  5.34909E-01 -3.61556E-01
    8990.619     -8.422   0.680  1.74188E-01  5.52823E-01 -3.78634E-01
    8990.833     -8.209   0.720  1.75394E-01  5.70457E-01 -3.95063E-01
    8991.058     -7.984   0.760  1.77010E-01  5.87819E-01 -4.10808E-01
    8991.296     -7.746   0.800  1.79733E-01  6.05028E-01 -4.25296E-01
    8991.546     -7.496   0.840  1.84228E-01  6.22091E-01 -4.37863E-01
    8991.808     -7.234   0.880  1.90681E-01  6.39039E-01 -4.48358E-01
    8992.082     -6.959   0.920  1.98733E-01  6.55894E-01 -4.57161E-01
    8992.369     -6.673   0.960  2.08353E-01  6.72645E-01 -4.64292E-01
    8992.667     -6.374   1.000  2.20642E-01  6.89312E-01 -4.68670E-01
    8992.978     -6.063   1.040  2.37312E-01  7.05846E-01 -4.68533E-01
    8993.301     -5.740   1.080  2.59888E-01  7.22251E-01 -4.62363E-01
    8993.637     -5.405   1.120  2.88002E-01  7.38465E-01 -4.50463E-01
    8993.984     -5.057   1.160  3.18093E-01  7.54484E-01 -4.36392E-01
    8994.344     -4.698   1.200  3.46171E-01  7.70259E-01 -4.24087E-01
    8994.716     -4.326   1.240  3.72495E-01  7.85757E-01 -4.13262E-01
    8995.100     -3.942   1.280  3.98132E-01  8.00927E-01 -4.02795E-01
    8995.496     -3.546   1.320  4.22233E-01  8.15734E-01 -3.93501E-01
    8995.904     -3.137   1.360  4.49024E-01  8.30145E-01 -3.81121E-01
    8996.325     -2.717   1.400  4.87024E-01  8.44125E-01 -3.57102E-01
    8996.758     -2.284   1.440  5.41317E-01  8.57642E-01 -3.16325E-01
    8997.203     -1.839   1.480  6.09375E-01  8.70641E-01 -2.61267E-01
    8997.660     -1.382   1.520  6.80660E-01  8.83135E-01 -2.02475E-01
    8998.129     -0.912   1.560  7.50158E-01  8.95072E-01 -1.44913E-01
    8998.611     -0.431   1.600  8.30520E-01  9.06464E-01 -7.59442E-02
    8999.105      0.063   1.640  9.27554E-01  9.17245E-01  1.03090E-02
    8999.611      0.569   1.680  1.04145E+00  9.27452E-01  1.13997E-01
    9000.129      1.087   1.720  1.19284E+00  9.37041E-01  2.55797E-01
    9000.659      1.618   1.760  1.41424E+00  9.46054E-01  4.68188E-01
    9001.202      2.160   1.800  1.70896E+00  9.54449E-01  7.54513E-01
    9001.757      2.715   1.840  1.93768E+00  9.62230E-01  9.75452E-01
    9002.323      3.282   1.880  1.89305E+00  9.69441E-01  9.23606E-01
    9002.903      3.861   1.920  1.64855E+00  9.76049E-01  6.72500E-01
    9003.494      4.452   1.960  1.41899E+00  9.82102E-01  4.36890E-01
    9004.097      5.056   2.000  1.27195E+00  9.87586E-01  2.84369E-01
    9004.713      5.671   2.040  1.18327E+00  9.92553E-01  1.90717E-01
    9005.341      6.299   2.080  1.13108E+00  9.97013E-01  1.34071E-01
    9005.981      6.939   2.120  1.11467E+00  1.00096E+00  1.13715E-01
    9006.633      7.592   2.160  1.13102E+00  1.00443E+00  1.26588E-01
    9007.298      8.256   2.200  1.15496E+00  1.00746E+00  1.47497E-01
    9007.974      8.933   2.240  1.14021E+00  1.01007E+00  1.30147E-01
    9008.663      9.622   2.280  1.08751E+00  1.01229E+00  7.52221E-02
    9009.364     10.323   2.320  1.04667E+00  1.01411E+00  3.25551E-02
    9010.078     11.036   2.360  1.03731E+00  1.01559E+00  2.17182E-02
    9010.803     11.761   2.400  1.05417E+00  1.01675E+00  3.74195E-02
    9011.541     12.499   2.440  1.07658E+00  1.01761E+00  5.89715E-02
    9012.290     13.249   2.480  1.09746E+00  1.01819E+00  7.92787E-02
    9013.052     14.011   2.520  1.11647E+00  1.01851E+00  9.79648E-02
    9013.827     14.785   2.560  1.13006E+00  1.01859E+00  1.11462E-01
    9014.613     15.571   2.600  1.13282E+00  1.01849E+00  1.14324E-01
    9015.412     16.370   2.640  1.12005E+00  1.01819E+00  1.01854E-01
    9016.222     17.181   2.680  1.09145E+00  1.01773E+00  7.37215E-02
    9017.045     18.004   2.720  1.05259E+00  1.01710E+00  3.54904E-02
    9017.880     18.839   2.760  1.01148E+00  1.01637E+00 -4.88836E-03
    9018.728     19.686   2.800  9.73020E-01  1.01550E+00 -4.24843E-02
    9019.587     20.546   2.840  9.39282E-01  1.01457E+00 -7.52866E-02
    9020.459     21.417   2.880  9.09934E-01  1.01355E+00 -1.03618E-01
    9021.343     22.301   2.920  8.83863E-01  1.01246E+00 -1.28598E-01
    9022.239     23.197   2.960  8.61056E-01  1.01133E+00 -1.50269E-01
    9023.147     24.106   3.000  8.42233E-01  1.01017E+00 -1.67937E-01
    9024.068     25.026   3.040  8.28247E-01  1.00896E+00 -1.80714E-01
    9025.000     25.959   3.080  8.19748E-01  1.00777E+00 -1.88018E-01
    9025.945     26.904   3.120  8.16746E-01  1.00657E+00 -1.89824E-01
    9026.902     27.861   3.160  8.18593E-01  1.00538E+00 -1.86783E-01
    9027.872     28.830   3.200  8.24263E-01  1.00419E+00 -1.79926E-01
    9028.853     29.812   3.240  8.32599E-01  1.00303E+00 -1.70435E-01
    9029.847     30.805   3.280  8.42186E-01  1.00191E+00 -1.59728E-01
    9030.853     31.811   3.320  8.52149E-01  1.00083E+00 -1.48684E-01
    9031.871     32.829   3.360  8.62228E-01  9.99771E-01 -1.37544E-01
    9032.901     33.859   3.400  8.72851E-01  9.98796E-01 -1.25945E-01
    9033.943     34.902   3.440  8.84667E-01  9.97848E-01 -1.13181E-01
    9034.998     35.956   3.480  8.98578E-01  9.96969E-01 -9.83909E-02
    9036.065     37.023   3.520  9.14983E-01  9.96160E-01 -8.11771E-02
    9037.144     38.102   3.560  9.33494E-01  9.95404E-01 -6.19101E-02
    9038.235     39.193   3.600  9.53446E-01  9.94722E-01 -4.12761E-02
    9039.338     40.297   3.640  9.74328E-01  9.94115E-01 -1.97865E-02
    9040.454     41.412   3.680  9.95675E-01  9.93560E-01  2.11540E-03
    9041.582     42.540   3.720  1.01714E+00  9.93080E-01  2.40614E-02
    9042.721     43.680   3.760  1.03831E+00  9.92678E-01  4.56369E-02
    9043.874     44.832   3.800  1.05825E+00  9.92351E-01  6.58987E-02
    9045.038     45.996   3.840  1.07539E+00  9.92078E-01  8.33108E-02
    9046.214     47.173   3.880  1.08799E+00  9.91881E-01  9.61135E-02
    9047.403     48.362   3.920  1.09462E+00  9.91759E-01  1.02863E-01
    9048.604     49.562   3.960  1.09463E+00  9.91712E-01  1.02914E-01
    9049.817     50.776   4.000  1.08872E+00  9.91718E-01  9.70003E-02
    9051.042     52.001   4.040  1.07877E+00  9.91794E-01  8.69754E-02
    9052.280     53.238   4.080  1.06702E+00  9.91921E-01  7.50953E-02
    9053.530     54.488   4.120  1.05539E+00  9.92118E-01  6.32731E-02
    9054.792     55.750   4.160  1.04526E+00  9.92364E-01  5.28991E-02
    9056.066     57.024   4.200  1.03766E+00  9.92679E-01  4.49814E-02
    9057.352     58.310   4.240  1.03357E+00  9.93038E-01  4.05298E-02
    9058.650     59.609   4.280  1.03392E+00  9.93440E-01  4.04761E-02
    9059.961     60.919   4.320  1.03889E+00  9.93884E-01  4.50101E-02
    9061.284     62.242   4.360  1.04737E+00  9.94369E-01  5.30045E-02
    9062.619     63.577   4.400  1.05715E+00  9.94915E-01  6.22373E-02
    9063.966     64.924   4.440  1.06566E+00  9.95474E-01  7.01874E-02
    9065.325     66.284   4.480  1.07113E+00  9.96047E-01  7.50867E-02
    9066.697     67.655   4.520  1.07322E+00  9.96672E-01  7.65449E-02
    9068.081     69.039   4.560  1.07246E+00  9.97287E-01  7.51700E-02
    9069.477     70.435   4.600  1.06945E+00  9.97951E-01  7.15044E-02
    9070.885     71.843   4.640  1.06413E+00  9.98598E-01  6.55277E-02
    9072.305     73.264   4.680  1.05615E+00  9.99271E-01  5.68811E-02
    9073.738     74.696   4.720  1.04530E+00  9.99947E-01  4.53488E-02
    9075.183     76.141   4.760  1.03180E+00  1.00062E+00  3.11817E-02
    9076.639     77.598   4.800  1.01651E+00  1.00130E+00  1.52151E-02
    9078.109     79.067   4.840  1.00067E+00  1.00196E+00 -1.29137E-03
    9079.590     80.548   4.880  9.85606E-01  1.00260E+00 -1.69972E-02
    9081.083     82.042   4.920  9.72194E-01  1.00324E+00 -3.10431E-02
    9082.589     83.548   4.960  9.60540E-01  1.00386E+00 -4.33215E-02
    9084.107     85.065   5.000  9.50404E-01  1.00445E+00 -5.40503E-02
    9085.637     86.596   5.040  9.41832E-01  1.00503E+00 -6.32014E-02
    9087.179     88.138   5.080  9.35425E-01  1.00556E+00 -7.01309E-02
    9088.734     89.692   5.120  9.32003E-01  1.00608E+00 -7.40809E-02
    9090.301     91.259   5.160  9.31722E-01  1.00655E+00 -7.48303E-02
    9091.879     92.838   5.200  9.34080E-01  1.00698E+00 -7.28995E-02
    9093.470     94.429   5.240  9.38041E-01  1.00737E+00 -6.93256E-02
    9095.074     96.032   5.280  9.42624E-01  1.00773E+00 -6.51110E-02
    9096.689     97.648   5.320  9.47090E-01  1.00804E+00 -6.09499E-02
    9098.317     99.275   5.360  9.51311E-01  1.00830E+00 -5.69899E-02
    9099.957    100.915   5.400  9.55711E-01  1.00854E+00 -5.28290E-02
    9101.609    102.567   5.440  9.60871E-01  1.00869E+00 -4.78213E-02
    9103.273    104.231   5.480  9.67133E-01  1.00882E+00 -4.16877E-02
    9104.949    105.908   5.520  9.74104E-01  1.00891E+00 -3.48015E-02
    9106.638    107.596   5.560  9.80920E-01  1.00892E+00 -2.80025E-02
    9108.339    109.297   5.600  9.86833E-01  1.00889E+00 -2.20616E-02
    9110.052    111.010   5.640  9.91639E-01  1.00882E+00 -1.71837E-02
    9111.777    112.735   5.680  9.95725E-01  1.00871E+00 -1.29835E-02
    9113.514    114.472   5.720  9.99715E-01  1.00855E+00 -8.83415E-03
    9115.264    116.222   5.760  1.00353E+00  1.00832E+00 -4.79556E-03
    9117.025    117.984   5.800  1.00640E+00  1.00805E+00 -1.65816E-03
    9118.799    119.758   5.840  1.00749E+00  1.00774E+00 -2.53616E-04
    9120.585    121.544   5.880  1.00681E+00  1.00740E+00 -5.89023E-04
    9122.384    123.342   5.920  1.00539E+00  1.00704E+00 -1.65679E-03
    9124.194    125.153   5.960  1.00456E+00  1.00662E+00 -2.06016E-03
    9126.017    126.975   6.000  1.00578E+00  1.00613E+00 -3.56241E-04
