# # comment:                                                     FEFF 9.9.1  
# # Source:
# # Structure
# # Reduced
# # space
# # abc:
# # angles:
# # sites:
# # POT  SCF 100  7.0000   0, screened core-hole, AFOLP (folp(0)= 1.150)
# # Abs   Z=29 Rmt= 1.161 Rnm= 1.244 K  shell
# # Pot 1 Z=60 Rmt= 1.709 Rnm= 1.786
# # Pot 2 Z=29 Rmt= 1.162 Rnm= 1.244
# # Pot 3 Z= 8 Rmt= 1.025 Rnm= 1.076
# # Gam_ch=1.729E+00 H-L exch Vi= 0.000E+00 Vr= 0.000E+00
# # Mu=-7.652E+00eV kf=2.156E+00 Vint=-1.898E+01eV Rs_int= 1.682
# FMS rfms= 9.0000
# # PATH  Rmax=-1.000,  Keep_limit= 0.00, Heap_limit 0.00  Pwcrit= 2.50%
#  S02=0.950  Temp=   0.00  Debye_temp=   0.00  Global_sig2= 0.00000
#  Energy zero shift, vr, vi    0.00000E+00   0.00000E+00
#  Curved wave amplitude ratio filter   4.000%
#     file         sig2 tot  cw amp ratio   deg  nlegs   reff  inp sig2
#     0/   0 paths used
#  xsedge+ 50, used to normalize mu           2.4491E-04
#  -----------------------------------------------------------------------
#  omega    e    k    mu    mu0     chi     @#
    8985.197    -11.462  -1.000  4.10143E-02  5.91622E-02 -1.81479E-02
    8985.496    -11.163  -0.960  4.31507E-02  6.36406E-02 -2.04899E-02
    8985.782    -10.877  -0.920  4.54412E-02  6.86339E-02 -2.31927E-02
    8986.057    -10.602  -0.880  4.79012E-02  7.42196E-02 -2.63184E-02
    8986.319    -10.340  -0.840  5.05476E-02  8.04880E-02 -2.99404E-02
    8986.569    -10.090  -0.800  5.33993E-02  8.75439E-02 -3.41446E-02
    8986.806     -9.853  -0.760  5.64772E-02  9.55079E-02 -3.90307E-02
    8987.032     -9.627  -0.720  5.98036E-02  1.04516E-01 -4.47128E-02
    8987.245     -9.414  -0.680  6.34017E-02  1.14720E-01 -5.13183E-02
    8987.447     -9.212  -0.640  6.72947E-02  1.26278E-01 -5.89835E-02
    8987.636     -9.023  -0.600  7.15030E-02  1.39348E-01 -6.78448E-02
    8987.812     -8.847  -0.560  7.60409E-02  1.54064E-01 -7.80227E-02
    8987.977     -8.682  -0.520  8.09111E-02  1.70507E-01 -8.95956E-02
    8988.129     -8.530  -0.480  8.60979E-02  1.88662E-01 -1.02564E-01
    8988.269     -8.390  -0.440  9.15589E-02  2.08370E-01 -1.16811E-01
    8988.398     -8.261  -0.400  9.72182E-02  2.29282E-01 -1.32063E-01
    8988.513     -8.146  -0.360  1.02964E-01  2.50850E-01 -1.47886E-01
    8988.617     -8.042  -0.320  1.08654E-01  2.72363E-01 -1.63709E-01
    8988.708     -7.951  -0.280  1.14128E-01  2.93031E-01 -1.78903E-01
    8988.788     -7.871  -0.240  1.19223E-01  3.12098E-01 -1.92875E-01
    8988.855     -7.804  -0.200  1.23791E-01  3.28934E-01 -2.05143E-01
    8988.910     -7.749  -0.160  1.27703E-01  3.43082E-01 -2.15378E-01
    8988.952     -7.707  -0.120  1.30858E-01  3.54254E-01 -2.23396E-01
    8988.983     -7.676  -0.080  1.33177E-01  3.62296E-01 -2.29119E-01
    8989.007     -7.652   0.000  1.35096E-01  3.68752E-01 -2.33656E-01
    8989.062     -7.597   0.120  1.39536E-01  3.83292E-01 -2.43756E-01
    8989.105     -7.554   0.160  1.43000E-01  3.94571E-01 -2.51571E-01
    8989.160     -7.499   0.200  1.47512E-01  4.08930E-01 -2.61417E-01
    8989.227     -7.432   0.240  1.53194E-01  4.26187E-01 -2.72993E-01
    8989.306     -7.353   0.280  1.60059E-01  4.45899E-01 -2.85839E-01
    8989.397     -7.262   0.320  1.68238E-01  4.67558E-01 -2.99320E-01
    8989.501     -7.158   0.360  1.77792E-01  4.90446E-01 -3.12654E-01
    8989.617     -7.042   0.400  1.88787E-01  5.13845E-01 -3.25058E-01
    8989.745     -6.914   0.440  2.01237E-01  5.37122E-01 -3.35885E-01
    8989.885     -6.774   0.480  2.14894E-01  5.59714E-01 -3.44820E-01
    8990.037     -6.622   0.520  2.29359E-01  5.81338E-01 -3.51979E-01
    8990.202     -6.457   0.560  2.43986E-01  6.01807E-01 -3.57821E-01
    8990.379     -6.280   0.600  2.58243E-01  6.21106E-01 -3.62863E-01
    8990.568     -6.091   0.640  2.72202E-01  6.39289E-01 -3.67087E-01
    8990.769     -5.890   0.680  2.86870E-01  6.56456E-01 -3.69586E-01
    8990.982     -5.677   0.720  3.03985E-01  6.72744E-01 -3.68759E-01
    8991.208     -5.451   0.760  3.25170E-01  6.88293E-01 -3.63123E-01
    8991.446     -5.214   0.800  3.50624E-01  7.03168E-01 -3.52544E-01
    8991.695     -4.964   0.840  3.77877E-01  7.17502E-01 -3.39624E-01
    8991.958     -4.701   0.880  4.01247E-01  7.31348E-01 -3.30101E-01
    8992.232     -4.427   0.920  4.14646E-01  7.44808E-01 -3.30162E-01
    8992.518     -4.141   0.960  4.16641E-01  7.57887E-01 -3.41246E-01
    8992.817     -3.842   1.000  4.12504E-01  7.70636E-01 -3.58131E-01
    8993.128     -3.531   1.040  4.10034E-01  7.83097E-01 -3.73064E-01
    8993.451     -3.208   1.080  4.15095E-01  7.95263E-01 -3.80168E-01
    8993.786     -2.873   1.120  4.31762E-01  8.07158E-01 -3.75396E-01
    8994.134     -2.525   1.160  4.64040E-01  8.18761E-01 -3.54721E-01
    8994.493     -2.166   1.200  5.16219E-01  8.30087E-01 -3.13868E-01
    8994.865     -1.794   1.240  5.93069E-01  8.41143E-01 -2.48075E-01
    8995.249     -1.410   1.280  7.01007E-01  8.51899E-01 -1.50891E-01
    8995.646     -1.013   1.320  8.46899E-01  8.62335E-01 -1.54365E-02
    8996.054     -0.605   1.360  1.02834E+00  8.72476E-01  1.55863E-01
    8996.475     -0.184   1.400  1.21056E+00  8.82283E-01  3.28274E-01
    8996.907      0.248   1.440  1.31331E+00  8.91756E-01  4.21555E-01
    8997.353      0.693   1.480  1.28051E+00  9.00873E-01  3.79636E-01
    8997.810      1.151   1.520  1.16216E+00  9.09655E-01  2.52509E-01
    8998.279      1.620   1.560  1.04702E+00  9.18040E-01  1.28985E-01
    8998.761      2.102   1.600  9.87524E-01  9.26067E-01  6.14566E-02
    8999.254      2.595   1.640  1.00474E+00  9.33716E-01  7.10199E-02
    8999.760      3.101   1.680  1.10339E+00  9.40968E-01  1.62426E-01
    9000.279      3.620   1.720  1.26659E+00  9.47843E-01  3.18742E-01
    9000.809      4.150   1.760  1.43246E+00  9.54320E-01  4.78136E-01
    9001.351      4.692   1.800  1.51005E+00  9.60402E-01  5.49649E-01
    9001.906      5.247   1.840  1.45634E+00  9.66093E-01  4.90246E-01
    9002.473      5.814   1.880  1.31567E+00  9.71393E-01  3.44275E-01
    9003.052      6.393   1.920  1.17684E+00  9.76328E-01  2.00509E-01
    9003.644      6.985   1.960  1.09027E+00  9.80861E-01  1.09412E-01
    9004.247      7.588   2.000  1.04848E+00  9.85058E-01  6.34268E-02
    9004.863      8.204   2.040  1.03554E+00  9.88884E-01  4.66516E-02
    9005.491      8.832   2.080  1.05697E+00  9.92344E-01  6.46245E-02
    9006.131      9.472   2.120  1.10760E+00  9.95486E-01  1.12110E-01
    9006.783     10.124   2.160  1.16970E+00  9.98316E-01  1.71388E-01
    9007.447     10.788   2.200  1.21502E+00  1.00082E+00  2.14200E-01
    9008.124     11.465   2.240  1.22230E+00  1.00301E+00  2.19297E-01
    9008.813     12.154   2.280  1.19244E+00  1.00494E+00  1.87494E-01
    9009.514     12.855   2.320  1.14369E+00  1.00657E+00  1.37120E-01
    9010.227     13.568   2.360  1.09845E+00  1.00797E+00  9.04788E-02
    9010.953     14.294   2.400  1.06768E+00  1.00912E+00  5.85574E-02
    9011.690     15.031   2.440  1.05179E+00  1.01003E+00  4.17560E-02
    9012.440     15.781   2.480  1.04787E+00  1.01075E+00  3.71178E-02
    9013.202     16.543   2.520  1.05488E+00  1.01126E+00  4.36190E-02
    9013.976     17.317   2.560  1.06803E+00  1.01158E+00  5.64487E-02
    9014.763     18.104   2.600  1.07468E+00  1.01175E+00  6.29302E-02
    9015.561     18.902   2.640  1.07244E+00  1.01176E+00  6.06849E-02
    9016.372     19.713   2.680  1.06809E+00  1.01161E+00  5.64752E-02
    9017.195     20.536   2.720  1.06259E+00  1.01136E+00  5.12292E-02
    9018.030     21.371   2.760  1.05440E+00  1.01098E+00  4.34135E-02
    9018.877     22.218   2.800  1.04276E+00  1.01050E+00  3.22637E-02
    9019.737     23.078   2.840  1.02844E+00  1.00994E+00  1.85017E-02
    9020.609     23.950   2.880  1.01231E+00  1.00928E+00  3.02095E-03
    9021.493     24.834   2.920  9.95237E-01  1.00859E+00 -1.33576E-02
    9022.389     25.730   2.960  9.77654E-01  1.00783E+00 -3.01800E-02
    9023.297     26.638   3.000  9.60406E-01  1.00701E+00 -4.66027E-02
    9024.217     27.558   3.040  9.44289E-01  1.00618E+00 -6.18938E-02
    9025.150     28.491   3.080  9.29825E-01  1.00530E+00 -7.54770E-02
    9026.095     29.436   3.120  9.17469E-01  1.00441E+00 -8.69435E-02
    9027.052     30.393   3.160  9.07405E-01  1.00352E+00 -9.61122E-02
    9028.021     31.362   3.200  8.99701E-01  1.00264E+00 -1.02940E-01
    9029.003     32.344   3.240  8.94438E-01  1.00175E+00 -1.07308E-01
    9029.996     33.337   3.280  8.92022E-01  1.00088E+00 -1.08853E-01
    9031.002     34.343   3.320  8.92415E-01  1.00001E+00 -1.07598E-01
    9032.020     35.361   3.360  8.95229E-01  9.99181E-01 -1.03952E-01
    9033.051     36.392   3.400  8.99575E-01  9.98363E-01 -9.87876E-02
    9034.093     37.434   3.440  9.04454E-01  9.97602E-01 -9.31477E-02
    9035.148     38.489   3.480  9.09005E-01  9.96859E-01 -8.78536E-02
    9036.214     39.555   3.520  9.12848E-01  9.96178E-01 -8.33291E-02
    9037.293     40.634   3.560  9.15938E-01  9.95539E-01 -7.96014E-02
    9038.385     41.725   3.600  9.18335E-01  9.94945E-01 -7.66090E-02
    9039.488     42.829   3.640  9.20310E-01  9.94393E-01 -7.40828E-02
    9040.603     43.944   3.680  9.22263E-01  9.93908E-01 -7.16453E-02
    9041.731     45.072   3.720  9.24651E-01  9.93470E-01 -6.88186E-02
    9042.871     46.212   3.760  9.28021E-01  9.93080E-01 -6.50585E-02
    9044.023     47.364   3.800  9.33201E-01  9.92757E-01 -5.95560E-02
    9045.188     48.529   3.840  9.40843E-01  9.92483E-01 -5.16409E-02
    9046.364     49.705   3.880  9.51120E-01  9.92280E-01 -4.11608E-02
    9047.553     50.894   3.920  9.63595E-01  9.92126E-01 -2.85305E-02
    9048.754     52.095   3.960  9.77246E-01  9.92042E-01 -1.47958E-02
    9049.967     53.308   4.000  9.90636E-01  9.92006E-01 -1.36933E-03
    9051.192     54.533   4.040  1.00241E+00  9.92038E-01  1.03702E-02
    9052.430     55.771   4.080  1.01158E+00  9.92119E-01  1.94643E-02
    9053.679     57.020   4.120  1.01776E+00  9.92246E-01  2.55187E-02
    9054.941     58.282   4.160  1.02126E+00  9.92440E-01  2.88213E-02
    9056.215     59.556   4.200  1.02292E+00  9.92678E-01  3.02387E-02
    9057.501     60.842   4.240  1.02380E+00  9.92961E-01  3.08384E-02
    9058.800     62.141   4.280  1.02478E+00  9.93288E-01  3.14877E-02
    9060.111     63.452   4.320  1.02642E+00  9.93678E-01  3.27397E-02
    9061.433     64.774   4.360  1.02903E+00  9.94110E-01  3.49215E-02
    9062.768     66.109   4.400  1.03270E+00  9.94560E-01  3.81413E-02
    9064.116     67.457   4.440  1.03745E+00  9.95069E-01  4.23856E-02
    9065.475     68.816   4.480  1.04308E+00  9.95593E-01  4.74912E-02
    9066.847     70.188   4.520  1.04921E+00  9.96153E-01  5.30558E-02
    9068.230     71.571   4.560  1.05538E+00  9.96746E-01  5.86371E-02
    9069.626     72.967   4.600  1.06123E+00  9.97349E-01  6.38769E-02
    9071.035     74.376   4.640  1.06651E+00  9.97984E-01  6.85213E-02
    9072.455     75.796   4.680  1.07105E+00  9.98649E-01  7.23985E-02
    9073.887     77.228   4.720  1.07472E+00  9.99297E-01  7.54200E-02
    9075.332     78.673   4.760  1.07728E+00  9.99972E-01  7.73081E-02
    9076.789     80.130   4.800  1.07827E+00  1.00067E+00  7.75986E-02
    9078.258     81.599   4.840  1.07712E+00  1.00135E+00  7.57695E-02
    9079.740     83.081   4.880  1.07353E+00  1.00203E+00  7.15032E-02
    9081.233     84.574   4.920  1.06767E+00  1.00270E+00  6.49763E-02
    9082.739     86.080   4.960  1.06005E+00  1.00337E+00  5.66803E-02
    9084.257     87.598   5.000  1.05102E+00  1.00401E+00  4.70184E-02
    9085.787     89.128   5.040  1.04092E+00  1.00466E+00  3.62555E-02
    9087.329     90.670   5.080  1.02998E+00  1.00526E+00  2.47131E-02
    9088.884     92.225   5.120  1.01891E+00  1.00587E+00  1.30318E-02
    9090.450     93.791   5.160  1.00848E+00  1.00643E+00  2.05308E-03
    9092.029     95.370   5.200  9.99522E-01  1.00697E+00 -7.45103E-03
    9093.620     96.961   5.240  9.92415E-01  1.00748E+00 -1.50647E-02
    9095.223     98.564   5.280  9.87140E-01  1.00797E+00 -2.08318E-02
    9096.839    100.180   5.320  9.83325E-01  1.00840E+00 -2.50778E-02
    9098.466    101.807   5.360  9.80606E-01  1.00881E+00 -2.82075E-02
    9100.106    103.447   5.400  9.78600E-01  1.00916E+00 -3.05622E-02
    9101.758    105.099   5.440  9.77012E-01  1.00949E+00 -3.24788E-02
    9103.422    106.763   5.480  9.75439E-01  1.00976E+00 -3.43162E-02
    9105.099    108.440   5.520  9.73622E-01  1.01000E+00 -3.63769E-02
    9106.787    110.128   5.560  9.71390E-01  1.01018E+00 -3.87867E-02
    9108.488    111.829   5.600  9.68748E-01  1.01031E+00 -4.15579E-02
    9110.201    113.542   5.640  9.65702E-01  1.01037E+00 -4.46673E-02
    9111.926    115.267   5.680  9.62291E-01  1.01041E+00 -4.81191E-02
    9113.664    117.005   5.720  9.58448E-01  1.01038E+00 -5.19367E-02
    9115.413    118.754   5.760  9.54325E-01  1.01031E+00 -5.59904E-02
    9117.175    120.516   5.800  9.50428E-01  1.01020E+00 -5.97709E-02
    9118.949    122.290   5.840  9.47625E-01  1.01002E+00 -6.23907E-02
    9120.735    124.076   5.880  9.46921E-01  1.00979E+00 -6.28682E-02
    9122.533    125.874   5.920  9.48938E-01  1.00952E+00 -6.05838E-02
    9124.344    127.685   5.960  9.53697E-01  1.00921E+00 -5.55117E-02
    9126.167    129.508   6.000  9.60763E-01  1.00882E+00 -4.80548E-02
