# # comment:                                                     FEFF 9.9.1  
# # Source:
# # Structure
# # Reduced
# # space
# # abc:
# # angles:109.566938
# # sites:
# # POT  SCF 100  7.0000   0, screened core-hole, AFOLP (folp(0)= 1.150)
# # Abs   Z=29 Rmt= 1.403 Rnm= 1.461 K  shell
# # Pot 1 Z= 3 Rmt= 1.203 Rnm= 1.334
# # Pot 2 Z=29 Rmt= 1.386 Rnm= 1.458
# # Pot 3 Z=15 Rmt= 0.937 Rnm= 1.157
# # Pot 4 Z= 8 Rmt= 0.860 Rnm= 1.044
# # Gam_ch=1.729E+00 H-L exch Vi= 0.000E+00 Vr= 0.000E+00
# # Mu=-6.053E+00eV kf=2.511E+00 Vint=-1.744E+01eV Rs_int= 1.444
# FMS rfms= 9.0000
# # PATH  Rmax=-1.000,  Keep_limit= 0.00, Heap_limit 0.00  Pwcrit= 2.50%
#  S02=0.950  Temp=   0.00  Debye_temp=   0.00  Global_sig2= 0.00000
#  Energy zero shift, vr, vi    0.00000E+00   0.00000E+00
#  Curved wave amplitude ratio filter   4.000%
#     file         sig2 tot  cw amp ratio   deg  nlegs   reff  inp sig2
#     0/   0 paths used
#  xsedge+ 50, used to normalize mu           2.4374E-04
#  -----------------------------------------------------------------------
#  omega    e    k    mu    mu0     chi     @#
    8983.224     -9.863  -1.000  5.11554E-02  5.44745E-02 -3.31914E-03
    8983.523     -9.565  -0.960  5.43182E-02  5.83826E-02 -4.06435E-03
    8983.810     -9.278  -0.920  5.77585E-02  6.27219E-02 -4.96343E-03
    8984.084     -9.004  -0.880  6.15083E-02  6.75559E-02 -6.04766E-03
    8984.346     -8.742  -0.840  6.56040E-02  7.29585E-02 -7.35450E-03
    8984.596     -8.492  -0.800  7.00867E-02  7.90152E-02 -8.92851E-03
    8984.834     -8.254  -0.760  7.50021E-02  8.58243E-02 -1.08222E-02
    8985.059     -8.028  -0.720  8.04006E-02  9.34969E-02 -1.30963E-02
    8985.273     -7.815  -0.680  8.63358E-02  1.02155E-01 -1.58196E-02
    8985.474     -7.614  -0.640  9.28623E-02  1.11929E-01 -1.90666E-02
    8985.663     -7.425  -0.600  1.00031E-01  1.22944E-01 -2.29132E-02
    8985.839     -7.248  -0.560  1.07882E-01  1.35310E-01 -2.74281E-02
    8986.004     -7.084  -0.520  1.16431E-01  1.49090E-01 -3.26588E-02
    8986.156     -6.931  -0.480  1.25658E-01  1.64271E-01 -3.86130E-02
    8986.297     -6.791  -0.440  1.35482E-01  1.80718E-01 -4.52358E-02
    8986.425     -6.663  -0.400  1.45754E-01  1.98145E-01 -5.23911E-02
    8986.541     -6.547  -0.360  1.56245E-01  2.16102E-01 -5.98567E-02
    8986.644     -6.443  -0.320  1.66663E-01  2.34004E-01 -6.73412E-02
    8986.736     -6.352  -0.280  1.76677E-01  2.51201E-01 -7.45244E-02
    8986.815     -6.273  -0.240  1.85963E-01  2.67071E-01 -8.11083E-02
    8986.882     -6.206  -0.200  1.94233E-01  2.81091E-01 -8.68587E-02
    8986.937     -6.151  -0.160  2.01257E-01  2.92881E-01 -9.16245E-02
    8986.979     -6.108  -0.120  2.06867E-01  3.02199E-01 -9.53312E-02
    8987.010     -6.078  -0.080  2.10950E-01  3.08909E-01 -9.79595E-02
    8987.034     -6.053   0.000  2.14268E-01  3.14300E-01 -1.00031E-01
    8987.089     -5.998   0.120  2.21790E-01  3.26453E-01 -1.04663E-01
    8987.132     -5.956   0.160  2.27685E-01  3.35887E-01 -1.08202E-01
    8987.187     -5.901   0.200  2.35344E-01  3.47938E-01 -1.12594E-01
    8987.254     -5.834   0.240  2.44795E-01  3.62435E-01 -1.17641E-01
    8987.333     -5.755   0.280  2.56026E-01  3.79062E-01 -1.23035E-01
    8987.424     -5.663   0.320  2.69005E-01  3.97384E-01 -1.28379E-01
    8987.528     -5.560   0.360  2.83721E-01  4.16889E-01 -1.33168E-01
    8987.644     -5.444   0.400  3.00089E-01  4.36967E-01 -1.36878E-01
    8987.772     -5.316   0.440  3.18126E-01  4.57141E-01 -1.39015E-01
    8987.912     -5.175   0.480  3.37837E-01  4.76995E-01 -1.39158E-01
    8988.065     -5.023   0.520  3.59236E-01  4.96275E-01 -1.37038E-01
    8988.229     -4.859   0.560  3.82323E-01  5.14848E-01 -1.32526E-01
    8988.406     -4.682   0.600  4.06940E-01  5.32710E-01 -1.25770E-01
    8988.595     -4.493   0.640  4.32754E-01  5.49924E-01 -1.17169E-01
    8988.796     -4.292   0.680  4.59331E-01  5.66590E-01 -1.07259E-01
    8989.009     -4.078   0.720  4.86587E-01  5.82825E-01 -9.62381E-02
    8989.235     -3.853   0.760  5.14943E-01  5.98701E-01 -8.37575E-02
    8989.473     -3.615   0.800  5.45112E-01  6.14344E-01 -6.92317E-02
    8989.723     -3.365   0.840  5.77366E-01  6.29825E-01 -5.24594E-02
    8989.985     -3.103   0.880  6.11520E-01  6.45204E-01 -3.36838E-02
    8990.259     -2.829   0.920  6.47760E-01  6.60544E-01 -1.27836E-02
    8990.546     -2.542   0.960  6.86888E-01  6.75898E-01  1.09899E-02
    8990.844     -2.243   1.000  7.28993E-01  6.91267E-01  3.77260E-02
    8991.155     -1.932   1.040  7.72702E-01  7.06661E-01  6.60409E-02
    8991.478     -1.609   1.080  8.16846E-01  7.22123E-01  9.47230E-02
    8991.814     -1.274   1.120  8.60583E-01  7.37629E-01  1.22954E-01
    8992.161     -0.927   1.160  9.00219E-01  7.53166E-01  1.47053E-01
    8992.521     -0.567   1.200  9.30946E-01  7.68719E-01  1.62227E-01
    8992.893     -0.195   1.240  9.53306E-01  7.84265E-01  1.69041E-01
    8993.277      0.189   1.280  9.71429E-01  7.99779E-01  1.71651E-01
    8993.673      0.585   1.320  9.89754E-01  8.15253E-01  1.74501E-01
    8994.081      0.994   1.360  1.01530E+00  8.30593E-01  1.84705E-01
    8994.502      1.414   1.400  1.05292E+00  8.45826E-01  2.07095E-01
    8994.935      1.847   1.440  1.09854E+00  8.60854E-01  2.37688E-01
    8995.380      2.292   1.480  1.14113E+00  8.75681E-01  2.65453E-01
    8995.837      2.749   1.520  1.17012E+00  8.90247E-01  2.79870E-01
    8996.306      3.219   1.560  1.18478E+00  9.04493E-01  2.80283E-01
    8996.788      3.700   1.600  1.19279E+00  9.18398E-01  2.74390E-01
    8997.282      4.194   1.640  1.20073E+00  9.31880E-01  2.68849E-01
    8997.788      4.700   1.680  1.20624E+00  9.44940E-01  2.61303E-01
    8998.306      5.218   1.720  1.20240E+00  9.57520E-01  2.44876E-01
    8998.836      5.748   1.760  1.18730E+00  9.69580E-01  2.17721E-01
    8999.379      6.291   1.800  1.16598E+00  9.81083E-01  1.84901E-01
    8999.933      6.846   1.840  1.14593E+00  9.91992E-01  1.53940E-01
    9000.500      7.413   1.880  1.13248E+00  1.00227E+00  1.30206E-01
    9001.079      7.992   1.920  1.12927E+00  1.01191E+00  1.17355E-01
    9001.671      8.583   1.960  1.13517E+00  1.02088E+00  1.14282E-01
    9002.274      9.187   2.000  1.14684E+00  1.02918E+00  1.17664E-01
    9002.890      9.802   2.040  1.16084E+00  1.03676E+00  1.24077E-01
    9003.518     10.430   2.080  1.16917E+00  1.04364E+00  1.25531E-01
    9004.158     11.070   2.120  1.16392E+00  1.04981E+00  1.14106E-01
    9004.810     11.723   2.160  1.14636E+00  1.05530E+00  9.10590E-02
    9005.475     12.387   2.200  1.12392E+00  1.06006E+00  6.38631E-02
    9006.151     13.064   2.240  1.10216E+00  1.06414E+00  3.80268E-02
    9006.840     13.753   2.280  1.08244E+00  1.06752E+00  1.49159E-02
    9007.541     14.454   2.320  1.06551E+00  1.07027E+00 -4.75849E-03
    9008.254     15.167   2.360  1.05332E+00  1.07237E+00 -1.90444E-02
    9008.980     15.892   2.400  1.04627E+00  1.07387E+00 -2.76019E-02
    9009.717     16.630   2.440  1.04121E+00  1.07477E+00 -3.35593E-02
    9010.467     17.380   2.480  1.03426E+00  1.07514E+00 -4.08832E-02
    9011.229     18.142   2.520  1.02260E+00  1.07499E+00 -5.23905E-02
    9012.003     18.916   2.560  1.00335E+00  1.07434E+00 -7.09905E-02
    9012.790     19.702   2.600  9.75007E-01  1.07324E+00 -9.82293E-02
    9013.588     20.501   2.640  9.42557E-01  1.07172E+00 -1.29162E-01
    9014.399     21.312   2.680  9.14710E-01  1.06982E+00 -1.55114E-01
    9015.222     22.134   2.720  8.96164E-01  1.06759E+00 -1.71430E-01
    9016.057     22.970   2.760  8.85195E-01  1.06507E+00 -1.79871E-01
    9016.905     23.817   2.800  8.79676E-01  1.06226E+00 -1.82583E-01
    9017.764     24.676   2.840  8.80058E-01  1.05923E+00 -1.79174E-01
    9018.636     25.548   2.880  8.84632E-01  1.05600E+00 -1.71369E-01
    9019.520     26.432   2.920  8.93617E-01  1.05260E+00 -1.58986E-01
    9020.416     27.328   2.960  9.02952E-01  1.04907E+00 -1.46122E-01
    9021.324     28.237   3.000  9.14755E-01  1.04543E+00 -1.30678E-01
    9022.245     29.157   3.040  9.28836E-01  1.04174E+00 -1.12899E-01
    9023.177     30.090   3.080  9.44638E-01  1.03799E+00 -9.33503E-02
    9024.122     31.035   3.120  9.61630E-01  1.03421E+00 -7.25807E-02
    9025.079     31.992   3.160  9.79319E-01  1.03046E+00 -5.11438E-02
    9026.049     32.961   3.200  9.96931E-01  1.02672E+00 -2.97935E-02
    9027.030     33.942   3.240  1.01441E+00  1.02305E+00 -8.64428E-03
    9028.024     34.936   3.280  1.03153E+00  1.01946E+00  1.20701E-02
    9029.029     35.942   3.320  1.04783E+00  1.01593E+00  3.19001E-02
    9030.047     36.960   3.360  1.06277E+00  1.01254E+00  5.02308E-02
    9031.078     37.990   3.400  1.07555E+00  1.00923E+00  6.63176E-02
    9032.120     39.033   3.440  1.08549E+00  1.00609E+00  7.94035E-02
    9033.175     40.087   3.480  1.09208E+00  1.00310E+00  8.89823E-02
    9034.242     41.154   3.520  1.09515E+00  1.00025E+00  9.48992E-02
    9035.320     42.233   3.560  1.09479E+00  9.97579E-01  9.72080E-02
    9036.412     43.324   3.600  1.09157E+00  9.95081E-01  9.64901E-02
    9037.515     44.427   3.640  1.08633E+00  9.92759E-01  9.35678E-02
    9038.631     45.543   3.680  1.07994E+00  9.90629E-01  8.93098E-02
    9039.758     46.671   3.720  1.07328E+00  9.88701E-01  8.45776E-02
    9040.898     47.811   3.760  1.06700E+00  9.86952E-01  8.00441E-02
    9042.050     48.963   3.800  1.06138E+00  9.85425E-01  7.59525E-02
    9043.215     50.127   3.840  1.05621E+00  9.84081E-01  7.21301E-02
    9044.391     51.304   3.880  1.05107E+00  9.82960E-01  6.81066E-02
    9045.580     52.492   3.920  1.04526E+00  9.82019E-01  6.32381E-02
    9046.781     53.693   3.960  1.03826E+00  9.81279E-01  5.69856E-02
    9047.994     54.906   4.000  1.02990E+00  9.80738E-01  4.91598E-02
    9049.219     56.132   4.040  1.02039E+00  9.80375E-01  4.00158E-02
    9050.457     57.369   4.080  1.01027E+00  9.80210E-01  3.00572E-02
    9051.706     58.619   4.120  1.00016E+00  9.80239E-01  1.99218E-02
    9052.968     59.881   4.160  9.90652E-01  9.80440E-01  1.02113E-02
    9054.242     61.155   4.200  9.82147E-01  9.80831E-01  1.31642E-03
    9055.529     62.441   4.240  9.74769E-01  9.81364E-01 -6.59514E-03
    9056.827     63.739   4.280  9.68513E-01  9.82058E-01 -1.35447E-02
    9058.138     65.050   4.320  9.63162E-01  9.82909E-01 -1.97474E-02
    9059.461     66.373   4.360  9.58431E-01  9.83913E-01 -2.54821E-02
    9060.796     67.708   4.400  9.54107E-01  9.85022E-01 -3.09154E-02
    9062.143     69.055   4.440  9.50212E-01  9.86275E-01 -3.60629E-02
    9063.502     70.415   4.480  9.46889E-01  9.87623E-01 -4.07341E-02
    9064.874     71.786   4.520  9.44484E-01  9.89082E-01 -4.45975E-02
    9066.258     73.170   4.560  9.43211E-01  9.90625E-01 -4.74142E-02
    9067.654     74.566   4.600  9.43008E-01  9.92226E-01 -4.92185E-02
    9069.062     75.974   4.640  9.43642E-01  9.93921E-01 -5.02789E-02
    9070.482     77.394   4.680  9.44694E-01  9.95642E-01 -5.09479E-02
    9071.915     78.827   4.720  9.45980E-01  9.97425E-01 -5.14452E-02
    9073.359     80.272   4.760  9.47573E-01  9.99220E-01 -5.16468E-02
    9074.816     81.729   4.800  9.49878E-01  1.00104E+00 -5.11653E-02
    9076.285     83.198   4.840  9.53308E-01  1.00285E+00 -4.95387E-02
    9077.767     84.679   4.880  9.58230E-01  1.00467E+00 -4.64356E-02
    9079.260     86.173   4.920  9.64626E-01  1.00645E+00 -4.18263E-02
    9080.766     87.678   4.960  9.72248E-01  1.00820E+00 -3.59528E-02
    9082.284     89.196   5.000  9.80748E-01  1.00990E+00 -2.91561E-02
    9083.814     90.726   5.040  9.89808E-01  1.01154E+00 -2.17274E-02
    9085.356     92.269   5.080  9.99281E-01  1.01311E+00 -1.38302E-02
    9086.911     93.823   5.120  1.00903E+00  1.01461E+00 -5.58140E-03
    9088.477     95.390   5.160  1.01883E+00  1.01600E+00  2.83254E-03
    9090.056     96.969   5.200  1.02838E+00  1.01732E+00  1.10609E-02
    9091.647     98.560   5.240  1.03709E+00  1.01850E+00  1.85879E-02
    9093.251    100.163   5.280  1.04444E+00  1.01959E+00  2.48563E-02
    9094.866    101.778   5.320  1.05004E+00  1.02058E+00  2.94584E-02
    9096.494    103.406   5.360  1.05372E+00  1.02142E+00  3.22975E-02
    9098.133    105.046   5.400  1.05573E+00  1.02211E+00  3.36242E-02
    9099.785    106.698   5.440  1.05662E+00  1.02269E+00  3.39213E-02
    9101.450    108.362   5.480  1.05682E+00  1.02313E+00  3.36884E-02
    9103.126    110.038   5.520  1.05668E+00  1.02344E+00  3.32442E-02
    9104.815    111.727   5.560  1.05627E+00  1.02362E+00  3.26559E-02
    9106.515    113.428   5.600  1.05546E+00  1.02364E+00  3.18231E-02
    9108.228    115.141   5.640  1.05414E+00  1.02354E+00  3.05945E-02
    9109.954    116.866   5.680  1.05215E+00  1.02331E+00  2.88320E-02
    9111.691    118.603   5.720  1.04947E+00  1.02296E+00  2.65040E-02
    9113.440    120.353   5.760  1.04621E+00  1.02247E+00  2.37482E-02
    9115.202    122.115   5.800  1.04270E+00  1.02187E+00  2.08302E-02
    9116.976    123.888   5.840  1.03916E+00  1.02117E+00  1.79928E-02
    9118.762    125.675   5.880  1.03571E+00  1.02035E+00  1.53546E-02
    9120.561    127.473   5.920  1.03241E+00  1.01946E+00  1.29508E-02
    9122.371    129.283   5.960  1.02930E+00  1.01848E+00  1.08223E-02
    9124.194    131.106   6.000  1.02633E+00  1.01736E+00  8.96589E-03
