# # comment:                                                     FEFF 9.9.1  
# # Source:
# # Structure
# # Reduced
# # space
# # abc:
# # angles:
# # sites:
# # POT  SCF 100  7.0000   0, screened core-hole, AFOLP (folp(0)= 1.150)
# # Abs   Z=29 Rmt= 1.208 Rnm= 1.290 K  shell
# # Pot 1 Z=63 Rmt= 1.702 Rnm= 1.746
# # Pot 2 Z=22 Rmt= 1.272 Rnm= 1.405
# # Pot 3 Z=29 Rmt= 1.208 Rnm= 1.291
# # Pot 4 Z= 8 Rmt= 0.988 Rnm= 1.098
# # Gam_ch=1.729E+00 H-L exch Vi= 0.000E+00 Vr= 0.000E+00
# # Mu=-9.995E+00eV kf=2.185E+00 Vint=-1.880E+01eV Rs_int= 1.660
# FMS rfms= 9.0000
# # PATH  Rmax=-1.000,  Keep_limit= 0.00, Heap_limit 0.00  Pwcrit= 2.50%
#  S02=0.950  Temp=   0.00  Debye_temp=   0.00  Global_sig2= 0.00000
#  Energy zero shift, vr, vi    0.00000E+00   0.00000E+00
#  Curved wave amplitude ratio filter   4.000%
#     file         sig2 tot  cw amp ratio   deg  nlegs   reff  inp sig2
#     0/   0 paths used
#  xsedge+ 50, used to normalize mu           2.4761E-04
#  -----------------------------------------------------------------------
#  omega    e    k    mu    mu0     chi     @#
    8985.053    -13.805  -1.000  3.65866E-02  5.10074E-02 -1.44207E-02
    8985.352    -13.506  -0.960  3.84544E-02  5.46471E-02 -1.61927E-02
    8985.638    -13.220  -0.920  4.04537E-02  5.86871E-02 -1.82334E-02
    8985.912    -12.945  -0.880  4.25967E-02  6.31859E-02 -2.05891E-02
    8986.175    -12.683  -0.840  4.48972E-02  6.82116E-02 -2.33144E-02
    8986.425    -12.433  -0.800  4.73703E-02  7.38434E-02 -2.64731E-02
    8986.662    -12.196  -0.760  5.00324E-02  8.01718E-02 -3.01393E-02
    8986.888    -11.970  -0.720  5.29014E-02  8.72991E-02 -3.43977E-02
    8987.101    -11.757  -0.680  5.59956E-02  9.53380E-02 -3.93424E-02
    8987.302    -11.555  -0.640  5.93332E-02  1.04407E-01 -4.50741E-02
    8987.491    -11.366  -0.600  6.29303E-02  1.14624E-01 -5.16935E-02
    8987.668    -11.190  -0.560  6.67983E-02  1.26087E-01 -5.92884E-02
    8987.833    -11.025  -0.520  7.09394E-02  1.38855E-01 -6.79155E-02
    8987.985    -10.873  -0.480  7.53416E-02  1.52915E-01 -7.75733E-02
    8988.125    -10.732  -0.440  7.99717E-02  1.68143E-01 -8.81714E-02
    8988.253    -10.604  -0.400  8.47699E-02  1.84275E-01 -9.95055E-02
    8988.369    -10.489  -0.360  8.96472E-02  2.00897E-01 -1.11249E-01
    8988.473    -10.385  -0.320  9.44877E-02  2.17468E-01 -1.22980E-01
    8988.564    -10.294  -0.280  9.91576E-02  2.33390E-01 -1.34233E-01
    8988.643    -10.214  -0.240  1.03518E-01  2.48088E-01 -1.44570E-01
    8988.710    -10.147  -0.200  1.07437E-01  2.61078E-01 -1.53641E-01
    8988.765    -10.092  -0.160  1.10801E-01  2.72006E-01 -1.61205E-01
    8988.808    -10.050  -0.120  1.13519E-01  2.80646E-01 -1.67127E-01
    8988.839    -10.019  -0.080  1.15523E-01  2.86871E-01 -1.71348E-01
    8988.863     -9.995   0.000  1.17192E-01  2.91872E-01 -1.74680E-01
    8988.918     -9.940   0.120  1.20902E-01  3.03157E-01 -1.82254E-01
    8988.960     -9.897   0.160  1.23816E-01  3.11936E-01 -1.88120E-01
    8989.015     -9.842   0.200  1.27575E-01  3.23127E-01 -1.95552E-01
    8989.082     -9.775   0.240  1.32262E-01  3.36621E-01 -2.04359E-01
    8989.162     -9.696   0.280  1.37852E-01  3.52114E-01 -2.14262E-01
    8989.253     -9.605   0.320  1.44324E-01  3.69220E-01 -2.24896E-01
    8989.357     -9.501   0.360  1.51635E-01  3.87475E-01 -2.35840E-01
    8989.472     -9.385   0.400  1.59602E-01  4.06346E-01 -2.46744E-01
    8989.601     -9.257   0.440  1.67996E-01  4.25347E-01 -2.57351E-01
    8989.741     -9.117   0.480  1.76531E-01  4.44136E-01 -2.67604E-01
    8989.893     -8.965   0.520  1.84879E-01  4.62460E-01 -2.77581E-01
    8990.058     -8.800   0.560  1.92865E-01  4.80196E-01 -2.87331E-01
    8990.234     -8.623   0.600  2.00708E-01  4.97334E-01 -2.96627E-01
    8990.423     -8.434   0.640  2.09327E-01  5.13928E-01 -3.04601E-01
    8990.625     -8.233   0.680  2.20512E-01  5.30023E-01 -3.09510E-01
    8990.838     -8.020   0.720  2.36881E-01  5.45736E-01 -3.08855E-01
    8991.064     -7.794   0.760  2.61277E-01  5.61123E-01 -2.99847E-01
    8991.301     -7.556   0.800  2.95952E-01  5.76276E-01 -2.80324E-01
    8991.551     -7.307   0.840  3.40689E-01  5.91248E-01 -2.50560E-01
    8991.813     -7.044   0.880  3.89703E-01  6.06084E-01 -2.16380E-01
    8992.088     -6.770   0.920  4.32259E-01  6.20815E-01 -1.88556E-01
    8992.374     -6.484   0.960  4.62315E-01  6.35481E-01 -1.73166E-01
    8992.673     -6.185   1.000  4.86228E-01  6.50073E-01 -1.63845E-01
    8992.984     -5.874   1.040  5.16807E-01  6.64593E-01 -1.47786E-01
    8993.307     -5.551   1.080  5.63543E-01  6.79057E-01 -1.15514E-01
    8993.642     -5.216   1.120  6.29810E-01  6.93454E-01 -6.36438E-02
    8993.990     -4.868   1.160  7.13590E-01  7.07748E-01  5.84204E-03
    8994.349     -4.508   1.200  7.91038E-01  7.21918E-01  6.91194E-02
    8994.721     -4.137   1.240  8.07973E-01  7.35964E-01  7.20094E-02
    8995.105     -3.753   1.280  7.41590E-01  7.49839E-01 -8.24840E-03
    8995.501     -3.356   1.320  6.41942E-01  7.63517E-01 -1.21575E-01
    8995.910     -2.948   1.360  5.65139E-01  7.76990E-01 -2.11851E-01
    8996.330     -2.527   1.400  5.33028E-01  7.90228E-01 -2.57200E-01
    8996.763     -2.094   1.440  5.47881E-01  8.03181E-01 -2.55300E-01
    8997.208     -1.649   1.480  6.04085E-01  8.15861E-01 -2.11775E-01
    8997.665     -1.192   1.520  6.81448E-01  8.28194E-01 -1.46747E-01
    8998.135     -0.723   1.560  7.46589E-01  8.40195E-01 -9.36058E-02
    8998.616     -0.241   1.600  7.92003E-01  8.51813E-01 -5.98101E-02
    8999.110      0.252   1.640  8.34231E-01  8.63059E-01 -2.88285E-02
    8999.616      0.758   1.680  8.71617E-01  8.73887E-01 -2.26925E-03
    9000.134      1.277   1.720  8.75154E-01  8.84288E-01 -9.13431E-03
    9000.665      1.807   1.760  8.46060E-01  8.94259E-01 -4.81987E-02
    9001.207      2.349   1.800  8.33860E-01  9.03796E-01 -6.99359E-02
    9001.762      2.904   1.840  8.51521E-01  9.12855E-01 -6.13342E-02
    9002.329      3.471   1.880  8.84581E-01  9.21473E-01 -3.68928E-02
    9002.908      4.050   1.920  9.40558E-01  9.29631E-01  1.09271E-02
    9003.499      4.642   1.960  1.02247E+00  9.37306E-01  8.51686E-02
    9004.103      5.245   2.000  1.11939E+00  9.44522E-01  1.74869E-01
    9004.719      5.861   2.040  1.20038E+00  9.51280E-01  2.49104E-01
    9005.346      6.489   2.080  1.24766E+00  9.57583E-01  2.90077E-01
    9005.986      7.129   2.120  1.28169E+00  9.63457E-01  3.18231E-01
    9006.639      7.781   2.160  1.31341E+00  9.68863E-01  3.44543E-01
    9007.303      8.445   2.200  1.33992E+00  9.73850E-01  3.66067E-01
    9007.980      9.122   2.240  1.34572E+00  9.78422E-01  3.67295E-01
    9008.669      9.811   2.280  1.32425E+00  9.82588E-01  3.41663E-01
    9009.370     10.512   2.320  1.30624E+00  9.86374E-01  3.19869E-01
    9010.083     11.225   2.360  1.31662E+00  9.89787E-01  3.26832E-01
    9010.808     11.951   2.400  1.33620E+00  9.92815E-01  3.43382E-01
    9011.546     12.688   2.440  1.31596E+00  9.95528E-01  3.20434E-01
    9012.296     13.438   2.480  1.23413E+00  9.97893E-01  2.36236E-01
    9013.058     14.200   2.520  1.12991E+00  9.99958E-01  1.29949E-01
    9013.832     14.974   2.560  1.04488E+00  1.00173E+00  4.31503E-02
    9014.618     15.761   2.600  1.00118E+00  1.00323E+00 -2.04838E-03
    9015.417     16.559   2.640  9.85098E-01  1.00445E+00 -1.93503E-02
    9016.228     17.370   2.680  9.74739E-01  1.00544E+00 -3.07054E-02
    9017.051     18.193   2.720  9.66012E-01  1.00620E+00 -4.01931E-02
    9017.886     19.028   2.760  9.60091E-01  1.00676E+00 -4.66684E-02
    9018.733     19.875   2.800  9.57258E-01  1.00714E+00 -4.98786E-02
    9019.593     20.735   2.840  9.56185E-01  1.00732E+00 -5.11379E-02
    9020.464     21.607   2.880  9.54145E-01  1.00737E+00 -5.32209E-02
    9021.348     22.491   2.920  9.48658E-01  1.00723E+00 -5.85748E-02
    9022.244     23.387   2.960  9.38925E-01  1.00699E+00 -6.80683E-02
    9023.153     24.295   3.000  9.25543E-01  1.00663E+00 -8.10899E-02
    9024.073     25.215   3.040  9.09733E-01  1.00616E+00 -9.64247E-02
    9025.006     26.148   3.080  8.92938E-01  1.00559E+00 -1.12656E-01
    9025.951     27.093   3.120  8.76843E-01  1.00495E+00 -1.28104E-01
    9026.908     28.050   3.160  8.62970E-01  1.00423E+00 -1.41258E-01
    9027.877     29.019   3.200  8.52740E-01  1.00348E+00 -1.50739E-01
    9028.859     30.001   3.240  8.47422E-01  1.00266E+00 -1.55242E-01
    9029.852     30.994   3.280  8.47040E-01  1.00181E+00 -1.54767E-01
    9030.858     32.000   3.320  8.50838E-01  1.00091E+00 -1.50076E-01
    9031.876     33.018   3.360  8.57891E-01  1.00001E+00 -1.42120E-01
    9032.906     34.049   3.400  8.67195E-01  9.99103E-01 -1.31908E-01
    9033.949     35.091   3.440  8.77767E-01  9.98190E-01 -1.20423E-01
    9035.003     36.146   3.480  8.89065E-01  9.97257E-01 -1.08192E-01
    9036.070     37.212   3.520  9.01061E-01  9.96348E-01 -9.52868E-02
    9037.149     38.291   3.560  9.13913E-01  9.95467E-01 -8.15535E-02
    9038.240     39.383   3.600  9.28077E-01  9.94594E-01 -6.65171E-02
    9039.344     40.486   3.640  9.44112E-01  9.93753E-01 -4.96411E-02
    9040.459     41.601   3.680  9.62163E-01  9.92924E-01 -3.07605E-02
    9041.587     42.729   3.720  9.81737E-01  9.92130E-01 -1.03932E-02
    9042.727     43.869   3.760  1.00158E+00  9.91376E-01  1.02002E-02
    9043.879     45.021   3.800  1.01965E+00  9.90681E-01  2.89699E-02
    9045.043     46.186   3.840  1.03350E+00  9.90006E-01  4.34923E-02
    9046.220     47.362   3.880  1.04119E+00  9.89371E-01  5.18187E-02
    9047.409     48.551   3.920  1.04171E+00  9.88800E-01  5.29076E-02
    9048.610     49.752   3.960  1.03519E+00  9.88271E-01  4.69142E-02
    9049.823     50.965   4.000  1.02319E+00  9.87764E-01  3.54226E-02
    9051.048     52.190   4.040  1.00856E+00  9.87343E-01  2.12138E-02
    9052.285     53.428   4.080  9.94660E-01  9.86946E-01  7.71346E-03
    9053.535     54.677   4.120  9.84852E-01  9.86614E-01 -1.76237E-03
    9054.797     55.939   4.160  9.81637E-01  9.86327E-01 -4.69004E-03
    9056.071     57.213   4.200  9.86298E-01  9.86084E-01  2.13403E-04
    9057.357     58.500   4.240  9.98540E-01  9.85907E-01  1.26327E-02
    9058.656     59.798   4.280  1.01640E+00  9.85772E-01  3.06304E-02
    9059.966     61.109   4.320  1.03671E+00  9.85660E-01  5.10526E-02
    9061.289     62.431   4.360  1.05589E+00  9.85632E-01  7.02608E-02
    9062.624     63.766   4.400  1.07059E+00  9.85624E-01  8.49648E-02
    9063.971     65.114   4.440  1.07847E+00  9.85656E-01  9.28144E-02
    9065.331     66.473   4.480  1.07856E+00  9.85729E-01  9.28280E-02
    9066.702     67.845   4.520  1.07154E+00  9.85863E-01  8.56783E-02
    9068.086     69.228   4.560  1.05980E+00  9.86013E-01  7.37874E-02
    9069.482     70.624   4.600  1.04672E+00  9.86201E-01  6.05142E-02
    9070.890     72.033   4.640  1.03560E+00  9.86425E-01  4.91705E-02
    9072.311     73.453   4.680  1.02879E+00  9.86683E-01  4.21110E-02
    9073.743     74.885   4.720  1.02707E+00  9.86954E-01  4.01156E-02
    9075.188     76.330   4.760  1.02961E+00  9.87257E-01  4.23520E-02
    9076.645     77.787   4.800  1.03444E+00  9.87592E-01  4.68452E-02
    9078.114     79.256   4.840  1.03917E+00  9.87933E-01  5.12362E-02
    9079.595     80.738   4.880  1.04189E+00  9.88281E-01  5.36130E-02
    9081.089     82.231   4.920  1.04147E+00  9.88658E-01  5.28157E-02
    9082.595     83.737   4.960  1.03742E+00  9.89038E-01  4.83849E-02
    9084.112     85.255   5.000  1.02988E+00  9.89421E-01  4.04632E-02
    9085.643     86.785   5.040  1.01930E+00  9.89827E-01  2.94718E-02
    9087.185     88.327   5.080  1.00609E+00  9.90211E-01  1.58790E-02
    9088.739     89.882   5.120  9.90697E-01  9.90595E-01  1.02552E-04
    9090.306     91.448   5.160  9.73616E-01  9.90997E-01 -1.73817E-02
    9091.885     93.027   5.200  9.55429E-01  9.91374E-01 -3.59448E-02
    9093.476     94.618   5.240  9.36971E-01  9.91723E-01 -5.47525E-02
    9095.079     96.221   5.280  9.19403E-01  9.92088E-01 -7.26841E-02
    9096.695     97.837   5.320  9.03949E-01  9.92425E-01 -8.84762E-02
    9098.322     99.464   5.360  8.91709E-01  9.92753E-01 -1.01044E-01
    9099.962    101.104   5.400  8.83391E-01  9.93051E-01 -1.09659E-01
    9101.614    102.756   5.440  8.79456E-01  9.93339E-01 -1.13882E-01
    9103.278    104.420   5.480  8.80084E-01  9.93594E-01 -1.13510E-01
    9104.955    106.097   5.520  8.85255E-01  9.93837E-01 -1.08582E-01
    9106.643    107.785   5.560  8.94751E-01  9.94046E-01 -9.92952E-02
    9108.344    109.486   5.600  9.08283E-01  9.94218E-01 -8.59351E-02
    9110.057    111.199   5.640  9.25451E-01  9.94354E-01 -6.89029E-02
    9111.782    112.924   5.680  9.45686E-01  9.94476E-01 -4.87899E-02
    9113.519    114.662   5.720  9.67974E-01  9.94562E-01 -2.65882E-02
    9115.269    116.411   5.760  9.90914E-01  9.94610E-01 -3.69624E-03
    9117.031    118.173   5.800  1.01302E+00  9.94621E-01  1.83992E-02
    9118.805    119.947   5.840  1.03309E+00  9.94595E-01  3.84939E-02
    9120.591    121.733   5.880  1.05017E+00  9.94554E-01  5.56172E-02
    9122.389    123.531   5.920  1.06304E+00  9.94452E-01  6.85904E-02
    9124.200    125.342   5.960  1.06995E+00  9.94334E-01  7.56162E-02
    9126.022    127.165   6.000  1.06859E+00  9.94130E-01  7.44614E-02
