# # comment:                                                     FEFF 9.9.1  
# # Source:
# # Structure
# # Reduced
# # space
# # abc:
# # angles:
# # sites:
# # POT  SCF 100  7.0000   0, screened core-hole, AFOLP (folp(0)= 1.150)
# # Abs   Z=29 Rmt= 1.241 Rnm= 1.320 K  shell
# # Pot 1 Z=19 Rmt= 1.846 Rnm= 1.878
# # Pot 2 Z=23 Rmt= 1.097 Rnm= 1.313
# # Pot 3 Z=29 Rmt= 1.236 Rnm= 1.317
# # Pot 4 Z= 8 Rmt= 1.031 Rnm= 1.103
# # Gam_ch=1.729E+00 H-L exch Vi= 0.000E+00 Vr= 0.000E+00
# # Mu=-8.605E+00eV kf=2.209E+00 Vint=-1.633E+01eV Rs_int= 1.642
# FMS rfms= 9.0000
# # PATH  Rmax=-1.000,  Keep_limit= 0.00, Heap_limit 0.00  Pwcrit= 2.50%
#  S02=0.950  Temp=   0.00  Debye_temp=   0.00  Global_sig2= 0.00000
#  Energy zero shift, vr, vi    0.00000E+00   0.00000E+00
#  Curved wave amplitude ratio filter   4.000%
#     file         sig2 tot  cw amp ratio   deg  nlegs   reff  inp sig2
#     0/   0 paths used
#  xsedge+ 50, used to normalize mu           2.4575E-04
#  -----------------------------------------------------------------------
#  omega    e    k    mu    mu0     chi     @#
    8984.011    -12.415  -1.000  3.43063E-02  5.29936E-02 -1.86874E-02
    8984.309    -12.116  -0.960  3.59127E-02  5.67908E-02 -2.08781E-02
    8984.596    -11.830  -0.920  3.76235E-02  6.10040E-02 -2.33805E-02
    8984.870    -11.556  -0.880  3.94484E-02  6.56939E-02 -2.62455E-02
    8985.132    -11.294  -0.840  4.13982E-02  7.09308E-02 -2.95325E-02
    8985.382    -11.044  -0.800  4.34848E-02  7.67961E-02 -3.33113E-02
    8985.620    -10.806  -0.760  4.57212E-02  8.33832E-02 -3.76621E-02
    8985.846    -10.580  -0.720  4.81211E-02  9.07975E-02 -4.26764E-02
    8986.059    -10.367  -0.680  5.06989E-02  9.91548E-02 -4.84559E-02
    8986.260    -10.166  -0.640  5.34684E-02  1.08577E-01 -5.51088E-02
    8986.449     -9.977  -0.600  5.64414E-02  1.19184E-01 -6.27429E-02
    8986.626     -9.800  -0.560  5.96256E-02  1.31078E-01 -7.14523E-02
    8986.790     -9.635  -0.520  6.30212E-02  1.44318E-01 -8.12970E-02
    8986.943     -9.483  -0.480  6.66162E-02  1.58890E-01 -9.22740E-02
    8987.083     -9.343  -0.440  7.03818E-02  1.74667E-01 -1.04285E-01
    8987.211     -9.215  -0.400  7.42680E-02  1.91375E-01 -1.17107E-01
    8987.327     -9.099  -0.360  7.82024E-02  2.08587E-01 -1.30385E-01
    8987.431     -8.995  -0.320  8.20930E-02  2.25749E-01 -1.43656E-01
    8987.522     -8.904  -0.280  8.58363E-02  2.42241E-01 -1.56405E-01
    8987.601     -8.825  -0.240  8.93265E-02  2.57470E-01 -1.68144E-01
    8987.668     -8.758  -0.200  9.24647E-02  2.70936E-01 -1.78471E-01
    8987.723     -8.703  -0.160  9.51639E-02  2.82270E-01 -1.87106E-01
    8987.766     -8.660  -0.120  9.73508E-02  2.91235E-01 -1.93884E-01
    8987.796     -8.630  -0.080  9.89667E-02  2.97697E-01 -1.98730E-01
    8987.821     -8.605   0.000  1.00314E-01  3.02892E-01 -2.02577E-01
    8987.876     -8.550   0.120  1.03453E-01  3.14608E-01 -2.11154E-01
    8987.918     -8.508   0.160  1.05901E-01  3.23724E-01 -2.17824E-01
    8987.973     -8.453   0.200  1.09132E-01  3.35385E-01 -2.26253E-01
    8988.040     -8.386   0.240  1.13179E-01  3.49425E-01 -2.36246E-01
    8988.119     -8.306   0.280  1.18159E-01  3.65604E-01 -2.47445E-01
    8988.211     -8.215   0.320  1.24134E-01  3.83492E-01 -2.59358E-01
    8988.314     -8.111   0.360  1.31280E-01  4.02647E-01 -2.71367E-01
    8988.430     -7.996   0.400  1.39655E-01  4.22492E-01 -2.82837E-01
    8988.558     -7.868   0.440  1.49339E-01  4.42573E-01 -2.93234E-01
    8988.699     -7.727   0.480  1.60221E-01  4.62525E-01 -3.02304E-01
    8988.851     -7.575   0.520  1.71847E-01  4.82094E-01 -3.10247E-01
    8989.016     -7.410   0.560  1.83524E-01  5.01149E-01 -3.17626E-01
    8989.192     -7.234   0.600  1.94517E-01  5.19659E-01 -3.25142E-01
    8989.381     -7.045   0.640  2.04639E-01  5.37673E-01 -3.33034E-01
    8989.582     -6.843   0.680  2.14296E-01  5.55253E-01 -3.40957E-01
    8989.796     -6.630   0.720  2.23892E-01  5.72473E-01 -3.48581E-01
    8990.021     -6.405   0.760  2.33024E-01  5.89404E-01 -3.56380E-01
    8990.259     -6.167   0.800  2.40679E-01  6.06108E-01 -3.65429E-01
    8990.509     -5.917   0.840  2.46365E-01  6.22636E-01 -3.76271E-01
    8990.771     -5.655   0.880  2.51282E-01  6.39024E-01 -3.87742E-01
    8991.045     -5.380   0.920  2.58180E-01  6.55276E-01 -3.97097E-01
    8991.332     -5.094   0.960  2.70161E-01  6.71406E-01 -4.01245E-01
    8991.631     -4.795   1.000  2.89255E-01  6.87415E-01 -3.98160E-01
    8991.942     -4.484   1.040  3.15155E-01  7.03298E-01 -3.88143E-01
    8992.265     -4.161   1.080  3.45299E-01  7.19004E-01 -3.73704E-01
    8992.600     -3.826   1.120  3.76636E-01  7.34555E-01 -3.57919E-01
    8992.947     -3.478   1.160  4.07834E-01  7.49886E-01 -3.42051E-01
    8993.307     -3.119   1.200  4.40045E-01  7.64994E-01 -3.24948E-01
    8993.679     -2.747   1.240  4.76252E-01  7.79830E-01 -3.03578E-01
    8994.063     -2.363   1.280  5.21160E-01  7.94343E-01 -2.73183E-01
    8994.459     -1.967   1.320  5.76496E-01  8.08523E-01 -2.32027E-01
    8994.868     -1.558   1.360  6.34480E-01  8.22338E-01 -1.87858E-01
    8995.288     -1.138   1.400  6.84631E-01  8.35737E-01 -1.51106E-01
    8995.721     -0.705   1.440  7.29363E-01  8.48708E-01 -1.19345E-01
    8996.166     -0.260   1.480  7.75820E-01  8.61221E-01 -8.54007E-02
    8996.623      0.197   1.520  8.22893E-01  8.73246E-01 -5.03530E-02
    8997.093      0.667   1.560  8.68107E-01  8.84755E-01 -1.66485E-02
    8997.574      1.148   1.600  9.07879E-01  8.95762E-01  1.21169E-02
    8998.068      1.642   1.640  9.38756E-01  9.06222E-01  3.25334E-02
    8998.574      2.148   1.680  9.61451E-01  9.16130E-01  4.53207E-02
    8999.092      2.666   1.720  9.82637E-01  9.25483E-01  5.71541E-02
    8999.623      3.197   1.760  1.01142E+00  9.34263E-01  7.71582E-02
    9000.165      3.739   1.800  1.05443E+00  9.42510E-01  1.11921E-01
    9000.720      4.294   1.840  1.12031E+00  9.50186E-01  1.70129E-01
    9001.287      4.861   1.880  1.21923E+00  9.57318E-01  2.61913E-01
    9001.866      5.440   1.920  1.35226E+00  9.63929E-01  3.88333E-01
    9002.457      6.031   1.960  1.50060E+00  9.69985E-01  5.30618E-01
    9003.061      6.635   2.000  1.61725E+00  9.75555E-01  6.41690E-01
    9003.676      7.250   2.040  1.65265E+00  9.80607E-01  6.72048E-01
    9004.304      7.878   2.080  1.60108E+00  9.85191E-01  6.15888E-01
    9004.944      8.518   2.120  1.49582E+00  9.89316E-01  5.06506E-01
    9005.597      9.171   2.160  1.37496E+00  9.92991E-01  3.81966E-01
    9006.261      9.835   2.200  1.26074E+00  9.96250E-01  2.64488E-01
    9006.938     10.512   2.240  1.15829E+00  9.99103E-01  1.59182E-01
    9007.627     11.201   2.280  1.07152E+00  1.00158E+00  6.99352E-02
    9008.328     11.902   2.320  1.00841E+00  1.00372E+00  4.69686E-03
    9009.041     12.615   2.360  9.74556E-01  1.00552E+00 -3.09670E-02
    9009.766     13.340   2.400  9.63437E-01  1.00701E+00 -4.35730E-02
    9010.504     14.078   2.440  9.60513E-01  1.00823E+00 -4.77165E-02
    9011.254     14.828   2.480  9.58145E-01  1.00917E+00 -5.10265E-02
    9012.016     15.590   2.520  9.54548E-01  1.00987E+00 -5.53186E-02
    9012.790     16.364   2.560  9.53131E-01  1.01035E+00 -5.72167E-02
    9013.576     17.150   2.600  9.64281E-01  1.01062E+00 -4.63431E-02
    9014.375     17.949   2.640  9.92073E-01  1.01071E+00 -1.86321E-02
    9015.186     18.760   2.680  1.01774E+00  1.01064E+00  7.09248E-03
    9016.008     19.583   2.720  1.03574E+00  1.01042E+00  2.53147E-02
    9016.844     20.418   2.760  1.04450E+00  1.01008E+00  3.44210E-02
    9017.691     21.265   2.800  1.04330E+00  1.00964E+00  3.36670E-02
    9018.551     22.125   2.840  1.03229E+00  1.00908E+00  2.32024E-02
    9019.422     22.996   2.880  1.01346E+00  1.00845E+00  5.01286E-03
    9020.306     23.880   2.920  9.89841E-01  1.00776E+00 -1.79140E-02
    9021.202     24.776   2.960  9.64804E-01  1.00699E+00 -4.21889E-02
    9022.111     25.685   3.000  9.40829E-01  1.00619E+00 -6.53587E-02
    9023.031     26.605   3.040  9.19261E-01  1.00537E+00 -8.61044E-02
    9023.964     27.538   3.080  9.00936E-01  1.00451E+00 -1.03577E-01
    9024.909     28.483   3.120  8.86035E-01  1.00365E+00 -1.17617E-01
    9025.866     29.440   3.160  8.74431E-01  1.00279E+00 -1.28357E-01
    9026.835     30.409   3.200  8.65966E-01  1.00193E+00 -1.35959E-01
    9027.816     31.391   3.240  8.60499E-01  1.00107E+00 -1.40569E-01
    9028.810     32.384   3.280  8.57827E-01  1.00024E+00 -1.42412E-01
    9029.816     33.390   3.320  8.57831E-01  9.99444E-01 -1.41613E-01
    9030.834     34.408   3.360  8.60504E-01  9.98662E-01 -1.38158E-01
    9031.864     35.438   3.400  8.65774E-01  9.97917E-01 -1.32143E-01
    9032.907     36.481   3.440  8.73683E-01  9.97234E-01 -1.23551E-01
    9033.961     37.535   3.480  8.84289E-01  9.96571E-01 -1.12282E-01
    9035.028     38.602   3.520  8.97556E-01  9.95971E-01 -9.84146E-02
    9036.107     39.681   3.560  9.13087E-01  9.95414E-01 -8.23272E-02
    9037.198     40.772   3.600  9.30355E-01  9.94902E-01 -6.45469E-02
    9038.301     41.876   3.640  9.48607E-01  9.94436E-01 -4.58294E-02
    9039.417     42.991   3.680  9.66952E-01  9.94039E-01 -2.70876E-02
    9040.545     44.119   3.720  9.84567E-01  9.93710E-01 -9.14305E-03
    9041.685     45.259   3.760  1.00085E+00  9.93405E-01  7.44596E-03
    9042.837     46.411   3.800  1.01548E+00  9.93170E-01  2.23117E-02
    9044.001     47.575   3.840  1.02827E+00  9.93004E-01  3.52624E-02
    9045.178     48.752   3.880  1.03913E+00  9.92885E-01  4.62430E-02
    9046.366     49.941   3.920  1.04798E+00  9.92811E-01  5.51674E-02
    9047.567     51.141   3.960  1.05467E+00  9.92803E-01  6.18685E-02
    9048.780     52.355   4.000  1.05903E+00  9.92818E-01  6.62152E-02
    9050.006     53.580   4.040  1.06116E+00  9.92899E-01  6.82581E-02
    9051.243     54.817   4.080  1.06137E+00  9.93046E-01  6.83207E-02
    9052.493     56.067   4.120  1.06023E+00  9.93213E-01  6.70186E-02
    9053.755     57.329   4.160  1.05853E+00  9.93420E-01  6.51094E-02
    9055.029     58.603   4.200  1.05693E+00  9.93689E-01  6.32438E-02
    9056.315     59.889   4.240  1.05577E+00  9.93977E-01  6.17951E-02
    9057.614     61.188   4.280  1.05519E+00  9.94323E-01  6.08650E-02
    9058.924     62.498   4.320  1.05496E+00  9.94683E-01  6.02764E-02
    9060.247     63.821   4.360  1.05478E+00  9.95076E-01  5.97002E-02
    9061.582     65.156   4.400  1.05424E+00  9.95480E-01  5.87618E-02
    9062.929     66.503   4.440  1.05297E+00  9.95914E-01  5.70536E-02
    9064.289     67.863   4.480  1.05061E+00  9.96357E-01  5.42513E-02
    9065.660     69.234   4.520  1.04713E+00  9.96831E-01  5.02964E-02
    9067.044     70.618   4.560  1.04274E+00  9.97331E-01  4.54099E-02
    9068.440     72.014   4.600  1.03778E+00  9.97813E-01  3.99696E-02
    9069.848     73.422   4.640  1.03267E+00  9.98318E-01  3.43561E-02
    9071.268     74.843   4.680  1.02761E+00  9.98801E-01  2.88120E-02
    9072.701     76.275   4.720  1.02261E+00  9.99306E-01  2.33052E-02
    9074.146     77.720   4.760  1.01738E+00  9.99808E-01  1.75704E-02
    9075.603     79.177   4.800  1.01152E+00  1.00028E+00  1.12388E-02
    9077.072     80.646   4.840  1.00478E+00  1.00075E+00  4.02562E-03
    9078.553     82.127   4.880  9.97215E-01  1.00121E+00 -3.99928E-03
    9080.047     83.621   4.920  9.89315E-01  1.00165E+00 -1.23316E-02
    9081.552     85.127   4.960  9.81965E-01  1.00207E+00 -2.01064E-02
    9083.070     86.644   5.000  9.76095E-01  1.00249E+00 -2.63924E-02
    9084.600     88.175   5.040  9.72332E-01  1.00287E+00 -3.05370E-02
    9086.143     89.717   5.080  9.70846E-01  1.00322E+00 -3.23704E-02
    9087.697     91.271   5.120  9.71314E-01  1.00355E+00 -3.22351E-02
    9089.264     92.838   5.160  9.73067E-01  1.00385E+00 -3.07796E-02
    9090.843     94.417   5.200  9.75397E-01  1.00410E+00 -2.87066E-02
    9092.434     96.008   5.240  9.77725E-01  1.00432E+00 -2.65983E-02
    9094.037     97.611   5.280  9.79600E-01  1.00450E+00 -2.49045E-02
    9095.652     99.227   5.320  9.80640E-01  1.00467E+00 -2.40286E-02
    9097.280    100.854   5.360  9.80495E-01  1.00477E+00 -2.42758E-02
    9098.920    102.494   5.400  9.79075E-01  1.00486E+00 -2.57827E-02
    9100.572    104.146   5.440  9.76606E-01  1.00491E+00 -2.82997E-02
    9102.236    105.810   5.480  9.73694E-01  1.00491E+00 -3.12192E-02
    9103.912    107.487   5.520  9.71000E-01  1.00488E+00 -3.38778E-02
    9105.601    109.175   5.560  9.68808E-01  1.00478E+00 -3.59709E-02
    9107.302    110.876   5.600  9.67106E-01  1.00466E+00 -3.75565E-02
    9109.015    112.589   5.640  9.65771E-01  1.00451E+00 -3.87380E-02
    9110.740    114.314   5.680  9.64966E-01  1.00432E+00 -3.93519E-02
    9112.477    116.051   5.720  9.65144E-01  1.00411E+00 -3.89669E-02
    9114.227    117.801   5.760  9.66743E-01  1.00384E+00 -3.70993E-02
    9115.989    119.563   5.800  9.70030E-01  1.00354E+00 -3.35061E-02
    9117.762    121.337   5.840  9.74841E-01  1.00322E+00 -2.83779E-02
    9119.549    123.123   5.880  9.80524E-01  1.00287E+00 -2.23422E-02
    9121.347    124.921   5.920  9.86257E-01  1.00248E+00 -1.62257E-02
    9123.157    126.732   5.960  9.91397E-01  1.00207E+00 -1.06707E-02
    9124.980    128.554   6.000  9.96014E-01  1.00162E+00 -5.61018E-03
