# # comment:                                                     FEFF 9.9.1  
# # Source:
# # Structure
# # Reduced
# # space
# # abc:
# # angles:
# # sites:
# # POT  SCF 100  7.0000   0, screened core-hole, AFOLP (folp(0)= 1.150)
# # Abs   Z=29 Rmt= 1.108 Rnm= 1.212 K  shell
# # Pot 1 Z= 3 Rmt= 1.145 Rnm= 1.204
# # Pot 2 Z=57 Rmt= 1.747 Rnm= 1.821
# # Pot 3 Z=29 Rmt= 1.118 Rnm= 1.219
# # Pot 4 Z= 8 Rmt= 1.045 Rnm= 1.091
# # Gam_ch=1.729E+00 H-L exch Vi= 0.000E+00 Vr= 0.000E+00
# # Mu=-8.838E+00eV kf=2.039E+00 Vint=-1.970E+01eV Rs_int= 1.779
# FMS rfms= 9.0000
# # PATH  Rmax=-1.000,  Keep_limit= 0.00, Heap_limit 0.00  Pwcrit= 2.50%
#  S02=0.950  Temp=   0.00  Debye_temp=   0.00  Global_sig2= 0.00000
#  Energy zero shift, vr, vi    0.00000E+00   0.00000E+00
#  Curved wave amplitude ratio filter   4.000%
#     file         sig2 tot  cw amp ratio   deg  nlegs   reff  inp sig2
#     0/   0 paths used
#  xsedge+ 50, used to normalize mu           2.4696E-04
#  -----------------------------------------------------------------------
#  omega    e    k    mu    mu0     chi     @#
    8985.673    -12.648  -1.000  3.48992E-02  5.50890E-02 -2.01897E-02
    8985.972    -12.350  -0.960  3.66204E-02  5.91544E-02 -2.25339E-02
    8986.259    -12.063  -0.920  3.84721E-02  6.36793E-02 -2.52071E-02
    8986.533    -11.789  -0.880  4.04707E-02  6.87321E-02 -2.82614E-02
    8986.795    -11.527  -0.840  4.26355E-02  7.43928E-02 -3.17573E-02
    8987.045    -11.277  -0.800  4.49890E-02  8.07538E-02 -3.57648E-02
    8987.283    -11.039  -0.760  4.75575E-02  8.79217E-02 -4.03643E-02
    8987.508    -10.813  -0.720  5.03708E-02  9.60168E-02 -4.56460E-02
    8987.722    -10.600  -0.680  5.34622E-02  1.05172E-01 -5.17096E-02
    8987.923    -10.399  -0.640  5.68673E-02  1.15527E-01 -5.86600E-02
    8988.112    -10.210  -0.600  6.06208E-02  1.27221E-01 -6.66003E-02
    8988.289    -10.033  -0.560  6.47519E-02  1.40372E-01 -7.56196E-02
    8988.453     -9.868  -0.520  6.92765E-02  1.55049E-01 -8.57730E-02
    8988.605     -9.716  -0.480  7.41858E-02  1.71241E-01 -9.70550E-02
    8988.746     -9.576  -0.440  7.94340E-02  1.88803E-01 -1.09369E-01
    8988.874     -9.448  -0.400  8.49272E-02  2.07427E-01 -1.22500E-01
    8988.990     -9.332  -0.360  9.05209E-02  2.26629E-01 -1.36108E-01
    8989.093     -9.228  -0.320  9.60300E-02  2.45778E-01 -1.49748E-01
    8989.185     -9.137  -0.280  1.01254E-01  2.64174E-01 -1.62921E-01
    8989.264     -9.058  -0.240  1.06006E-01  2.81148E-01 -1.75142E-01
    8989.331     -8.991  -0.200  1.10142E-01  2.96140E-01 -1.85998E-01
    8989.386     -8.936  -0.160  1.13570E-01  3.08742E-01 -1.95172E-01
    8989.428     -8.893  -0.120  1.16245E-01  3.18696E-01 -2.02451E-01
    8989.459     -8.863  -0.080  1.18156E-01  3.25863E-01 -2.07707E-01
    8989.483     -8.838   0.000  1.19685E-01  3.31618E-01 -2.11933E-01
    8989.538     -8.783   0.120  1.22946E-01  3.44587E-01 -2.21641E-01
    8989.581     -8.741   0.160  1.25433E-01  3.54661E-01 -2.29228E-01
    8989.636     -8.686   0.200  1.28518E-01  3.67484E-01 -2.38966E-01
    8989.703     -8.619   0.240  1.32112E-01  3.82907E-01 -2.50795E-01
    8989.782     -8.540   0.280  1.36069E-01  4.00561E-01 -2.64492E-01
    8989.873     -8.448   0.320  1.40252E-01  4.19967E-01 -2.79716E-01
    8989.977     -8.344   0.360  1.44579E-01  4.40558E-01 -2.95979E-01
    8990.093     -8.229   0.400  1.49048E-01  4.61687E-01 -3.12639E-01
    8990.221     -8.101   0.440  1.53759E-01  4.82765E-01 -3.29006E-01
    8990.361     -7.960   0.480  1.58982E-01  5.03352E-01 -3.44371E-01
    8990.514     -7.808   0.520  1.64963E-01  5.23191E-01 -3.58228E-01
    8990.678     -7.643   0.560  1.71739E-01  5.42092E-01 -3.70353E-01
    8990.855     -7.467   0.600  1.79234E-01  5.60087E-01 -3.80853E-01
    8991.044     -7.278   0.640  1.87104E-01  5.77199E-01 -3.90094E-01
    8991.245     -7.076   0.680  1.95254E-01  5.93513E-01 -3.98260E-01
    8991.458     -6.863   0.720  2.03919E-01  6.09175E-01 -4.05256E-01
    8991.684     -6.638   0.760  2.13654E-01  6.24283E-01 -4.10629E-01
    8991.922     -6.400   0.800  2.25199E-01  6.38929E-01 -4.13730E-01
    8992.172     -6.150   0.840  2.38820E-01  6.53191E-01 -4.14371E-01
    8992.434     -5.888   0.880  2.53280E-01  6.67133E-01 -4.13853E-01
    8992.708     -5.613   0.920  2.65848E-01  6.80822E-01 -4.14974E-01
    8992.995     -5.327   0.960  2.75067E-01  6.94296E-01 -4.19229E-01
    8993.293     -5.028   1.000  2.82830E-01  7.07600E-01 -4.24770E-01
    8993.604     -4.717   1.040  2.92672E-01  7.20729E-01 -4.28057E-01
    8993.927     -4.394   1.080  3.07023E-01  7.33688E-01 -4.26665E-01
    8994.263     -4.059   1.120  3.26479E-01  7.46519E-01 -4.20039E-01
    8994.610     -3.712   1.160  3.51649E-01  7.59173E-01 -4.07524E-01
    8994.970     -3.352   1.200  3.85526E-01  7.71664E-01 -3.86137E-01
    8995.342     -2.980   1.240  4.33400E-01  7.83996E-01 -3.50596E-01
    8995.726     -2.596   1.280  5.01583E-01  7.96130E-01 -2.94546E-01
    8996.122     -2.200   1.320  5.95970E-01  8.08067E-01 -2.12096E-01
    8996.530     -1.791   1.360  7.20535E-01  8.19786E-01 -9.92518E-02
    8996.951     -1.371   1.400  8.78702E-01  8.31263E-01  4.74383E-02
    8997.384     -0.938   1.440  1.06585E+00  8.42494E-01  2.23355E-01
    8997.829     -0.493   1.480  1.21958E+00  8.53433E-01  3.66147E-01
    8998.286     -0.036   1.520  1.22570E+00  8.64096E-01  3.61599E-01
    8998.755      0.434   1.560  1.09918E+00  8.74438E-01  2.24738E-01
    8999.237      0.915   1.600  9.53488E-01  8.84474E-01  6.90138E-02
    8999.731      1.409   1.640  8.41597E-01  8.94156E-01 -5.25589E-02
    9000.237      1.915   1.680  7.84000E-01  9.03482E-01 -1.19482E-01
    9000.755      2.433   1.720  7.92523E-01  9.12446E-01 -1.19923E-01
    9001.285      2.964   1.760  8.67209E-01  9.21024E-01 -5.38158E-02
    9001.828      3.506   1.800  9.90466E-01  9.29235E-01  6.12308E-02
    9002.382      4.061   1.840  1.10731E+00  9.37036E-01  1.70273E-01
    9002.949      4.628   1.880  1.14200E+00  9.44446E-01  1.97559E-01
    9003.528      5.207   1.920  1.10910E+00  9.51462E-01  1.57637E-01
    9004.120      5.798   1.960  1.07389E+00  9.58066E-01  1.15824E-01
    9004.723      6.402   2.000  1.05234E+00  9.64258E-01  8.80866E-02
    9005.339      7.017   2.040  1.05114E+00  9.70060E-01  8.10817E-02
    9005.967      7.645   2.080  1.08352E+00  9.75475E-01  1.08049E-01
    9006.607      8.285   2.120  1.14541E+00  9.80486E-01  1.64927E-01
    9007.259      8.938   2.160  1.21842E+00  9.85116E-01  2.33304E-01
    9007.924      9.602   2.200  1.27681E+00  9.89369E-01  2.87441E-01
    9008.600     10.279   2.240  1.29986E+00  9.93251E-01  3.06605E-01
    9009.289     10.968   2.280  1.28699E+00  9.96765E-01  2.90222E-01
    9009.990     11.669   2.320  1.24525E+00  9.99938E-01  2.45311E-01
    9010.703     12.382   2.360  1.18444E+00  1.00278E+00  1.81667E-01
    9011.429     13.107   2.400  1.12640E+00  1.00529E+00  1.21113E-01
    9012.166     13.845   2.440  1.09380E+00  1.00748E+00  8.63229E-02
    9012.916     14.595   2.480  1.09427E+00  1.00937E+00  8.49030E-02
    9013.678     15.357   2.520  1.10599E+00  1.01098E+00  9.50184E-02
    9014.452     16.131   2.560  1.12112E+00  1.01232E+00  1.08798E-01
    9015.239     16.917   2.600  1.13746E+00  1.01340E+00  1.24061E-01
    9016.037     17.716   2.640  1.15258E+00  1.01425E+00  1.38327E-01
    9016.848     18.527   2.680  1.16264E+00  1.01486E+00  1.47779E-01
    9017.671     19.350   2.720  1.16414E+00  1.01526E+00  1.48875E-01
    9018.506     20.185   2.760  1.15660E+00  1.01546E+00  1.41131E-01
    9019.354     21.032   2.800  1.14210E+00  1.01549E+00  1.26607E-01
    9020.213     21.892   2.840  1.12385E+00  1.01535E+00  1.08497E-01
    9021.085     22.763   2.880  1.10433E+00  1.01505E+00  8.92796E-02
    9021.969     23.647   2.920  1.08450E+00  1.01459E+00  6.99078E-02
    9022.865     24.543   2.960  1.06336E+00  1.01400E+00  4.93520E-02
    9023.773     25.452   3.000  1.04009E+00  1.01332E+00  2.67733E-02
    9024.694     26.372   3.040  1.01542E+00  1.01252E+00  2.90498E-03
    9025.626     27.305   3.080  9.90826E-01  1.01163E+00 -2.08075E-02
    9026.571     28.250   3.120  9.67561E-01  1.01067E+00 -4.31042E-02
    9027.528     29.207   3.160  9.46371E-01  1.00962E+00 -6.32475E-02
    9028.498     30.176   3.200  9.27477E-01  1.00852E+00 -8.10440E-02
    9029.479     31.157   3.240  9.11069E-01  1.00738E+00 -9.63089E-02
    9030.473     32.151   3.280  8.97490E-01  1.00619E+00 -1.08705E-01
    9031.478     33.157   3.320  8.86938E-01  1.00497E+00 -1.18037E-01
    9032.497     34.175   3.360  8.79348E-01  1.00374E+00 -1.24394E-01
    9033.527     35.205   3.400  8.74365E-01  1.00248E+00 -1.28116E-01
    9034.569     36.248   3.440  8.71359E-01  1.00122E+00 -1.29857E-01
    9035.624     37.302   3.480  8.69735E-01  9.99973E-01 -1.30239E-01
    9036.691     38.369   3.520  8.69231E-01  9.98734E-01 -1.29504E-01
    9037.770     39.448   3.560  8.70321E-01  9.97501E-01 -1.27180E-01
    9038.861     40.539   3.600  8.73639E-01  9.96297E-01 -1.22658E-01
    9039.964     41.643   3.640  8.79930E-01  9.95104E-01 -1.15174E-01
    9041.080     42.758   3.680  8.89495E-01  9.93948E-01 -1.04453E-01
    9042.207     43.886   3.720  9.01531E-01  9.92850E-01 -9.13197E-02
    9043.347     45.026   3.760  9.14074E-01  9.91771E-01 -7.76976E-02
    9044.499     46.178   3.800  9.24869E-01  9.90733E-01 -6.58638E-02
    9045.664     47.342   3.840  9.31845E-01  9.89759E-01 -5.79139E-02
    9046.840     48.519   3.880  9.33979E-01  9.88830E-01 -5.48509E-02
    9048.029     49.708   3.920  9.32126E-01  9.87946E-01 -5.58200E-02
    9049.230     50.908   3.960  9.28638E-01  9.87130E-01 -5.84918E-02
    9050.443     52.122   4.000  9.26323E-01  9.86361E-01 -6.00383E-02
    9051.668     53.347   4.040  9.27358E-01  9.85640E-01 -5.82821E-02
    9052.906     54.584   4.080  9.32624E-01  9.84990E-01 -5.23658E-02
    9054.156     55.834   4.120  9.41474E-01  9.84411E-01 -4.29372E-02
    9055.417     57.096   4.160  9.52132E-01  9.83883E-01 -3.17507E-02
    9056.691     58.370   4.200  9.62603E-01  9.83426E-01 -2.08230E-02
    9057.978     59.656   4.240  9.71499E-01  9.83019E-01 -1.15201E-02
    9059.276     60.955   4.280  9.78496E-01  9.82684E-01 -4.18864E-03
    9060.587     62.265   4.320  9.84189E-01  9.82422E-01  1.76654E-03
    9061.910     63.588   4.360  9.89720E-01  9.82209E-01  7.51110E-03
    9063.245     64.923   4.400  9.96067E-01  9.82044E-01  1.40229E-02
    9064.592     66.270   4.440  1.00343E+00  9.81949E-01  2.14792E-02
    9065.951     67.630   4.480  1.01117E+00  9.81926E-01  2.92408E-02
    9067.323     69.001   4.520  1.01841E+00  9.81950E-01  3.64565E-02
    9068.707     70.385   4.560  1.02490E+00  9.82020E-01  4.28789E-02
    9070.103     71.781   4.600  1.03126E+00  9.82157E-01  4.90998E-02
    9071.511     73.189   4.640  1.03851E+00  9.82339E-01  5.61680E-02
    9072.931     74.610   4.680  1.04753E+00  9.82565E-01  6.49652E-02
    9074.364     76.042   4.720  1.05865E+00  9.82830E-01  7.58187E-02
    9075.808     77.487   4.760  1.07128E+00  9.83138E-01  8.81400E-02
    9077.265     78.944   4.800  1.08409E+00  9.83509E-01  1.00576E-01
    9078.734     80.413   4.840  1.09530E+00  9.83897E-01  1.11401E-01
    9080.216     81.894   4.880  1.10331E+00  9.84320E-01  1.18993E-01
    9081.709     83.388   4.920  1.10704E+00  9.84781E-01  1.22259E-01
    9083.215     84.893   4.960  1.10621E+00  9.85275E-01  1.20939E-01
    9084.733     86.411   5.000  1.10110E+00  9.85781E-01  1.15323E-01
    9086.263     87.941   5.040  1.09225E+00  9.86318E-01  1.05929E-01
    9087.805     89.484   5.080  1.07997E+00  9.86863E-01  9.31094E-02
    9089.360     91.038   5.120  1.06447E+00  9.87436E-01  7.70380E-02
    9090.926     92.605   5.160  1.04610E+00  9.88015E-01  5.80876E-02
    9092.505     94.184   5.200  1.02580E+00  9.88596E-01  3.71992E-02
    9094.096     95.775   5.240  1.00519E+00  9.89179E-01  1.60089E-02
    9095.700     97.378   5.280  9.86205E-01  9.89783E-01 -3.57892E-03
    9097.315     98.993   5.320  9.70412E-01  9.90366E-01 -1.99540E-02
    9098.943    100.621   5.360  9.58741E-01  9.90945E-01 -3.22034E-02
    9100.582    102.261   5.400  9.51400E-01  9.91519E-01 -4.01196E-02
    9102.234    103.913   5.440  9.48014E-01  9.92088E-01 -4.40741E-02
    9103.899    105.577   5.480  9.47725E-01  9.92627E-01 -4.49024E-02
    9105.575    107.254   5.520  9.49422E-01  9.93157E-01 -4.37344E-02
    9107.264    108.942   5.560  9.52000E-01  9.93655E-01 -4.16549E-02
    9108.964    110.643   5.600  9.54697E-01  9.94141E-01 -3.94441E-02
    9110.677    112.356   5.640  9.57028E-01  9.94591E-01 -3.75631E-02
    9112.403    114.081   5.680  9.58679E-01  9.95005E-01 -3.63258E-02
    9114.140    115.818   5.720  9.59518E-01  9.95382E-01 -3.58641E-02
    9115.889    117.568   5.760  9.59711E-01  9.95745E-01 -3.60345E-02
    9117.651    119.330   5.800  9.59514E-01  9.96070E-01 -3.65565E-02
    9119.425    121.104   5.840  9.59044E-01  9.96354E-01 -3.73102E-02
    9121.211    122.890   5.880  9.58228E-01  9.96571E-01 -3.83435E-02
    9123.010    124.688   5.920  9.57065E-01  9.96769E-01 -3.97035E-02
    9124.820    126.499   5.960  9.55695E-01  9.96918E-01 -4.12230E-02
    9126.643    128.321   6.000  9.54585E-01  9.96972E-01 -4.23872E-02
