# # comment:                                                     FEFF 9.9.1  
# # Source:
# # Structure
# # Reduced
# # space
# # abc:
# # angles:
# # sites:
# # POT  SCF 100  7.0000   0, screened core-hole, AFOLP (folp(0)= 1.150)
# # Abs   Z=29 Rmt= 1.123 Rnm= 1.309 K  shell
# # Pot 1 Z=56 Rmt= 1.982 Rnm= 2.048
# # Pot 2 Z=29 Rmt= 1.126 Rnm= 1.308
# # Pot 3 Z= 8 Rmt= 0.994 Rnm= 1.098
# # Gam_ch=1.729E+00 H-L exch Vi= 0.000E+00 Vr= 0.000E+00
# # Mu=-6.936E+00eV kf=2.071E+00 Vint=-1.600E+01eV Rs_int= 1.751
# FMS rfms= 9.0000
# # PATH  Rmax=-1.000,  Keep_limit= 0.00, Heap_limit 0.00  Pwcrit= 2.50%
#  S02=0.950  Temp=   0.00  Debye_temp=   0.00  Global_sig2= 0.00000
#  Energy zero shift, vr, vi    0.00000E+00   0.00000E+00
#  Curved wave amplitude ratio filter   4.000%
#     file         sig2 tot  cw amp ratio   deg  nlegs   reff  inp sig2
#     0/   0 paths used
#  xsedge+ 50, used to normalize mu           2.4480E-04
#  -----------------------------------------------------------------------
#  omega    e    k    mu    mu0     chi     @#
    8983.994    -10.746  -1.000  4.68858E-02  5.68227E-02 -9.93687E-03
    8984.293    -10.447  -0.960  4.99758E-02  6.10115E-02 -1.10357E-02
    8984.580    -10.161  -0.920  5.33770E-02  6.56703E-02 -1.22933E-02
    8984.854     -9.886  -0.880  5.71306E-02  7.08684E-02 -1.37378E-02
    8985.116     -9.624  -0.840  6.12838E-02  7.66868E-02 -1.54030E-02
    8985.366     -9.374  -0.800  6.58901E-02  8.32191E-02 -1.73290E-02
    8985.604     -9.136  -0.760  7.10094E-02  9.05729E-02 -1.95635E-02
    8985.829     -8.911  -0.720  7.67081E-02  9.88698E-02 -2.21617E-02
    8986.043     -8.698  -0.680  8.30574E-02  1.08244E-01 -2.51862E-02
    8986.244     -8.496  -0.640  9.01303E-02  1.18836E-01 -2.87056E-02
    8986.433     -8.307  -0.600  9.79959E-02  1.30785E-01 -3.27895E-02
    8986.610     -8.131  -0.560  1.06710E-01  1.44211E-01 -3.75007E-02
    8986.774     -7.966  -0.520  1.16301E-01  1.59183E-01 -4.28820E-02
    8986.927     -7.814  -0.480  1.26749E-01  1.75687E-01 -4.89372E-02
    8987.067     -7.673  -0.440  1.37967E-01  1.93577E-01 -5.56098E-02
    8987.195     -7.545  -0.400  1.49777E-01  2.12541E-01 -6.27642E-02
    8987.311     -7.430  -0.360  1.61908E-01  2.32089E-01 -7.01806E-02
    8987.414     -7.326  -0.320  1.74010E-01  2.51583E-01 -7.75724E-02
    8987.506     -7.235  -0.280  1.85689E-01  2.70315E-01 -8.46258E-02
    8987.585     -7.155  -0.240  1.96554E-01  2.87605E-01 -9.10508E-02
    8987.652     -7.088  -0.200  2.06259E-01  3.02883E-01 -9.66240E-02
    8987.707     -7.033  -0.160  2.14525E-01  3.15733E-01 -1.01208E-01
    8987.750     -6.991  -0.120  2.21145E-01  3.25891E-01 -1.04745E-01
    8987.780     -6.960  -0.080  2.25974E-01  3.33207E-01 -1.07233E-01
    8987.804     -6.936   0.000  2.29916E-01  3.39086E-01 -1.09170E-01
    8987.859     -6.881   0.120  2.38936E-01  3.52340E-01 -1.13404E-01
    8987.902     -6.838   0.160  2.46009E-01  3.62631E-01 -1.16622E-01
    8987.957     -6.783   0.200  2.55223E-01  3.75763E-01 -1.20540E-01
    8988.024     -6.716   0.240  2.66684E-01  3.91576E-01 -1.24892E-01
    8988.103     -6.637   0.280  2.80430E-01  4.09710E-01 -1.29280E-01
    8988.195     -6.546   0.320  2.96587E-01  4.29718E-01 -1.33131E-01
    8988.298     -6.442   0.360  3.15251E-01  4.51002E-01 -1.35751E-01
    8988.414     -6.326   0.400  3.36560E-01  4.72926E-01 -1.36365E-01
    8988.542     -6.198   0.440  3.60637E-01  4.94946E-01 -1.34310E-01
    8988.682     -6.058   0.480  3.87392E-01  5.16609E-01 -1.29217E-01
    8988.835     -5.906   0.520  4.16328E-01  5.37594E-01 -1.21266E-01
    8988.999     -5.741   0.560  4.46434E-01  5.57795E-01 -1.11361E-01
    8989.176     -5.564   0.600  4.76103E-01  5.77178E-01 -1.01075E-01
    8989.365     -5.375   0.640  5.03401E-01  5.95781E-01 -9.23802E-02
    8989.566     -5.174   0.680  5.26407E-01  6.13685E-01 -8.72781E-02
    8989.779     -4.961   0.720  5.43579E-01  6.31005E-01 -8.74262E-02
    8990.005     -4.735   0.760  5.53948E-01  6.47813E-01 -9.38655E-02
    8990.243     -4.497   0.800  5.57353E-01  6.64192E-01 -1.06839E-01
    8990.493     -4.247   0.840  5.54275E-01  6.80211E-01 -1.25936E-01
    8990.755     -3.985   0.880  5.45629E-01  6.95944E-01 -1.50316E-01
    8991.029     -3.711   0.920  5.33413E-01  7.11412E-01 -1.77999E-01
    8991.316     -3.425   0.960  5.21710E-01  7.26639E-01 -2.04929E-01
    8991.614     -3.126   1.000  5.15875E-01  7.41643E-01 -2.25768E-01
    8991.925     -2.815   1.040  5.19975E-01  7.56429E-01 -2.36454E-01
    8992.248     -2.492   1.080  5.34012E-01  7.70975E-01 -2.36963E-01
    8992.584     -2.157   1.120  5.53684E-01  7.85271E-01 -2.31587E-01
    8992.931     -1.809   1.160  5.73855E-01  7.99306E-01 -2.25450E-01
    8993.291     -1.449   1.200  5.91542E-01  8.13079E-01 -2.21537E-01
    8993.663     -1.078   1.240  6.05235E-01  8.26531E-01 -2.21296E-01
    8994.047     -0.694   1.280  6.15236E-01  8.39678E-01 -2.24441E-01
    8994.443     -0.297   1.320  6.27217E-01  8.52454E-01 -2.25237E-01
    8994.851      0.111   1.360  6.48224E-01  8.64873E-01 -2.16650E-01
    8995.272      0.532   1.400  6.73130E-01  8.76869E-01 -2.03739E-01
    8995.705      0.965   1.440  6.93442E-01  8.88457E-01 -1.95015E-01
    8996.150      1.410   1.480  7.17939E-01  8.99587E-01 -1.81648E-01
    8996.607      1.867   1.520  7.56625E-01  9.10253E-01 -1.53627E-01
    8997.076      2.336   1.560  8.00125E-01  9.20452E-01 -1.20327E-01
    8997.558      2.818   1.600  8.35526E-01  9.30159E-01 -9.46327E-02
    8998.052      3.312   1.640  8.66488E-01  9.39350E-01 -7.28623E-02
    8998.558      3.817   1.680  9.04158E-01  9.48045E-01 -4.38872E-02
    8999.076      4.336   1.720  9.49739E-01  9.56201E-01 -6.46124E-03
    8999.606      4.866   1.760  9.91642E-01  9.63859E-01  2.77829E-02
    9000.149      5.409   1.800  1.01690E+00  9.71001E-01  4.59029E-02
    9000.703      5.963   1.840  1.02217E+00  9.77608E-01  4.45571E-02
    9001.270      6.530   1.880  1.01470E+00  9.83707E-01  3.09946E-02
    9001.849      7.109   1.920  1.00767E+00  9.89322E-01  1.83488E-02
    9002.441      7.701   1.960  1.01310E+00  9.94439E-01  1.86661E-02
    9003.044      8.304   2.000  1.03852E+00  9.99085E-01  3.94368E-02
    9003.660      8.920   2.040  1.08176E+00  1.00325E+00  7.85170E-02
    9004.288      9.548   2.080  1.13260E+00  1.00698E+00  1.25623E-01
    9004.928     10.188   2.120  1.17879E+00  1.01028E+00  1.68514E-01
    9005.580     10.840   2.160  1.21151E+00  1.01317E+00  1.98343E-01
    9006.245     11.505   2.200  1.23372E+00  1.01565E+00  2.18076E-01
    9006.921     12.181   2.240  1.25325E+00  1.01777E+00  2.35476E-01
    9007.610     12.870   2.280  1.26650E+00  1.01954E+00  2.46964E-01
    9008.311     13.571   2.320  1.26473E+00  1.02096E+00  2.43765E-01
    9009.024     14.284   2.360  1.24559E+00  1.02209E+00  2.23504E-01
    9009.750     15.010   2.400  1.21182E+00  1.02290E+00  1.88917E-01
    9010.487     15.747   2.440  1.17192E+00  1.02345E+00  1.48474E-01
    9011.237     16.497   2.480  1.13461E+00  1.02375E+00  1.10861E-01
    9011.999     17.259   2.520  1.10078E+00  1.02383E+00  7.69492E-02
    9012.773     18.033   2.560  1.07187E+00  1.02368E+00  4.81971E-02
    9013.560     18.820   2.600  1.04888E+00  1.02335E+00  2.55353E-02
    9014.358     19.618   2.640  1.03326E+00  1.02285E+00  1.04147E-02
    9015.169     20.429   2.680  1.02458E+00  1.02219E+00  2.39606E-03
    9015.992     21.252   2.720  1.02083E+00  1.02139E+00 -5.64062E-04
    9016.827     22.087   2.760  1.02002E+00  1.02047E+00 -4.56057E-04
    9017.675     22.934   2.800  1.02067E+00  1.01946E+00  1.21101E-03
    9018.534     23.794   2.840  1.02208E+00  1.01834E+00  3.73795E-03
    9019.406     24.666   2.880  1.02414E+00  1.01716E+00  6.97212E-03
    9020.290     25.550   2.920  1.02692E+00  1.01591E+00  1.10138E-02
    9021.186     26.446   2.960  1.03070E+00  1.01461E+00  1.60910E-02
    9022.094     27.354   3.000  1.03542E+00  1.01327E+00  2.21477E-02
    9023.015     28.275   3.040  1.04059E+00  1.01192E+00  2.86671E-02
    9023.947     29.207   3.080  1.04515E+00  1.01056E+00  3.45929E-02
    9024.892     30.152   3.120  1.04774E+00  1.00918E+00  3.85655E-02
    9025.849     31.109   3.160  1.04674E+00  1.00782E+00  3.89243E-02
    9026.819     32.078   3.200  1.04049E+00  1.00646E+00  3.40307E-02
    9027.800     33.060   3.240  1.02852E+00  1.00514E+00  2.33811E-02
    9028.794     34.054   3.280  1.01164E+00  1.00383E+00  7.81113E-03
    9029.800     35.059   3.320  9.91569E-01  1.00257E+00 -1.10041E-02
    9030.818     36.077   3.360  9.70149E-01  1.00134E+00 -3.11909E-02
    9031.848     37.108   3.400  9.49135E-01  1.00017E+00 -5.10374E-02
    9032.890     38.150   3.440  9.29771E-01  9.99050E-01 -6.92793E-02
    9033.945     39.205   3.480  9.13026E-01  9.97996E-01 -8.49703E-02
    9035.012     40.271   3.520  8.99664E-01  9.96992E-01 -9.73285E-02
    9036.091     41.350   3.560  8.90196E-01  9.96040E-01 -1.05844E-01
    9037.182     42.442   3.600  8.84732E-01  9.95183E-01 -1.10452E-01
    9038.285     43.545   3.640  8.82994E-01  9.94380E-01 -1.11386E-01
    9039.401     44.661   3.680  8.84605E-01  9.93653E-01 -1.09048E-01
    9040.528     45.788   3.720  8.88950E-01  9.93002E-01 -1.04052E-01
    9041.668     46.928   3.760  8.95400E-01  9.92407E-01 -9.70074E-02
    9042.821     48.080   3.800  9.03486E-01  9.91912E-01 -8.84258E-02
    9043.985     49.245   3.840  9.12745E-01  9.91474E-01 -7.87284E-02
    9045.161     50.421   3.880  9.22806E-01  9.91115E-01 -6.83091E-02
    9046.350     51.610   3.920  9.33468E-01  9.90855E-01 -5.73878E-02
    9047.551     52.811   3.960  9.44568E-01  9.90653E-01 -4.60855E-02
    9048.764     54.024   4.000  9.56037E-01  9.90527E-01 -3.44898E-02
    9049.989     55.249   4.040  9.67763E-01  9.90456E-01 -2.26925E-02
    9051.227     56.487   4.080  9.79600E-01  9.90481E-01 -1.08810E-02
    9052.477     57.736   4.120  9.91076E-01  9.90562E-01  5.14391E-04
    9053.738     58.998   4.160  1.00173E+00  9.90715E-01  1.10119E-02
    9055.012     60.272   4.200  1.01126E+00  9.90920E-01  2.03393E-02
    9056.299     61.559   4.240  1.01972E+00  9.91198E-01  2.85262E-02
    9057.597     62.857   4.280  1.02735E+00  9.91547E-01  3.57996E-02
    9058.908     64.168   4.320  1.03435E+00  9.91944E-01  4.24088E-02
    9060.231     65.490   4.360  1.04077E+00  9.92385E-01  4.83842E-02
    9061.566     66.825   4.400  1.04637E+00  9.92870E-01  5.34998E-02
    9062.913     68.173   4.440  1.05075E+00  9.93419E-01  5.73342E-02
    9064.272     69.532   4.480  1.05331E+00  9.93990E-01  5.93208E-02
    9065.644     70.904   4.520  1.05349E+00  9.94623E-01  5.88666E-02
    9067.028     72.287   4.560  1.05088E+00  9.95292E-01  5.55907E-02
    9068.424     73.683   4.600  1.04545E+00  9.95975E-01  4.94733E-02
    9069.832     75.092   4.640  1.03758E+00  9.96691E-01  4.08897E-02
    9071.252     76.512   4.680  1.02793E+00  9.97416E-01  3.05125E-02
    9072.685     77.945   4.720  1.01735E+00  9.98173E-01  1.91729E-02
    9074.129     79.389   4.760  1.00676E+00  9.98957E-01  7.80251E-03
    9075.586     80.846   4.800  9.97147E-01  9.99724E-01 -2.57715E-03
    9077.056     82.315   4.840  9.89617E-01  1.00051E+00 -1.08980E-02
    9078.537     83.797   4.880  9.85040E-01  1.00130E+00 -1.62648E-02
    9080.030     85.290   4.920  9.83771E-01  1.00207E+00 -1.82995E-02
    9081.536     86.796   4.960  9.85507E-01  1.00285E+00 -1.73472E-02
    9083.054     88.314   5.000  9.89342E-01  1.00361E+00 -1.42689E-02
    9084.584     89.844   5.040  9.94380E-01  1.00436E+00 -9.97872E-03
    9086.126     91.386   5.080  9.99958E-01  1.00508E+00 -5.11782E-03
    9087.681     92.941   5.120  1.00573E+00  1.00578E+00 -5.29560E-05
    9089.247     94.507   5.160  1.01133E+00  1.00645E+00  4.87911E-03
    9090.826     96.086   5.200  1.01636E+00  1.00711E+00  9.24990E-03
    9092.417     97.677   5.240  1.02058E+00  1.00773E+00  1.28492E-02
    9094.021     99.280   5.280  1.02423E+00  1.00829E+00  1.59438E-02
    9095.636    100.896   5.320  1.02802E+00  1.00883E+00  1.91869E-02
    9097.264    102.524   5.360  1.03250E+00  1.00933E+00  2.31697E-02
    9098.904    104.163   5.400  1.03760E+00  1.00976E+00  2.78396E-02
    9100.556    105.815   5.440  1.04289E+00  1.01017E+00  3.27204E-02
    9102.220    107.480   5.480  1.04774E+00  1.01051E+00  3.72319E-02
    9103.896    109.156   5.520  1.05179E+00  1.01081E+00  4.09789E-02
    9105.585    110.845   5.560  1.05480E+00  1.01106E+00  4.37456E-02
    9107.285    112.545   5.600  1.05650E+00  1.01124E+00  4.52574E-02
    9108.998    114.258   5.640  1.05657E+00  1.01137E+00  4.52015E-02
    9110.724    115.983   5.680  1.05496E+00  1.01146E+00  4.35010E-02
    9112.461    117.721   5.720  1.05184E+00  1.01147E+00  4.03642E-02
    9114.210    119.470   5.760  1.04742E+00  1.01144E+00  3.59784E-02
    9115.972    121.232   5.800  1.04140E+00  1.01134E+00  3.00571E-02
    9117.746    123.006   5.840  1.03317E+00  1.01119E+00  2.19841E-02
    9119.532    124.792   5.880  1.02243E+00  1.01100E+00  1.14360E-02
    9121.331    126.590   5.920  1.00949E+00  1.01073E+00 -1.24462E-03
    9123.141    128.401   5.960  9.95270E-01  1.01042E+00 -1.51501E-02
    9124.964    130.224   6.000  9.80524E-01  1.01002E+00 -2.94984E-02
