# # comment:                                                     FEFF 9.9.1  
# # Source:
# # Structure
# # Reduced
# # space
# # abc:
# # angles:
# # sites:
# # POT  SCF 100  7.0000   0, screened core-hole, AFOLP (folp(0)= 1.150)
# # Abs   Z=29 Rmt= 1.161 Rnm= 1.279 K  shell
# # Pot 1 Z=29 Rmt= 1.146 Rnm= 1.272
# # Pot 2 Z=34 Rmt= 1.102 Rnm= 1.333
# # Pot 3 Z=17 Rmt= 1.407 Rnm= 1.576
# # Pot 4 Z= 8 Rmt= 0.939 Rnm= 1.083
# # Gam_ch=1.729E+00 H-L exch Vi= 0.000E+00 Vr= 0.000E+00
# # Mu=-6.253E+00eV kf=2.144E+00 Vint=-1.396E+01eV Rs_int= 1.692
# FMS rfms= 9.0000
# # PATH  Rmax=-1.000,  Keep_limit= 0.00, Heap_limit 0.00  Pwcrit= 2.50%
#  S02=0.950  Temp=   0.00  Debye_temp=   0.00  Global_sig2= 0.00000
#  Energy zero shift, vr, vi    0.00000E+00   0.00000E+00
#  Curved wave amplitude ratio filter   4.000%
#     file         sig2 tot  cw amp ratio   deg  nlegs   reff  inp sig2
#     0/   0 paths used
#  xsedge+ 50, used to normalize mu           2.4218E-04
#  -----------------------------------------------------------------------
#  omega    e    k    mu    mu0     chi     @#
    8983.295    -10.063  -1.000  3.40844E-02  5.56230E-02 -2.15386E-02
    8983.594     -9.764  -0.960  3.56390E-02  5.96488E-02 -2.40098E-02
    8983.880     -9.478  -0.920  3.72832E-02  6.41178E-02 -2.68346E-02
    8984.155     -9.204  -0.880  3.90231E-02  6.90946E-02 -3.00716E-02
    8984.417     -8.941  -0.840  4.08651E-02  7.46543E-02 -3.37892E-02
    8984.667     -8.692  -0.800  4.28162E-02  8.08837E-02 -3.80675E-02
    8984.904     -8.454  -0.760  4.48837E-02  8.78824E-02 -4.29987E-02
    8985.130     -8.228  -0.720  4.70750E-02  9.57628E-02 -4.86878E-02
    8985.343     -8.015  -0.680  4.93974E-02  1.04648E-01 -5.52510E-02
    8985.544     -7.814  -0.640  5.18574E-02  1.14669E-01 -6.28120E-02
    8985.733     -7.625  -0.600  5.44598E-02  1.25953E-01 -7.14937E-02
    8985.910     -7.448  -0.560  5.72058E-02  1.38609E-01 -8.14035E-02
    8986.075     -7.283  -0.520  6.00908E-02  1.52701E-01 -9.26101E-02
    8986.227     -7.131  -0.480  6.31010E-02  1.68213E-01 -1.05112E-01
    8986.367     -6.991  -0.440  6.62094E-02  1.85009E-01 -1.18800E-01
    8986.495     -6.863  -0.400  6.93732E-02  2.02799E-01 -1.33426E-01
    8986.611     -6.747  -0.360  7.25330E-02  2.21129E-01 -1.48596E-01
    8986.715     -6.643  -0.320  7.56154E-02  2.39404E-01 -1.63789E-01
    8986.806     -6.552  -0.280  7.85404E-02  2.56969E-01 -1.78429E-01
    8986.886     -6.473  -0.240  8.12300E-02  2.73188E-01 -1.91958E-01
    8986.953     -6.406  -0.200  8.36155E-02  2.87530E-01 -2.03914E-01
    8987.007     -6.351  -0.160  8.56418E-02  2.99601E-01 -2.13960E-01
    8987.050     -6.308  -0.120  8.72670E-02  3.09150E-01 -2.21883E-01
    8987.081     -6.278  -0.080  8.84606E-02  3.16032E-01 -2.27572E-01
    8987.105     -6.253   0.000  8.94555E-02  3.21564E-01 -2.32109E-01
    8987.160     -6.198   0.120  9.16978E-02  3.34057E-01 -2.42359E-01
    8987.203     -6.156   0.160  9.33838E-02  3.43759E-01 -2.50375E-01
    8987.257     -6.101   0.200  9.55743E-02  3.56172E-01 -2.60597E-01
    8987.324     -6.034   0.240  9.82663E-02  3.71141E-01 -2.72875E-01
    8987.404     -5.954   0.280  1.01442E-01  3.88347E-01 -2.86905E-01
    8987.495     -5.863   0.320  1.05161E-01  4.07417E-01 -3.02257E-01
    8987.599     -5.759   0.360  1.09416E-01  4.27775E-01 -3.18359E-01
    8987.715     -5.644   0.400  1.14327E-01  4.48910E-01 -3.34583E-01
    8987.843     -5.516   0.440  1.20020E-01  4.70298E-01 -3.50278E-01
    8987.983     -5.375   0.480  1.26684E-01  4.91526E-01 -3.64842E-01
    8988.135     -5.223   0.520  1.34551E-01  5.12325E-01 -3.77773E-01
    8988.300     -5.058   0.560  1.43905E-01  5.32556E-01 -3.88651E-01
    8988.477     -4.882   0.600  1.55092E-01  5.52227E-01 -3.97135E-01
    8988.666     -4.693   0.640  1.68350E-01  5.71348E-01 -4.02997E-01
    8988.867     -4.491   0.680  1.83934E-01  5.89984E-01 -4.06050E-01
    8989.080     -4.278   0.720  2.02204E-01  6.08215E-01 -4.06011E-01
    8989.306     -4.053   0.760  2.23700E-01  6.26114E-01 -4.02414E-01
    8989.543     -3.815   0.800  2.49181E-01  6.43750E-01 -3.94569E-01
    8989.793     -3.565   0.840  2.79102E-01  6.61153E-01 -3.82051E-01
    8990.055     -3.303   0.880  3.12956E-01  6.78382E-01 -3.65426E-01
    8990.330     -3.028   0.920  3.49912E-01  6.95443E-01 -3.45532E-01
    8990.616     -2.742   0.960  3.91236E-01  7.12328E-01 -3.21092E-01
    8990.915     -2.443   1.000  4.40260E-01  7.29040E-01 -2.88780E-01
    8991.226     -2.132   1.040  4.97067E-01  7.45572E-01 -2.48506E-01
    8991.549     -1.809   1.080  5.55094E-01  7.61892E-01 -2.06797E-01
    8991.884     -1.474   1.120  6.06789E-01  7.77977E-01 -1.71188E-01
    8992.232     -1.126   1.160  6.47088E-01  7.93764E-01 -1.46677E-01
    8992.591     -0.767   1.200  6.70031E-01  8.09268E-01 -1.39237E-01
    8992.963     -0.395   1.240  6.74501E-01  8.24439E-01 -1.49938E-01
    8993.347     -0.011   1.280  6.65435E-01  8.39202E-01 -1.73767E-01
    8993.744      0.385   1.320  6.43391E-01  8.53545E-01 -2.10154E-01
    8994.152      0.794   1.360  6.11690E-01  8.67457E-01 -2.55767E-01
    8994.573      1.214   1.400  5.80619E-01  8.80865E-01 -3.00246E-01
    8995.005      1.647   1.440  5.56076E-01  8.93756E-01 -3.37680E-01
    8995.450      2.092   1.480  5.39924E-01  9.06080E-01 -3.66156E-01
    8995.908      2.549   1.520  5.34564E-01  9.17869E-01 -3.83305E-01
    8996.377      3.019   1.560  5.42018E-01  9.29032E-01 -3.87014E-01
    8996.859      3.500   1.600  5.63821E-01  9.39608E-01 -3.75787E-01
    8997.352      3.994   1.640  5.99820E-01  9.49569E-01 -3.49749E-01
    8997.858      4.500   1.680  6.44507E-01  9.58895E-01 -3.14388E-01
    8998.376      5.018   1.720  6.92412E-01  9.67605E-01 -2.75193E-01
    8998.907      5.549   1.760  7.51243E-01  9.75679E-01 -2.24436E-01
    8999.449      6.091   1.800  8.35531E-01  9.83123E-01 -1.47592E-01
    9000.004      6.646   1.840  9.49025E-01  9.89960E-01 -4.09343E-02
    9000.571      7.213   1.880  1.08485E+00  9.96198E-01  8.86498E-02
    9001.150      7.792   1.920  1.22961E+00  1.00182E+00  2.27785E-01
    9001.741      8.383   1.960  1.35403E+00  1.00691E+00  3.47118E-01
    9002.345      8.987   2.000  1.42586E+00  1.01140E+00  4.14465E-01
    9002.961      9.602   2.040  1.44649E+00  1.01539E+00  4.31098E-01
    9003.589     10.230   2.080  1.44647E+00  1.01885E+00  4.27622E-01
    9004.229     10.870   2.120  1.44857E+00  1.02184E+00  4.26734E-01
    9004.881     11.523   2.160  1.44810E+00  1.02434E+00  4.23755E-01
    9005.545     12.187   2.200  1.43195E+00  1.02641E+00  4.05534E-01
    9006.222     12.864   2.240  1.39810E+00  1.02809E+00  3.70005E-01
    9006.911     13.553   2.280  1.35480E+00  1.02937E+00  3.25429E-01
    9007.612     14.254   2.320  1.31339E+00  1.03030E+00  2.83092E-01
    9008.325     14.967   2.360  1.27973E+00  1.03090E+00  2.48832E-01
    9009.051     15.692   2.400  1.25472E+00  1.03120E+00  2.23526E-01
    9009.788     16.430   2.440  1.23766E+00  1.03121E+00  2.06456E-01
    9010.538     17.180   2.480  1.21915E+00  1.03097E+00  1.88178E-01
    9011.300     17.942   2.520  1.18901E+00  1.03050E+00  1.58503E-01
    9012.074     18.716   2.560  1.15626E+00  1.02981E+00  1.26447E-01
    9012.861     19.502   2.600  1.13498E+00  1.02897E+00  1.06017E-01
    9013.659     20.301   2.640  1.12174E+00  1.02796E+00  9.37796E-02
    9014.470     21.112   2.680  1.11054E+00  1.02679E+00  8.37455E-02
    9015.293     21.935   2.720  1.09792E+00  1.02550E+00  7.24159E-02
    9016.128     22.770   2.760  1.08285E+00  1.02414E+00  5.87079E-02
    9016.975     23.617   2.800  1.06569E+00  1.02267E+00  4.30170E-02
    9017.835     24.477   2.840  1.04798E+00  1.02115E+00  2.68310E-02
    9018.707     25.348   2.880  1.03139E+00  1.01956E+00  1.18243E-02
    9019.590     26.232   2.920  1.01644E+00  1.01795E+00 -1.50964E-03
    9020.487     27.128   2.960  1.00333E+00  1.01631E+00 -1.29872E-02
    9021.395     28.037   3.000  9.91896E-01  1.01469E+00 -2.27913E-02
    9022.315     28.957   3.040  9.81695E-01  1.01304E+00 -3.13471E-02
    9023.248     29.890   3.080  9.72481E-01  1.01142E+00 -3.89409E-02
    9024.193     30.835   3.120  9.63769E-01  1.00981E+00 -4.60438E-02
    9025.150     31.792   3.160  9.54849E-01  1.00824E+00 -5.33932E-02
    9026.119     32.761   3.200  9.45006E-01  1.00673E+00 -6.17275E-02
    9027.101     33.743   3.240  9.33842E-01  1.00527E+00 -7.14298E-02
    9028.094     34.736   3.280  9.21226E-01  1.00386E+00 -8.26310E-02
    9029.100     35.742   3.320  9.07520E-01  1.00252E+00 -9.49955E-02
    9030.118     36.760   3.360  8.93511E-01  1.00123E+00 -1.07716E-01
    9031.148     37.790   3.400  8.80195E-01  1.00004E+00 -1.19844E-01
    9032.191     38.833   3.440  8.68407E-01  9.98910E-01 -1.30503E-01
    9033.245     39.887   3.480  8.58955E-01  9.97863E-01 -1.38907E-01
    9034.312     40.954   3.520  8.52488E-01  9.96921E-01 -1.44433E-01
    9035.391     42.033   3.560  8.49205E-01  9.96066E-01 -1.46861E-01
    9036.482     43.124   3.600  8.49218E-01  9.95296E-01 -1.46078E-01
    9037.586     44.228   3.640  8.52543E-01  9.94613E-01 -1.42070E-01
    9038.701     45.343   3.680  8.59068E-01  9.94040E-01 -1.34972E-01
    9039.829     46.471   3.720  8.68357E-01  9.93558E-01 -1.25201E-01
    9040.969     47.611   3.760  8.80067E-01  9.93185E-01 -1.13118E-01
    9042.121     48.763   3.800  8.93803E-01  9.92900E-01 -9.90970E-02
    9043.286     49.927   3.840  9.09087E-01  9.92703E-01 -8.36162E-02
    9044.462     51.104   3.880  9.25373E-01  9.92615E-01 -6.72423E-02
    9045.651     52.293   3.920  9.41870E-01  9.92591E-01 -5.07217E-02
    9046.852     53.493   3.960  9.57701E-01  9.92676E-01 -3.49742E-02
    9048.065     54.707   4.000  9.72078E-01  9.92868E-01 -2.07900E-02
    9049.290     55.932   4.040  9.84627E-01  9.93125E-01 -8.49747E-03
    9050.528     57.169   4.080  9.95498E-01  9.93485E-01  2.01336E-03
    9051.777     58.419   4.120  1.00501E+00  9.93907E-01  1.11054E-02
    9053.039     59.681   4.160  1.01367E+00  9.94430E-01  1.92420E-02
    9054.313     60.955   4.200  1.02186E+00  9.95011E-01  2.68514E-02
    9055.599     62.241   4.240  1.02995E+00  9.95691E-01  3.42604E-02
    9056.898     63.540   4.280  1.03812E+00  9.96403E-01  4.17149E-02
    9058.208     64.850   4.320  1.04655E+00  9.97210E-01  4.93451E-02
    9059.531     66.173   4.360  1.05519E+00  9.98066E-01  5.71252E-02
    9060.866     67.508   4.400  1.06382E+00  9.98970E-01  6.48537E-02
    9062.214     68.855   4.440  1.07219E+00  9.99940E-01  7.22461E-02
    9063.573     70.215   4.480  1.07978E+00  1.00093E+00  7.88490E-02
    9064.945     71.586   4.520  1.08612E+00  1.00198E+00  8.41414E-02
    9066.328     72.970   4.560  1.09085E+00  1.00305E+00  8.77911E-02
    9067.724     74.366   4.600  1.09384E+00  1.00418E+00  8.96607E-02
    9069.132     75.774   4.640  1.09500E+00  1.00532E+00  8.96767E-02
    9070.553     77.195   4.680  1.09432E+00  1.00647E+00  8.78479E-02
    9071.985     78.627   4.720  1.09189E+00  1.00765E+00  8.42460E-02
    9073.430     80.072   4.760  1.08793E+00  1.00883E+00  7.91084E-02
    9074.887     81.529   4.800  1.08286E+00  1.01001E+00  7.28576E-02
    9076.356     82.998   4.840  1.07712E+00  1.01119E+00  6.59350E-02
    9077.838     84.479   4.880  1.07106E+00  1.01236E+00  5.87050E-02
    9079.331     85.973   4.920  1.06494E+00  1.01350E+00  5.14402E-02
    9080.837     87.479   4.960  1.05885E+00  1.01464E+00  4.42076E-02
    9082.355     88.996   5.000  1.05261E+00  1.01577E+00  3.68393E-02
    9083.885     90.527   5.040  1.04592E+00  1.01686E+00  2.90578E-02
    9085.427     92.069   5.080  1.03865E+00  1.01791E+00  2.07410E-02
    9086.981     93.623   5.120  1.03109E+00  1.01892E+00  1.21718E-02
    9088.548     95.190   5.160  1.02385E+00  1.01989E+00  3.95569E-03
    9090.127     96.769   5.200  1.01757E+00  1.02081E+00 -3.24542E-03
    9091.718     98.360   5.240  1.01266E+00  1.02169E+00 -9.03178E-03
    9093.321     99.963   5.280  1.00900E+00  1.02250E+00 -1.34966E-02
    9094.937    101.579   5.320  1.00604E+00  1.02326E+00 -1.72197E-02
    9096.564    103.206   5.360  1.00307E+00  1.02396E+00 -2.08925E-02
    9098.204    104.846   5.400  9.99705E-01  1.02457E+00 -2.48694E-02
    9099.856    106.498   5.440  9.96142E-01  1.02515E+00 -2.90107E-02
    9101.520    108.162   5.480  9.92746E-01  1.02563E+00 -3.28850E-02
    9103.197    109.839   5.520  9.90004E-01  1.02605E+00 -3.60498E-02
    9104.885    111.527   5.560  9.88177E-01  1.02640E+00 -3.82227E-02
    9106.586    113.228   5.600  9.87412E-01  1.02667E+00 -3.92545E-02
    9108.299    114.941   5.640  9.87764E-01  1.02688E+00 -3.91122E-02
    9110.024    116.666   5.680  9.89054E-01  1.02698E+00 -3.79302E-02
    9111.762    118.403   5.720  9.90924E-01  1.02704E+00 -3.61127E-02
    9113.511    120.153   5.760  9.92797E-01  1.02701E+00 -3.42131E-02
    9115.273    121.915   5.800  9.94168E-01  1.02690E+00 -3.27350E-02
    9117.047    123.689   5.840  9.94773E-01  1.02672E+00 -3.19448E-02
    9118.833    125.475   5.880  9.94614E-01  1.02646E+00 -3.18415E-02
    9120.631    127.273   5.920  9.93958E-01  1.02614E+00 -3.21838E-02
    9122.442    129.084   5.960  9.93251E-01  1.02574E+00 -3.24929E-02
    9124.264    130.906   6.000  9.93048E-01  1.02521E+00 -3.21594E-02
