# # comment:                                                     FEFF 9.9.1  
# # Source:
# # Structure
# # Reduced
# # space
# # abc:
# # angles:
# # sites:
# # POT  SCF 100  7.0000   0, screened core-hole, AFOLP (folp(0)= 1.150)
# # Abs   Z=29 Rmt= 1.242 Rnm= 1.341 K  shell
# # Pot 1 Z=29 Rmt= 1.253 Rnm= 1.346
# # Pot 2 Z=78 Rmt= 1.332 Rnm= 1.464
# # Pot 3 Z= 8 Rmt= 1.021 Rnm= 1.111
# # Gam_ch=1.729E+00 H-L exch Vi= 0.000E+00 Vr= 0.000E+00
# # Mu=-6.719E+00eV kf=2.137E+00 Vint=-1.469E+01eV Rs_int= 1.697
# FMS rfms= 9.0000
# # PATH  Rmax=-1.000,  Keep_limit= 0.00, Heap_limit 0.00  Pwcrit= 2.50%
#  S02=0.950  Temp=   0.00  Debye_temp=   0.00  Global_sig2= 0.00000
#  Energy zero shift, vr, vi    0.00000E+00   0.00000E+00
#  Curved wave amplitude ratio filter   4.000%
#     file         sig2 tot  cw amp ratio   deg  nlegs   reff  inp sig2
#     0/   0 paths used
#  xsedge+ 50, used to normalize mu           2.4440E-04
#  -----------------------------------------------------------------------
#  omega    e    k    mu    mu0     chi     @#
    8983.510    -10.529  -1.000  4.02067E-02  5.57061E-02 -1.54993E-02
    8983.809    -10.230  -0.960  4.24802E-02  5.97820E-02 -1.73018E-02
    8984.095     -9.944  -0.920  4.49461E-02  6.43116E-02 -1.93656E-02
    8984.370     -9.670  -0.880  4.76260E-02  6.93614E-02 -2.17354E-02
    8984.632     -9.407  -0.840  5.05443E-02  7.50088E-02 -2.44645E-02
    8984.882     -9.158  -0.800  5.37279E-02  8.13434E-02 -2.76155E-02
    8985.119     -8.920  -0.760  5.72064E-02  8.84683E-02 -3.12618E-02
    8985.345     -8.694  -0.720  6.10117E-02  9.64994E-02 -3.54877E-02
    8985.558     -8.481  -0.680  6.51766E-02  1.05565E-01 -4.03880E-02
    8985.759     -8.280  -0.640  6.97338E-02  1.15799E-01 -4.60650E-02
    8985.948     -8.091  -0.600  7.47123E-02  1.27334E-01 -5.26220E-02
    8986.125     -7.914  -0.560  8.01324E-02  1.40284E-01 -6.01515E-02
    8986.290     -7.749  -0.520  8.59984E-02  1.54714E-01 -6.87160E-02
    8986.442     -7.597  -0.480  9.22887E-02  1.70610E-01 -7.83218E-02
    8986.582     -7.457  -0.440  9.89449E-02  1.87833E-01 -8.88880E-02
    8986.710     -7.329  -0.400  1.05863E-01  2.06083E-01 -1.00220E-01
    8986.826     -7.213  -0.360  1.12891E-01  2.24891E-01 -1.12000E-01
    8986.930     -7.109  -0.320  1.19839E-01  2.43646E-01 -1.23807E-01
    8987.021     -7.018  -0.280  1.26498E-01  2.61671E-01 -1.35173E-01
    8987.101     -6.939  -0.240  1.32666E-01  2.78313E-01 -1.45647E-01
    8987.168     -6.872  -0.200  1.38162E-01  2.93024E-01 -1.54862E-01
    8987.222     -6.817  -0.160  1.42843E-01  3.05404E-01 -1.62560E-01
    8987.265     -6.774  -0.120  1.46597E-01  3.15192E-01 -1.68596E-01
    8987.296     -6.744  -0.080  1.49340E-01  3.22246E-01 -1.72906E-01
    8987.320     -6.719   0.000  1.51588E-01  3.27914E-01 -1.76327E-01
    8987.375     -6.664   0.120  1.56832E-01  3.40708E-01 -1.83875E-01
    8987.418     -6.622   0.160  1.60926E-01  3.50646E-01 -1.89720E-01
    8987.472     -6.567   0.200  1.66281E-01  3.63346E-01 -1.97065E-01
    8987.539     -6.500   0.240  1.72972E-01  3.78622E-01 -2.05650E-01
    8987.619     -6.420   0.280  1.81122E-01  3.96200E-01 -2.15078E-01
    8987.710     -6.329   0.320  1.90896E-01  4.15626E-01 -2.24730E-01
    8987.814     -6.225   0.360  2.02539E-01  4.36359E-01 -2.33820E-01
    8987.930     -6.110   0.400  2.16392E-01  4.57801E-01 -2.41409E-01
    8988.058     -5.982   0.440  2.32903E-01  4.79404E-01 -2.46502E-01
    8988.198     -5.841   0.480  2.52634E-01  5.00759E-01 -2.48125E-01
    8988.350     -5.689   0.520  2.76214E-01  5.21605E-01 -2.45391E-01
    8988.515     -5.524   0.560  3.04123E-01  5.41776E-01 -2.37653E-01
    8988.692     -5.348   0.600  3.36640E-01  5.61258E-01 -2.24618E-01
    8988.881     -5.159   0.640  3.73499E-01  5.80064E-01 -2.06564E-01
    8989.082     -4.957   0.680  4.13436E-01  5.98303E-01 -1.84868E-01
    8989.295     -4.744   0.720  4.53180E-01  6.16018E-01 -1.62838E-01
    8989.521     -4.518   0.760  4.86510E-01  6.33290E-01 -1.46779E-01
    8989.758     -4.281   0.800  5.05045E-01  6.50209E-01 -1.45165E-01
    8990.008     -4.031   0.840  5.03193E-01  6.66814E-01 -1.63621E-01
    8990.270     -3.769   0.880  4.84706E-01  6.83148E-01 -1.98442E-01
    8990.545     -3.494   0.920  4.60088E-01  6.99220E-01 -2.39132E-01
    8990.831     -3.208   0.960  4.34846E-01  7.15067E-01 -2.80222E-01
    8991.130     -2.909   1.000  4.06150E-01  7.30657E-01 -3.24507E-01
    8991.441     -2.598   1.040  3.73945E-01  7.46009E-01 -3.72065E-01
    8991.764     -2.275   1.080  3.45398E-01  7.61093E-01 -4.15695E-01
    8992.099     -1.940   1.120  3.27256E-01  7.75894E-01 -4.48638E-01
    8992.447     -1.592   1.160  3.22088E-01  7.90373E-01 -4.68285E-01
    8992.806     -1.233   1.200  3.30397E-01  8.04508E-01 -4.74111E-01
    8993.178     -0.861   1.240  3.52294E-01  8.18273E-01 -4.65979E-01
    8993.562     -0.477   1.280  3.87290E-01  8.31663E-01 -4.44372E-01
    8993.959     -0.081   1.320  4.32836E-01  8.44609E-01 -4.11773E-01
    8994.367      0.328   1.360  4.83269E-01  8.57106E-01 -3.73836E-01
    8994.788      0.748   1.400  5.31014E-01  8.69124E-01 -3.38110E-01
    8995.220      1.181   1.440  5.72038E-01  8.80636E-01 -3.08598E-01
    8995.665      1.626   1.480  6.10931E-01  8.91659E-01 -2.80729E-01
    8996.123      2.083   1.520  6.59218E-01  9.02128E-01 -2.42910E-01
    8996.592      2.553   1.560  7.28558E-01  9.12058E-01 -1.83500E-01
    8997.074      3.034   1.600  8.20054E-01  9.21449E-01 -1.01394E-01
    8997.567      3.528   1.640  9.21483E-01  9.30279E-01 -8.79573E-03
    8998.073      4.034   1.680  1.02864E+00  9.38551E-01  9.00845E-02
    8998.591      4.552   1.720  1.15959E+00  9.46267E-01  2.13327E-01
    8999.122      5.083   1.760  1.32841E+00  9.53430E-01  3.74984E-01
    8999.664      5.625   1.800  1.51727E+00  9.60067E-01  5.57204E-01
    9000.219      6.180   1.840  1.66491E+00  9.66164E-01  6.98749E-01
    9000.786      6.747   1.880  1.70848E+00  9.71750E-01  7.36732E-01
    9001.365      7.326   1.920  1.65878E+00  9.76831E-01  6.81953E-01
    9001.956      7.917   1.960  1.57443E+00  9.81440E-01  5.92992E-01
    9002.560      8.521   2.000  1.49632E+00  9.85565E-01  5.10759E-01
    9003.176      9.136   2.040  1.43823E+00  9.89279E-01  4.48950E-01
    9003.804      9.764   2.080  1.38482E+00  9.92552E-01  3.92264E-01
    9004.444     10.404   2.120  1.29074E+00  9.95416E-01  2.95322E-01
    9005.096     11.057   2.160  1.16735E+00  9.97923E-01  1.69432E-01
    9005.760     11.721   2.200  1.06944E+00  1.00007E+00  6.93759E-02
    9006.437     12.398   2.240  1.01328E+00  1.00190E+00  1.13830E-02
    9007.126     13.087   2.280  9.90199E-01  1.00341E+00 -1.32121E-02
    9007.827     13.788   2.320  9.91160E-01  1.00463E+00 -1.34733E-02
    9008.540     14.501   2.360  1.00707E+00  1.00560E+00  1.47519E-03
    9009.266     15.226   2.400  1.02534E+00  1.00632E+00  1.90216E-02
    9010.003     15.964   2.440  1.03803E+00  1.00685E+00  3.11790E-02
    9010.753     16.714   2.480  1.03768E+00  1.00716E+00  3.05200E-02
    9011.515     17.476   2.520  1.02264E+00  1.00732E+00  1.53214E-02
    9012.289     18.250   2.560  1.00475E+00  1.00731E+00 -2.56286E-03
    9013.075     19.036   2.600  9.93895E-01  1.00715E+00 -1.32575E-02
    9013.874     19.835   2.640  9.90470E-01  1.00689E+00 -1.64202E-02
    9014.685     20.646   2.680  9.92359E-01  1.00651E+00 -1.41541E-02
    9015.508     21.469   2.720  9.96314E-01  1.00605E+00 -9.73604E-03
    9016.343     22.304   2.760  9.99023E-01  1.00553E+00 -6.50725E-03
    9017.190     23.151   2.800  9.98168E-01  1.00494E+00 -6.76907E-03
    9018.050     24.011   2.840  9.93321E-01  1.00430E+00 -1.09766E-02
    9018.922     24.882   2.880  9.84918E-01  1.00362E+00 -1.87024E-02
    9019.805     25.766   2.920  9.73273E-01  1.00293E+00 -2.96580E-02
    9020.702     26.662   2.960  9.58892E-01  1.00223E+00 -4.33429E-02
    9021.610     27.571   3.000  9.42583E-01  1.00151E+00 -5.89306E-02
    9022.530     28.491   3.040  9.25797E-01  1.00082E+00 -7.50184E-02
    9023.463     29.424   3.080  9.10247E-01  1.00013E+00 -8.98785E-02
    9024.408     30.369   3.120  8.97069E-01  9.99465E-01 -1.02396E-01
    9025.365     31.326   3.160  8.86431E-01  9.98837E-01 -1.12406E-01
    9026.334     32.295   3.200  8.77846E-01  9.98226E-01 -1.20380E-01
    9027.316     33.277   3.240  8.70751E-01  9.97674E-01 -1.26922E-01
    9028.309     34.270   3.280  8.64836E-01  9.97141E-01 -1.32305E-01
    9029.315     35.276   3.320  8.60544E-01  9.96672E-01 -1.36128E-01
    9030.333     36.294   3.360  8.58717E-01  9.96247E-01 -1.37530E-01
    9031.363     37.324   3.400  8.60071E-01  9.95868E-01 -1.35797E-01
    9032.406     38.367   3.440  8.64843E-01  9.95558E-01 -1.30715E-01
    9033.460     39.421   3.480  8.72764E-01  9.95296E-01 -1.22533E-01
    9034.527     40.488   3.520  8.83212E-01  9.95104E-01 -1.11892E-01
    9035.606     41.567   3.560  8.95257E-01  9.94958E-01 -9.97011E-02
    9036.697     42.658   3.600  9.08328E-01  9.94861E-01 -8.65322E-02
    9037.801     43.762   3.640  9.22332E-01  9.94834E-01 -7.25024E-02
    9038.916     44.877   3.680  9.37598E-01  9.94879E-01 -5.72802E-02
    9040.044     46.005   3.720  9.54620E-01  9.94970E-01 -4.03497E-02
    9041.184     47.145   3.760  9.73820E-01  9.95108E-01 -2.12877E-02
    9042.336     48.297   3.800  9.95040E-01  9.95313E-01 -2.73275E-04
    9043.501     49.461   3.840  1.01733E+00  9.95543E-01  2.17902E-02
    9044.677     50.638   3.880  1.03941E+00  9.95859E-01  4.35494E-02
    9045.866     51.827   3.920  1.05954E+00  9.96199E-01  6.33421E-02
    9047.067     53.028   3.960  1.07595E+00  9.96602E-01  7.93487E-02
    9048.280     54.241   4.000  1.08725E+00  9.97024E-01  9.02297E-02
    9049.505     55.466   4.040  1.09323E+00  9.97505E-01  9.57254E-02
    9050.743     56.703   4.080  1.09484E+00  9.98003E-01  9.68389E-02
    9051.992     57.953   4.120  1.09388E+00  9.98538E-01  9.53399E-02
    9053.254     59.215   4.160  1.09197E+00  9.99107E-01  9.28639E-02
    9054.528     60.489   4.200  1.08992E+00  9.99711E-01  9.02047E-02
    9055.814     61.775   4.240  1.08787E+00  1.00033E+00  8.75431E-02
    9057.113     63.074   4.280  1.08594E+00  1.00097E+00  8.49698E-02
    9058.423     64.384   4.320  1.08429E+00  1.00162E+00  8.26697E-02
    9059.746     65.707   4.360  1.08287E+00  1.00229E+00  8.05745E-02
    9061.081     67.042   4.400  1.08110E+00  1.00295E+00  7.81478E-02
    9062.429     68.389   4.440  1.07814E+00  1.00363E+00  7.45173E-02
    9063.788     69.749   4.480  1.07297E+00  1.00428E+00  6.86834E-02
    9065.160     71.120   4.520  1.06502E+00  1.00495E+00  6.00643E-02
    9066.543     72.504   4.560  1.05442E+00  1.00560E+00  4.88144E-02
    9067.939     73.900   4.600  1.04203E+00  1.00624E+00  3.57865E-02
    9069.347     75.308   4.640  1.02911E+00  1.00688E+00  2.22290E-02
    9070.768     76.729   4.680  1.01679E+00  1.00748E+00  9.30443E-03
    9072.200     78.161   4.720  1.00589E+00  1.00807E+00 -2.18334E-03
    9073.645     79.606   4.760  9.96886E-01  1.00863E+00 -1.17458E-02
    9075.102     81.063   4.800  9.90004E-01  1.00918E+00 -1.91739E-02
    9076.571     82.532   4.840  9.85126E-01  1.00969E+00 -2.45620E-02
    9078.052     84.013   4.880  9.81964E-01  1.01016E+00 -2.81938E-02
    9079.546     85.507   4.920  9.80295E-01  1.01059E+00 -3.02928E-02
    9081.052     87.013   4.960  9.80125E-01  1.01098E+00 -3.08510E-02
    9082.570     88.530   5.000  9.81518E-01  1.01132E+00 -2.98059E-02
    9084.100     90.061   5.040  9.84246E-01  1.01163E+00 -2.73860E-02
    9085.642     91.603   5.080  9.87710E-01  1.01192E+00 -2.42118E-02
    9087.196     93.157   5.120  9.91168E-01  1.01214E+00 -2.09770E-02
    9088.763     94.724   5.160  9.94178E-01  1.01233E+00 -1.81466E-02
    9090.342     96.303   5.200  9.96314E-01  1.01246E+00 -1.61476E-02
    9091.933     97.894   5.240  9.96927E-01  1.01255E+00 -1.56274E-02
    9093.536     99.497   5.280  9.95563E-01  1.01260E+00 -1.70402E-02
    9095.152    101.113   5.320  9.92456E-01  1.01259E+00 -2.01294E-02
    9096.779    102.740   5.360  9.88642E-01  1.01255E+00 -2.39046E-02
    9098.419    104.380   5.400  9.85264E-01  1.01244E+00 -2.71786E-02
    9100.071    106.032   5.440  9.83362E-01  1.01232E+00 -2.89561E-02
    9101.735    107.696   5.480  9.83364E-01  1.01213E+00 -2.87643E-02
    9103.412    109.373   5.520  9.84894E-01  1.01189E+00 -2.69999E-02
    9105.100    111.061   5.560  9.86618E-01  1.01162E+00 -2.50015E-02
    9106.801    112.762   5.600  9.86919E-01  1.01131E+00 -2.43862E-02
    9108.514    114.475   5.640  9.84883E-01  1.01097E+00 -2.60920E-02
    9110.239    116.200   5.680  9.80674E-01  1.01058E+00 -2.99094E-02
    9111.977    117.937   5.720  9.75397E-01  1.01018E+00 -3.47785E-02
    9113.726    119.687   5.760  9.70389E-01  1.00971E+00 -3.93195E-02
    9115.488    121.449   5.800  9.66900E-01  1.00923E+00 -4.23312E-02
    9117.262    123.223   5.840  9.65609E-01  1.00874E+00 -4.31346E-02
    9119.048    125.009   5.880  9.66458E-01  1.00820E+00 -4.17440E-02
    9120.846    126.807   5.920  9.68969E-01  1.00766E+00 -3.86881E-02
    9122.657    128.618   5.960  9.72595E-01  1.00712E+00 -3.45204E-02
    9124.479    130.440   6.000  9.77462E-01  1.00653E+00 -2.90646E-02
