# # comment:                                                     FEFF 9.9.1  
# # Source:
# # Structure
# # Reduced
# # space
# # abc:
# # angles:
# # sites:
# # POT  SCF 100  7.0000   0, screened core-hole, AFOLP (folp(0)= 1.150)
# # Abs   Z=29 Rmt= 1.269 Rnm= 1.339 K  shell
# # Pot 1 Z= 3 Rmt= 1.331 Rnm= 1.398
# # Pot 2 Z=29 Rmt= 1.269 Rnm= 1.339
# # Pot 3 Z=15 Rmt= 0.942 Rnm= 1.154
# # Pot 4 Z= 8 Rmt= 0.891 Rnm= 1.040
# # Gam_ch=1.729E+00 H-L exch Vi= 0.000E+00 Vr= 0.000E+00
# # Mu=-5.528E+00eV kf=2.418E+00 Vint=-1.700E+01eV Rs_int= 1.500
# FMS rfms= 9.0000
# # PATH  Rmax=-1.000,  Keep_limit= 0.00, Heap_limit 0.00  Pwcrit= 2.50%
#  S02=0.950  Temp=   0.00  Debye_temp=   0.00  Global_sig2= 0.00000
#  Energy zero shift, vr, vi    0.00000E+00   0.00000E+00
#  Curved wave amplitude ratio filter   4.000%
#     file         sig2 tot  cw amp ratio   deg  nlegs   reff  inp sig2
#     0/   0 paths used
#  xsedge+ 50, used to normalize mu           2.4710E-04
#  -----------------------------------------------------------------------
#  omega    e    k    mu    mu0     chi     @#
    8983.594     -9.338  -1.000  5.17651E-02  5.76548E-02 -5.88974E-03
    8983.893     -9.040  -0.960  5.53678E-02  6.19889E-02 -6.62106E-03
    8984.180     -8.753  -0.920  5.93694E-02  6.68194E-02 -7.45000E-03
    8984.454     -8.479  -0.880  6.38306E-02  7.22208E-02 -8.39022E-03
    8984.716     -8.217  -0.840  6.88227E-02  7.82800E-02 -9.45730E-03
    8984.966     -7.967  -0.800  7.44290E-02  8.50979E-02 -1.06689E-02
    8985.204     -7.729  -0.760  8.07457E-02  9.27905E-02 -1.20448E-02
    8985.429     -7.504  -0.720  8.78822E-02  1.01489E-01 -1.36070E-02
    8985.643     -7.290  -0.680  9.59597E-02  1.11339E-01 -1.53790E-02
    8985.844     -7.089  -0.640  1.05107E-01  1.22492E-01 -1.73855E-02
    8986.033     -6.900  -0.600  1.15451E-01  1.35101E-01 -1.96507E-02
    8986.210     -6.723  -0.560  1.27099E-01  1.49295E-01 -2.21961E-02
    8986.374     -6.559  -0.520  1.40114E-01  1.65151E-01 -2.50372E-02
    8986.527     -6.406  -0.480  1.54477E-01  1.82656E-01 -2.81785E-02
    8986.667     -6.266  -0.440  1.70046E-01  2.01654E-01 -3.16079E-02
    8986.795     -6.138  -0.400  1.86520E-01  2.21810E-01 -3.52898E-02
    8986.911     -6.022  -0.360  2.03438E-01  2.42597E-01 -3.91591E-02
    8987.014     -5.919  -0.320  2.20213E-01  2.63331E-01 -4.31179E-02
    8987.106     -5.827  -0.280  2.36210E-01  2.83249E-01 -4.70389E-02
    8987.185     -5.748  -0.240  2.50848E-01  3.01624E-01 -5.07765E-02
    8987.252     -5.681  -0.200  2.63666E-01  3.17849E-01 -5.41835E-02
    8987.307     -5.626  -0.160  2.74353E-01  3.31484E-01 -5.71316E-02
    8987.349     -5.583  -0.120  2.82721E-01  3.42252E-01 -5.95310E-02
    8987.380     -5.553  -0.080  2.88666E-01  3.50002E-01 -6.13352E-02
    8987.404     -5.528   0.000  2.93251E-01  3.56223E-01 -6.29716E-02
    8987.459     -5.474   0.120  3.04116E-01  3.70240E-01 -6.61242E-02
    8987.502     -5.431   0.160  3.12736E-01  3.81112E-01 -6.83760E-02
    8987.557     -5.376   0.200  3.23856E-01  3.94978E-01 -7.11224E-02
    8987.624     -5.309   0.240  3.37367E-01  4.11605E-01 -7.42374E-02
    8987.703     -5.230   0.280  3.53080E-01  4.30605E-01 -7.75255E-02
    8987.795     -5.138   0.320  3.70805E-01  4.51492E-01 -8.06873E-02
    8987.898     -5.035   0.360  3.90242E-01  4.73595E-01 -8.33528E-02
    8988.014     -4.919   0.400  4.10971E-01  4.96183E-01 -8.52126E-02
    8988.142     -4.791   0.440  4.32406E-01  5.18649E-01 -8.62428E-02
    8988.282     -4.651   0.480  4.53541E-01  5.40507E-01 -8.69662E-02
    8988.435     -4.498   0.520  4.72906E-01  5.61430E-01 -8.85238E-02
    8988.599     -4.334   0.560  4.88877E-01  5.81257E-01 -9.23801E-02
    8988.776     -4.157   0.600  5.00172E-01  5.99994E-01 -9.98219E-02
    8988.965     -3.968   0.640  5.06085E-01  6.17653E-01 -1.11568E-01
    8989.166     -3.767   0.680  5.06715E-01  6.34392E-01 -1.27677E-01
    8989.379     -3.553   0.720  5.02876E-01  6.50283E-01 -1.47407E-01
    8989.605     -3.328   0.760  4.96208E-01  6.65480E-01 -1.69272E-01
    8989.843     -3.090   0.800  4.88576E-01  6.80084E-01 -1.91508E-01
    8990.093     -2.840   0.840  4.82340E-01  6.94167E-01 -2.11827E-01
    8990.355     -2.578   0.880  4.80853E-01  7.07840E-01 -2.26988E-01
    8990.629     -2.304   0.920  4.86188E-01  7.21160E-01 -2.34972E-01
    8990.916     -2.017   0.960  4.96123E-01  7.34151E-01 -2.38028E-01
    8991.214     -1.719   1.000  5.05659E-01  7.46864E-01 -2.41205E-01
    8991.525     -1.408   1.040  5.12431E-01  7.59319E-01 -2.46887E-01
    8991.848     -1.085   1.080  5.19696E-01  7.71546E-01 -2.51851E-01
    8992.184     -0.749   1.120  5.33082E-01  7.83533E-01 -2.50451E-01
    8992.531     -0.402   1.160  5.55754E-01  7.95277E-01 -2.39523E-01
    8992.891     -0.042   1.200  5.87664E-01  8.06809E-01 -2.19145E-01
    8993.263      0.330   1.240  6.27939E-01  8.18099E-01 -1.90160E-01
    8993.647      0.714   1.280  6.77841E-01  8.29135E-01 -1.51294E-01
    8994.043      1.110   1.320  7.41649E-01  8.39897E-01 -9.82483E-02
    8994.451      1.518   1.360  8.23216E-01  8.50409E-01 -2.71934E-02
    8994.872      1.939   1.400  9.18187E-01  8.60631E-01  5.75556E-02
    8995.305      2.372   1.440  1.01026E+00  8.70561E-01  1.39694E-01
    8995.750      2.817   1.480  1.08578E+00  8.80179E-01  2.05598E-01
    8996.207      3.274   1.520  1.14916E+00  8.89462E-01  2.59700E-01
    8996.676      3.743   1.560  1.20064E+00  8.98428E-01  3.02214E-01
    8997.158      4.225   1.600  1.22304E+00  9.07054E-01  3.15987E-01
    8997.652      4.719   1.640  1.21437E+00  9.15318E-01  2.99056E-01
    8998.158      5.225   1.680  1.19590E+00  9.23219E-01  2.72680E-01
    8998.676      5.743   1.720  1.17858E+00  9.30736E-01  2.47843E-01
    8999.206      6.273   1.760  1.15599E+00  9.37909E-01  2.18083E-01
    8999.749      6.816   1.800  1.13382E+00  9.44698E-01  1.89117E-01
    9000.303      7.371   1.840  1.11917E+00  9.51103E-01  1.68063E-01
    9000.870      7.938   1.880  1.10805E+00  9.57145E-01  1.50910E-01
    9001.449      8.517   1.920  1.09741E+00  9.62807E-01  1.34604E-01
    9002.041      9.108   1.960  1.09052E+00  9.68090E-01  1.22433E-01
    9002.644      9.711   2.000  1.09154E+00  9.72999E-01  1.18546E-01
    9003.260     10.327   2.040  1.09942E+00  9.77555E-01  1.21861E-01
    9003.888     10.955   2.080  1.11038E+00  9.81765E-01  1.28615E-01
    9004.528     11.595   2.120  1.12173E+00  9.85613E-01  1.36119E-01
    9005.180     12.247   2.160  1.13135E+00  9.89124E-01  1.42226E-01
    9005.845     12.912   2.200  1.13686E+00  9.92324E-01  1.44532E-01
    9006.521     13.588   2.240  1.13850E+00  9.95198E-01  1.43307E-01
    9007.210     14.277   2.280  1.14071E+00  9.97754E-01  1.42956E-01
    9007.911     14.978   2.320  1.14896E+00  1.00004E+00  1.48925E-01
    9008.624     15.692   2.360  1.16261E+00  1.00204E+00  1.60572E-01
    9009.350     16.417   2.400  1.16889E+00  1.00378E+00  1.65108E-01
    9010.087     17.155   2.440  1.15436E+00  1.00527E+00  1.49090E-01
    9010.837     17.904   2.480  1.12482E+00  1.00649E+00  1.18328E-01
    9011.599     18.666   2.520  1.09662E+00  1.00752E+00  8.90985E-02
    9012.373     19.441   2.560  1.07806E+00  1.00834E+00  6.97199E-02
    9013.160     20.227   2.600  1.06925E+00  1.00894E+00  6.03128E-02
    9013.958     21.026   2.640  1.06456E+00  1.00938E+00  5.51744E-02
    9014.769     21.836   2.680  1.05700E+00  1.00963E+00  4.73619E-02
    9015.592     22.659   2.720  1.04371E+00  1.00975E+00  3.39585E-02
    9016.427     23.494   2.760  1.02452E+00  1.00971E+00  1.48152E-02
    9017.275     24.342   2.800  9.99980E-01  1.00954E+00 -9.55673E-03
    9018.134     25.201   2.840  9.71086E-01  1.00924E+00 -3.81589E-02
    9019.006     26.073   2.880  9.41807E-01  1.00886E+00 -6.70523E-02
    9019.890     26.957   2.920  9.13255E-01  1.00838E+00 -9.51298E-02
    9020.786     27.853   2.960  8.87329E-01  1.00781E+00 -1.20478E-01
    9021.694     28.761   3.000  8.64958E-01  1.00717E+00 -1.42213E-01
    9022.615     29.682   3.040  8.46682E-01  1.00648E+00 -1.59801E-01
    9023.547     30.615   3.080  8.32616E-01  1.00573E+00 -1.73112E-01
    9024.492     31.559   3.120  8.23120E-01  1.00495E+00 -1.81830E-01
    9025.449     32.516   3.160  8.18510E-01  1.00411E+00 -1.85601E-01
    9026.419     33.486   3.200  8.18854E-01  1.00326E+00 -1.84406E-01
    9027.400     34.467   3.240  8.24014E-01  1.00240E+00 -1.78387E-01
    9028.394     35.461   3.280  8.33800E-01  1.00153E+00 -1.67734E-01
    9029.400     36.467   3.320  8.47350E-01  1.00065E+00 -1.53295E-01
    9030.418     37.485   3.360  8.63836E-01  9.99776E-01 -1.35940E-01
    9031.448     38.515   3.400  8.82313E-01  9.98911E-01 -1.16598E-01
    9032.490     39.557   3.440  9.01948E-01  9.98050E-01 -9.61027E-02
    9033.545     40.612   3.480  9.22049E-01  9.97218E-01 -7.51691E-02
    9034.612     41.679   3.520  9.41965E-01  9.96397E-01 -5.44323E-02
    9035.691     42.758   3.560  9.61047E-01  9.95610E-01 -3.45633E-02
    9036.782     43.849   3.600  9.78529E-01  9.94882E-01 -1.63521E-02
    9037.885     44.952   3.640  9.93918E-01  9.94169E-01 -2.51707E-04
    9039.001     46.068   3.680  1.00715E+00  9.93493E-01  1.36610E-02
    9040.128     47.196   3.720  1.01845E+00  9.92857E-01  2.55949E-02
    9041.268     48.336   3.760  1.02826E+00  9.92261E-01  3.60026E-02
    9042.421     49.488   3.800  1.03712E+00  9.91707E-01  4.54154E-02
    9043.585     50.652   3.840  1.04539E+00  9.91216E-01  5.41691E-02
    9044.761     51.829   3.880  1.05320E+00  9.90748E-01  6.24512E-02
    9045.950     53.017   3.920  1.06068E+00  9.90344E-01  7.03330E-02
    9047.151     54.218   3.960  1.06765E+00  9.89984E-01  7.76632E-02
    9048.364     55.431   4.000  1.07356E+00  9.89690E-01  8.38745E-02
    9049.589     56.657   4.040  1.07771E+00  9.89441E-01  8.82669E-02
    9050.827     57.894   4.080  1.07935E+00  9.89214E-01  9.01391E-02
    9052.077     59.144   4.120  1.07817E+00  9.89071E-01  8.91015E-02
    9053.338     60.406   4.160  1.07419E+00  9.88950E-01  8.52424E-02
    9054.612     61.680   4.200  1.06791E+00  9.88872E-01  7.90401E-02
    9055.899     62.966   4.240  1.05994E+00  9.88857E-01  7.10844E-02
    9057.197     64.264   4.280  1.05089E+00  9.88884E-01  6.20079E-02
    9058.508     65.575   4.320  1.04141E+00  9.88951E-01  5.24560E-02
    9059.831     66.898   4.360  1.03199E+00  9.89036E-01  4.29549E-02
    9061.166     68.233   4.400  1.02313E+00  9.89181E-01  3.39454E-02
    9062.513     69.580   4.440  1.01511E+00  9.89364E-01  2.57477E-02
    9063.872     70.939   4.480  1.00810E+00  9.89564E-01  1.85395E-02
    9065.244     72.311   4.520  1.00226E+00  9.89821E-01  1.24371E-02
    9066.628     73.695   4.560  9.97656E-01  9.90090E-01  7.56608E-03
    9068.024     75.091   4.600  9.94421E-01  9.90392E-01  4.02918E-03
    9069.432     76.499   4.640  9.92517E-01  9.90704E-01  1.81309E-03
    9070.852     77.919   4.680  9.91774E-01  9.91046E-01  7.27926E-04
    9072.285     79.352   4.720  9.91760E-01  9.91396E-01  3.63310E-04
    9073.729     80.797   4.760  9.91876E-01  9.91774E-01  1.01953E-04
    9075.186     82.254   4.800  9.91408E-01  9.92156E-01 -7.47392E-04
    9076.656     83.723   4.840  9.89693E-01  9.92541E-01 -2.84837E-03
    9078.137     85.204   4.880  9.86344E-01  9.92929E-01 -6.58523E-03
    9079.630     86.698   4.920  9.81515E-01  9.93339E-01 -1.18240E-02
    9081.136     88.203   4.960  9.75802E-01  9.93726E-01 -1.79239E-02
    9082.654     89.721   5.000  9.70096E-01  9.94112E-01 -2.40154E-02
    9084.184     91.251   5.040  9.65172E-01  9.94518E-01 -2.93459E-02
    9085.726     92.793   5.080  9.61405E-01  9.94897E-01 -3.34920E-02
    9087.281     94.348   5.120  9.58879E-01  9.95247E-01 -3.63679E-02
    9088.847     95.915   5.160  9.57415E-01  9.95613E-01 -3.81980E-02
    9090.426     97.493   5.200  9.56613E-01  9.95950E-01 -3.93365E-02
    9092.017     99.085   5.240  9.56202E-01  9.96255E-01 -4.00537E-02
    9093.621    100.688   5.280  9.56273E-01  9.96572E-01 -4.02993E-02
    9095.236    102.303   5.320  9.57167E-01  9.96835E-01 -3.96680E-02
    9096.864    103.931   5.360  9.59492E-01  9.97085E-01 -3.75926E-02
    9098.503    105.571   5.400  9.63697E-01  9.97300E-01 -3.36025E-02
    9100.156    107.223   5.440  9.69977E-01  9.97501E-01 -2.75237E-02
    9101.820    108.887   5.480  9.78094E-01  9.97643E-01 -1.95488E-02
    9103.496    110.563   5.520  9.87386E-01  9.97770E-01 -1.03840E-02
    9105.185    112.252   5.560  9.96557E-01  9.97862E-01 -1.30484E-03
    9106.885    113.953   5.600  1.00402E+00  9.97939E-01  6.08308E-03
    9108.598    115.666   5.640  1.00830E+00  9.97953E-01  1.03440E-02
    9110.324    117.391   5.680  1.00871E+00  9.97928E-01  1.07799E-02
    9112.061    119.128   5.720  1.00562E+00  9.97888E-01  7.73492E-03
    9113.810    120.878   5.760  1.00023E+00  9.97810E-01  2.42296E-03
    9115.572    122.639   5.800  9.94085E-01  9.97671E-01 -3.58661E-03
    9117.346    124.413   5.840  9.88659E-01  9.97517E-01 -8.85719E-03
    9119.132    126.199   5.880  9.84947E-01  9.97325E-01 -1.23786E-02
    9120.931    127.998   5.920  9.83425E-01  9.97099E-01 -1.36734E-02
    9122.741    129.808   5.960  9.84077E-01  9.96834E-01 -1.27572E-02
    9124.564    131.631   6.000  9.86621E-01  9.96506E-01 -9.88557E-03
