# # comment:                                                     FEFF 9.9.1  
# # Source:
# # Structure
# # Reduced
# # space
# # abc:
# # angles:109.471221
# # sites:
# # POT  SCF 100  7.0000   0, screened core-hole, AFOLP (folp(0)= 1.150)
# # Abs   Z=29 Rmt= 1.204 Rnm= 1.292 K  shell
# # Pot 1 Z=69 Rmt= 1.657 Rnm= 1.701
# # Pot 2 Z=25 Rmt= 1.268 Rnm= 1.380
# # Pot 3 Z=29 Rmt= 1.204 Rnm= 1.292
# # Pot 4 Z= 8 Rmt= 1.023 Rnm= 1.095
# # Gam_ch=1.729E+00 H-L exch Vi= 0.000E+00 Vr= 0.000E+00
# # Mu=-9.982E+00eV kf=2.195E+00 Vint=-1.818E+01eV Rs_int= 1.653
# FMS rfms= 9.0000
# # PATH  Rmax=-1.000,  Keep_limit= 0.00, Heap_limit 0.00  Pwcrit= 2.50%
#  S02=0.950  Temp=   0.00  Debye_temp=   0.00  Global_sig2= 0.00000
#  Energy zero shift, vr, vi    0.00000E+00   0.00000E+00
#  Curved wave amplitude ratio filter   4.000%
#     file         sig2 tot  cw amp ratio   deg  nlegs   reff  inp sig2
#     0/   0 paths used
#  xsedge+ 50, used to normalize mu           2.4827E-04
#  -----------------------------------------------------------------------
#  omega    e    k    mu    mu0     chi     @#
    8984.487    -13.791  -1.000  3.46818E-02  5.06983E-02 -1.60165E-02
    8984.786    -13.493  -0.960  3.63570E-02  5.42832E-02 -1.79262E-02
    8985.072    -13.206  -0.920  3.81417E-02  5.82583E-02 -2.01166E-02
    8985.346    -12.932  -0.880  4.00460E-02  6.26806E-02 -2.26346E-02
    8985.609    -12.670  -0.840  4.20806E-02  6.76159E-02 -2.55353E-02
    8985.859    -12.420  -0.800  4.42580E-02  7.31407E-02 -2.88827E-02
    8986.096    -12.182  -0.760  4.65917E-02  7.93426E-02 -3.27509E-02
    8986.322    -11.957  -0.720  4.90965E-02  8.63203E-02 -3.72238E-02
    8986.535    -11.743  -0.680  5.17880E-02  9.41825E-02 -4.23945E-02
    8986.736    -11.542  -0.640  5.46820E-02  1.03044E-01 -4.83618E-02
    8986.925    -11.353  -0.600  5.77922E-02  1.13017E-01 -5.52244E-02
    8987.102    -11.176  -0.560  6.11278E-02  1.24196E-01 -6.30685E-02
    8987.267    -11.012  -0.520  6.46886E-02  1.36639E-01 -7.19509E-02
    8987.419    -10.859  -0.480  6.84585E-02  1.50332E-01 -8.18733E-02
    8987.559    -10.719  -0.440  7.23992E-02  1.65154E-01 -9.27545E-02
    8987.687    -10.591  -0.400  7.64439E-02  1.80849E-01 -1.04405E-01
    8987.803    -10.475  -0.360  8.04977E-02  1.97016E-01 -1.16518E-01
    8987.907    -10.372  -0.320  8.44446E-02  2.13133E-01 -1.28688E-01
    8987.998    -10.280  -0.280  8.81629E-02  2.28620E-01 -1.40457E-01
    8988.077    -10.201  -0.240  9.15421E-02  2.42918E-01 -1.51376E-01
    8988.144    -10.134  -0.200  9.44956E-02  2.55559E-01 -1.61064E-01
    8988.199    -10.079  -0.160  9.69642E-02  2.66198E-01 -1.69234E-01
    8988.242    -10.036  -0.120  9.89112E-02  2.74612E-01 -1.75701E-01
    8988.273    -10.006  -0.080  1.00315E-01  2.80677E-01 -1.80361E-01
    8988.297     -9.982   0.000  1.01450E-01  2.85551E-01 -1.84101E-01
    8988.352     -9.927   0.120  1.04089E-01  2.96554E-01 -1.92466E-01
    8988.394     -9.884   0.160  1.06096E-01  3.05102E-01 -1.99006E-01
    8988.449     -9.829   0.200  1.08676E-01  3.16046E-01 -2.07370E-01
    8988.516     -9.762   0.240  1.11799E-01  3.29208E-01 -2.17410E-01
    8988.596     -9.683   0.280  1.15476E-01  3.44361E-01 -2.28885E-01
    8988.687     -9.591   0.320  1.19767E-01  3.61136E-01 -2.41370E-01
    8988.791     -9.488   0.360  1.24714E-01  3.79058E-01 -2.54344E-01
    8988.906     -9.372   0.400  1.30521E-01  3.97658E-01 -2.67137E-01
    8989.035     -9.244   0.440  1.37383E-01  4.16450E-01 -2.79067E-01
    8989.175     -9.104   0.480  1.45576E-01  4.35089E-01 -2.89513E-01
    8989.327     -8.951   0.520  1.55290E-01  4.53377E-01 -2.98086E-01
    8989.492     -8.787   0.560  1.66468E-01  4.71172E-01 -3.04704E-01
    8989.668     -8.610   0.600  1.78731E-01  4.88467E-01 -3.09736E-01
    8989.857     -8.421   0.640  1.91473E-01  5.05310E-01 -3.13837E-01
    8990.059     -8.220   0.680  2.04182E-01  5.21762E-01 -3.17580E-01
    8990.272     -8.006   0.720  2.16766E-01  5.37897E-01 -3.21131E-01
    8990.498     -7.781   0.760  2.29632E-01  5.53784E-01 -3.24152E-01
    8990.735     -7.543   0.800  2.43494E-01  5.69507E-01 -3.26013E-01
    8990.985     -7.293   0.840  2.59820E-01  5.85114E-01 -3.25294E-01
    8991.247     -7.031   0.880  2.81909E-01  6.00625E-01 -3.18716E-01
    8991.522     -6.757   0.920  3.15865E-01  6.16107E-01 -3.00242E-01
    8991.808     -6.470   0.960  3.69097E-01  6.31554E-01 -2.62456E-01
    8992.107     -6.172   1.000  4.46465E-01  6.46952E-01 -2.00487E-01
    8992.418     -5.861   1.040  5.40227E-01  6.62320E-01 -1.22092E-01
    8992.741     -5.538   1.080  6.20548E-01  6.77648E-01 -5.71008E-02
    8993.076     -5.202   1.120  6.63475E-01  6.92903E-01 -2.94277E-02
    8993.424     -4.855   1.160  6.91375E-01  7.08084E-01 -1.67089E-02
    8993.783     -4.495   1.200  7.33352E-01  7.23147E-01  1.02045E-02
    8994.155     -4.123   1.240  7.64227E-01  7.38088E-01  2.61390E-02
    8994.539     -3.739   1.280  7.29484E-01  7.52837E-01 -2.33537E-02
    8994.935     -3.343   1.320  6.37157E-01  7.67384E-01 -1.30227E-01
    8995.344     -2.935   1.360  5.50744E-01  7.81697E-01 -2.30953E-01
    8995.764     -2.514   1.400  5.08339E-01  7.95745E-01 -2.87406E-01
    8996.197     -2.081   1.440  5.11962E-01  8.09475E-01 -2.97513E-01
    8996.642     -1.636   1.480  5.52328E-01  8.22894E-01 -2.70566E-01
    8997.099     -1.179   1.520  6.10295E-01  8.35931E-01 -2.25636E-01
    8997.569     -0.710   1.560  6.63394E-01  8.48595E-01 -1.85201E-01
    8998.050     -0.228   1.600  7.15024E-01  8.60834E-01 -1.45809E-01
    8998.544      0.266   1.640  7.69055E-01  8.72640E-01 -1.03585E-01
    8999.050      0.772   1.680  8.05262E-01  8.84002E-01 -7.87401E-02
    8999.568      1.290   1.720  8.14167E-01  8.94874E-01 -8.07076E-02
    9000.099      1.820   1.760  8.25726E-01  9.05251E-01 -7.95250E-02
    9000.641      2.363   1.800  8.63953E-01  9.15146E-01 -5.11933E-02
    9001.196      2.918   1.840  9.13445E-01  9.24517E-01 -1.10726E-02
    9001.763      3.484   1.880  9.44915E-01  9.33382E-01  1.15330E-02
    9002.342      4.064   1.920  9.62900E-01  9.41720E-01  2.11803E-02
    9002.933      4.655   1.960  1.01127E+00  9.49552E-01  6.17131E-02
    9003.537      5.258   2.000  1.10138E+00  9.56880E-01  1.44503E-01
    9004.153      5.874   2.040  1.17706E+00  9.63665E-01  2.13393E-01
    9004.780      6.502   2.080  1.20330E+00  9.69974E-01  2.33325E-01
    9005.420      7.142   2.120  1.21285E+00  9.75790E-01  2.37065E-01
    9006.073      7.794   2.160  1.23626E+00  9.81120E-01  2.55143E-01
    9006.737      8.459   2.200  1.29301E+00  9.85971E-01  3.07036E-01
    9007.414      9.135   2.240  1.38387E+00  9.90392E-01  3.93478E-01
    9008.103      9.824   2.280  1.45658E+00  9.94368E-01  4.62208E-01
    9008.804     10.525   2.320  1.46522E+00  9.97907E-01  4.67313E-01
    9009.517     11.239   2.360  1.42916E+00  1.00106E+00  4.28103E-01
    9010.242     11.964   2.400  1.37701E+00  1.00382E+00  3.73192E-01
    9010.980     12.702   2.440  1.31458E+00  1.00621E+00  3.08375E-01
    9011.730     13.451   2.480  1.24175E+00  1.00824E+00  2.33514E-01
    9012.492     14.213   2.520  1.17037E+00  1.00996E+00  1.60410E-01
    9013.266     14.988   2.560  1.11335E+00  1.01137E+00  1.01981E-01
    9014.052     15.774   2.600  1.07494E+00  1.01249E+00  6.24489E-02
    9014.851     16.573   2.640  1.04700E+00  1.01333E+00  3.36666E-02
    9015.662     17.383   2.680  1.01872E+00  1.01393E+00  4.79084E-03
    9016.485     18.206   2.720  9.91093E-01  1.01430E+00 -2.32106E-02
    9017.320     19.041   2.760  9.68768E-01  1.01445E+00 -4.56835E-02
    9018.167     19.889   2.800  9.53561E-01  1.01442E+00 -6.08587E-02
    9019.027     20.748   2.840  9.44910E-01  1.01420E+00 -6.92860E-02
    9019.898     21.620   2.880  9.39405E-01  1.01381E+00 -7.44051E-02
    9020.782     22.504   2.920  9.32993E-01  1.01329E+00 -8.02978E-02
    9021.678     23.400   2.960  9.23161E-01  1.01264E+00 -8.94838E-02
    9022.587     24.308   3.000  9.09486E-01  1.01188E+00 -1.02395E-01
    9023.507     25.229   3.040  8.93361E-01  1.01101E+00 -1.17645E-01
    9024.440     26.162   3.080  8.77504E-01  1.01007E+00 -1.32561E-01
    9025.385     27.106   3.120  8.64766E-01  1.00903E+00 -1.44260E-01
    9026.342     28.063   3.160  8.56863E-01  1.00796E+00 -1.51094E-01
    9027.311     29.033   3.200  8.54197E-01  1.00682E+00 -1.52624E-01
    9028.293     30.014   3.240  8.56241E-01  1.00564E+00 -1.49402E-01
    9029.286     31.008   3.280  8.61415E-01  1.00443E+00 -1.43014E-01
    9030.292     32.014   3.320  8.68295E-01  1.00320E+00 -1.34910E-01
    9031.310     33.032   3.360  8.76163E-01  1.00198E+00 -1.25813E-01
    9032.340     34.062   3.400  8.84582E-01  1.00075E+00 -1.16164E-01
    9033.383     35.104   3.440  8.92843E-01  9.99516E-01 -1.06673E-01
    9034.437     36.159   3.480  9.00281E-01  9.98292E-01 -9.80108E-02
    9035.504     37.226   3.520  9.06637E-01  9.97098E-01 -9.04607E-02
    9036.583     38.305   3.560  9.12377E-01  9.95936E-01 -8.35589E-02
    9037.674     39.396   3.600  9.18793E-01  9.94789E-01 -7.59952E-02
    9038.778     40.499   3.640  9.27331E-01  9.93699E-01 -6.63681E-02
    9039.893     41.615   3.680  9.38772E-01  9.92626E-01 -5.38539E-02
    9041.021     42.743   3.720  9.53012E-01  9.91594E-01 -3.85822E-02
    9042.161     43.883   3.760  9.69287E-01  9.90627E-01 -2.13399E-02
    9043.313     45.035   3.800  9.86147E-01  9.89704E-01 -3.55673E-03
    9044.477     46.199   3.840  1.00181E+00  9.88825E-01  1.29848E-02
    9045.654     47.376   3.880  1.01455E+00  9.88013E-01  2.65356E-02
    9046.843     48.564   3.920  1.02281E+00  9.87248E-01  3.55653E-02
    9048.044     49.765   3.960  1.02562E+00  9.86530E-01  3.90921E-02
    9049.257     50.978   4.000  1.02305E+00  9.85880E-01  3.71702E-02
    9050.482     52.204   4.040  1.01659E+00  9.85280E-01  3.13086E-02
    9051.719     53.441   4.080  1.00903E+00  9.84750E-01  2.42823E-02
    9052.969     54.691   4.120  1.00355E+00  9.84292E-01  1.92558E-02
    9054.231     55.953   4.160  1.00264E+00  9.83881E-01  1.87628E-02
    9055.505     57.227   4.200  1.00727E+00  9.83518E-01  2.37493E-02
    9056.791     58.513   4.240  1.01647E+00  9.83224E-01  3.32458E-02
    9058.090     59.811   4.280  1.02793E+00  9.82977E-01  4.49576E-02
    9059.400     61.122   4.320  1.03919E+00  9.82799E-01  5.63956E-02
    9060.723     62.445   4.360  1.04852E+00  9.82667E-01  6.58583E-02
    9062.058     63.780   4.400  1.05527E+00  9.82580E-01  7.26901E-02
    9063.405     65.127   4.440  1.05933E+00  9.82559E-01  7.67698E-02
    9064.765     66.486   4.480  1.06008E+00  9.82583E-01  7.74982E-02
    9066.136     67.858   4.520  1.05664E+00  9.82649E-01  7.39919E-02
    9067.520     69.242   4.560  1.04904E+00  9.82758E-01  6.62801E-02
    9068.916     70.638   4.600  1.03907E+00  9.82928E-01  5.61418E-02
    9070.324     72.046   4.640  1.02963E+00  9.83115E-01  4.65189E-02
    9071.745     73.466   4.680  1.02341E+00  9.83339E-01  4.00693E-02
    9073.177     74.899   4.720  1.02156E+00  9.83600E-01  3.79625E-02
    9074.622     76.344   4.760  1.02361E+00  9.83895E-01  3.97105E-02
    9076.079     77.801   4.800  1.02790E+00  9.84201E-01  4.37026E-02
    9077.548     79.270   4.840  1.03255E+00  9.84539E-01  4.80072E-02
    9079.029     80.751   4.880  1.03588E+00  9.84886E-01  5.09987E-02
    9080.523     82.244   4.920  1.03675E+00  9.85264E-01  5.14866E-02
    9082.029     83.750   4.960  1.03434E+00  9.85670E-01  4.86690E-02
    9083.546     85.268   5.000  1.02843E+00  9.86059E-01  4.23758E-02
    9085.077     86.798   5.040  1.01974E+00  9.86473E-01  3.32680E-02
    9086.619     88.340   5.080  1.00943E+00  9.86891E-01  2.25434E-02
    9088.173     89.895   5.120  9.98528E-01  9.87333E-01  1.11952E-02
    9089.740     91.462   5.160  9.87319E-01  9.87751E-01 -4.31877E-04
    9091.319     93.040   5.200  9.75632E-01  9.88164E-01 -1.25317E-02
    9092.910     94.632   5.240  9.62971E-01  9.88550E-01 -2.55796E-02
    9094.513     96.235   5.280  9.48959E-01  9.88953E-01 -3.99941E-02
    9096.129     97.850   5.320  9.33695E-01  9.89330E-01 -5.56348E-02
    9097.756     99.478   5.360  9.18201E-01  9.89698E-01 -7.14975E-02
    9099.396    101.118   5.400  9.04027E-01  9.90036E-01 -8.60091E-02
    9101.048    102.770   5.440  8.92812E-01  9.90366E-01 -9.75544E-02
    9102.712    104.434   5.480  8.85748E-01  9.90688E-01 -1.04940E-01
    9104.389    106.110   5.520  8.83298E-01  9.90975E-01 -1.07677E-01
    9106.077    107.799   5.560  8.85331E-01  9.91226E-01 -1.05895E-01
    9107.778    109.500   5.600  8.91517E-01  9.91442E-01 -9.99251E-02
    9109.491    111.213   5.640  9.01807E-01  9.91644E-01 -8.98369E-02
    9111.216    112.938   5.680  9.16449E-01  9.91810E-01 -7.53605E-02
    9112.953    114.675   5.720  9.35573E-01  9.91938E-01 -5.63659E-02
    9114.703    116.425   5.760  9.58541E-01  9.92028E-01 -3.34866E-02
    9116.465    118.186   5.800  9.83611E-01  9.92078E-01 -8.46760E-03
    9118.239    119.960   5.840  1.00822E+00  9.92091E-01  1.61308E-02
    9120.025    121.746   5.880  1.02992E+00  9.92090E-01  3.78348E-02
    9121.823    123.545   5.920  1.04685E+00  9.92027E-01  5.48207E-02
    9123.634    125.355   5.960  1.05761E+00  9.91948E-01  6.56640E-02
    9125.456    127.178   6.000  1.06072E+00  9.91809E-01  6.89132E-02
