# # comment:                                                     FEFF 9.9.1  
# # Source:
# # Structure
# # Reduced
# # space
# # abc:
# # angles:
# # sites:
# # POT  SCF 100  7.0000   0, screened core-hole, AFOLP (folp(0)= 1.150)
# # Abs   Z=29 Rmt= 1.355 Rnm= 1.413 K  shell
# # Pot 1 Z= 3 Rmt= 1.259 Rnm= 1.318
# # Pot 2 Z=29 Rmt= 1.342 Rnm= 1.402
# # Pot 3 Z=15 Rmt= 0.946 Rnm= 1.156
# # Pot 4 Z= 8 Rmt= 0.941 Rnm= 1.040
# # Gam_ch=1.729E+00 H-L exch Vi= 0.000E+00 Vr= 0.000E+00
# # Mu=-6.383E+00eV kf=2.371E+00 Vint=-1.736E+01eV Rs_int= 1.529
# FMS rfms= 9.0000
# # PATH  Rmax=-1.000,  Keep_limit= 0.00, Heap_limit 0.00  Pwcrit= 2.50%
#  S02=0.950  Temp=   0.00  Debye_temp=   0.00  Global_sig2= 0.00000
#  Energy zero shift, vr, vi    0.00000E+00   0.00000E+00
#  Curved wave amplitude ratio filter   4.000%
#     file         sig2 tot  cw amp ratio   deg  nlegs   reff  inp sig2
#     0/   0 paths used
#  xsedge+ 50, used to normalize mu           2.4678E-04
#  -----------------------------------------------------------------------
#  omega    e    k    mu    mu0     chi     @#
    8983.760    -10.193  -1.000  5.12321E-02  5.49579E-02 -3.72579E-03
    8984.059     -9.894  -0.960  5.46460E-02  5.89889E-02 -4.34294E-03
    8984.346     -9.608  -0.920  5.84055E-02  6.34732E-02 -5.06767E-03
    8984.620     -9.334  -0.880  6.25583E-02  6.84781E-02 -5.91979E-03
    8984.882     -9.072  -0.840  6.71592E-02  7.40821E-02 -6.92293E-03
    8985.132     -8.822  -0.800  7.22712E-02  8.03763E-02 -8.10504E-03
    8985.370     -8.584  -0.760  7.79662E-02  8.74652E-02 -9.49897E-03
    8985.595     -8.358  -0.720  8.43244E-02  9.54671E-02 -1.11427E-02
    8985.809     -8.145  -0.680  9.14334E-02  1.04513E-01 -1.30792E-02
    8986.010     -7.944  -0.640  9.93846E-02  1.14739E-01 -1.53547E-02
    8986.199     -7.755  -0.600  1.08266E-01  1.26283E-01 -1.80165E-02
    8986.376     -7.578  -0.560  1.18153E-01  1.39259E-01 -2.11065E-02
    8986.540     -7.413  -0.520  1.29085E-01  1.53738E-01 -2.46526E-02
    8986.693     -7.261  -0.480  1.41049E-01  1.69705E-01 -2.86560E-02
    8986.833     -7.121  -0.440  1.53943E-01  1.87019E-01 -3.30761E-02
    8986.961     -6.993  -0.400  1.67558E-01  2.05377E-01 -3.78191E-02
    8987.077     -6.877  -0.360  1.81567E-01  2.24302E-01 -4.27345E-02
    8987.180     -6.773  -0.320  1.95545E-01  2.43173E-01 -4.76282E-02
    8987.272     -6.682  -0.280  2.09013E-01  2.61303E-01 -5.22904E-02
    8987.351     -6.603  -0.240  2.21502E-01  2.78032E-01 -5.65301E-02
    8987.418     -6.536  -0.200  2.32605E-01  2.92808E-01 -6.02032E-02
    8987.473     -6.481  -0.160  2.42007E-01  3.05230E-01 -6.32236E-02
    8987.515     -6.438  -0.120  2.49486E-01  3.15044E-01 -6.55578E-02
    8987.546     -6.408  -0.080  2.54903E-01  3.22110E-01 -6.72074E-02
    8987.570     -6.383   0.000  2.59273E-01  3.27786E-01 -6.85124E-02
    8987.625     -6.328   0.120  2.69234E-01  3.40578E-01 -7.13440E-02
    8987.668     -6.286   0.160  2.77012E-01  3.50498E-01 -7.34863E-02
    8987.723     -6.231   0.200  2.87070E-01  3.63167E-01 -7.60969E-02
    8987.790     -6.164   0.240  2.99354E-01  3.78381E-01 -7.90266E-02
    8987.869     -6.084   0.280  3.13752E-01  3.95798E-01 -8.20460E-02
    8987.960     -5.993   0.320  3.30144E-01  4.14991E-01 -8.48466E-02
    8988.064     -5.889   0.360  3.48293E-01  4.35342E-01 -8.70499E-02
    8988.180     -5.774   0.400  3.67995E-01  4.56240E-01 -8.82458E-02
    8988.308     -5.646   0.440  3.89049E-01  4.77130E-01 -8.80805E-02
    8988.448     -5.505   0.480  4.11299E-01  4.97599E-01 -8.63001E-02
    8988.601     -5.353   0.520  4.34397E-01  5.17313E-01 -8.29158E-02
    8988.765     -5.188   0.560  4.57837E-01  5.36171E-01 -7.83347E-02
    8988.942     -5.012   0.600  4.80581E-01  5.54164E-01 -7.35831E-02
    8989.131     -4.823   0.640  5.00925E-01  5.71333E-01 -7.04083E-02
    8989.332     -4.621   0.680  5.16679E-01  5.87764E-01 -7.10859E-02
    8989.545     -4.408   0.720  5.26027E-01  6.03599E-01 -7.75722E-02
    8989.771     -4.183   0.760  5.28754E-01  6.18915E-01 -9.01606E-02
    8990.009     -3.945   0.800  5.27228E-01  6.33800E-01 -1.06572E-01
    8990.259     -3.695   0.840  5.25906E-01  6.48374E-01 -1.22468E-01
    8990.521     -3.433   0.880  5.29763E-01  6.62676E-01 -1.32913E-01
    8990.795     -3.158   0.920  5.42272E-01  6.76755E-01 -1.34484E-01
    8991.082     -2.872   0.960  5.63185E-01  6.90685E-01 -1.27501E-01
    8991.380     -2.573   1.000  5.87353E-01  7.04470E-01 -1.17117E-01
    8991.691     -2.262   1.040  6.06894E-01  7.18102E-01 -1.11208E-01
    8992.014     -1.939   1.080  6.17806E-01  7.31648E-01 -1.13841E-01
    8992.350     -1.604   1.120  6.25064E-01  7.45066E-01 -1.20002E-01
    8992.697     -1.256   1.160  6.39215E-01  7.58349E-01 -1.19133E-01
    8993.057     -0.897   1.200  6.68873E-01  7.71523E-01 -1.02651E-01
    8993.429     -0.525   1.240  7.16493E-01  7.84534E-01 -6.80414E-02
    8993.813     -0.141   1.280  7.77485E-01  7.97380E-01 -1.98957E-02
    8994.209      0.255   1.320  8.43083E-01  8.10060E-01  3.30232E-02
    8994.617      0.664   1.360  9.06776E-01  8.22511E-01  8.42657E-02
    8995.038      1.084   1.400  9.66392E-01  8.34745E-01  1.31647E-01
    8995.471      1.517   1.440  1.02076E+00  8.46737E-01  1.74023E-01
    8995.916      1.962   1.480  1.07198E+00  8.58459E-01  2.13519E-01
    8996.373      2.419   1.520  1.12742E+00  8.69863E-01  2.57561E-01
    8996.842      2.889   1.560  1.18915E+00  8.80962E-01  3.08190E-01
    8997.324      3.370   1.600  1.24905E+00  8.91725E-01  3.57324E-01
    8997.818      3.864   1.640  1.30059E+00  9.02128E-01  3.98461E-01
    8998.324      4.370   1.680  1.33854E+00  9.12140E-01  4.26403E-01
    8998.842      4.888   1.720  1.35395E+00  9.21775E-01  4.32170E-01
    8999.372      5.419   1.760  1.34390E+00  9.30968E-01  4.12928E-01
    8999.915      5.961   1.800  1.30385E+00  9.39754E-01  3.64096E-01
    9000.469      6.516   1.840  1.23121E+00  9.48107E-01  2.83108E-01
    9001.036      7.083   1.880  1.14827E+00  9.56026E-01  1.92244E-01
    9001.615      7.662   1.920  1.08241E+00  9.63467E-01  1.18939E-01
    9002.207      8.253   1.960  1.04549E+00  9.70469E-01  7.50234E-02
    9002.810      8.857   2.000  1.03364E+00  9.77013E-01  5.66269E-02
    9003.426      9.472   2.040  1.03753E+00  9.83118E-01  5.44099E-02
    9004.054     10.100   2.080  1.04704E+00  9.88745E-01  5.82963E-02
    9004.694     10.740   2.120  1.05383E+00  9.93919E-01  5.99059E-02
    9005.346     11.393   2.160  1.05250E+00  9.98663E-01  5.38401E-02
    9006.011     12.057   2.200  1.03999E+00  1.00296E+00  3.70332E-02
    9006.687     12.734   2.240  1.01919E+00  1.00684E+00  1.23522E-02
    9007.376     13.423   2.280  9.98332E-01  1.01030E+00 -1.19717E-02
    9008.077     14.124   2.320  9.84391E-01  1.01338E+00 -2.89892E-02
    9008.790     14.837   2.360  9.76684E-01  1.01606E+00 -3.93726E-02
    9009.516     15.562   2.400  9.69164E-01  1.01834E+00 -4.91752E-02
    9010.253     16.300   2.440  9.58060E-01  1.02030E+00 -6.22379E-02
    9011.003     17.050   2.480  9.45837E-01  1.02190E+00 -7.60630E-02
    9011.765     17.812   2.520  9.37731E-01  1.02318E+00 -8.54447E-02
    9012.539     18.586   2.560  9.35616E-01  1.02413E+00 -8.85167E-02
    9013.326     19.372   2.600  9.38361E-01  1.02482E+00 -8.64621E-02
    9014.124     20.171   2.640  9.44338E-01  1.02523E+00 -8.08965E-02
    9014.935     20.982   2.680  9.51552E-01  1.02542E+00 -7.38664E-02
    9015.758     21.805   2.720  9.56388E-01  1.02534E+00 -6.89539E-02
    9016.593     22.640   2.760  9.54386E-01  1.02508E+00 -7.06899E-02
    9017.441     23.487   2.800  9.46351E-01  1.02459E+00 -7.82356E-02
    9018.300     24.347   2.840  9.38605E-01  1.02395E+00 -8.53421E-02
    9019.172     25.218   2.880  9.34362E-01  1.02312E+00 -8.87628E-02
    9020.056     26.102   2.920  9.33887E-01  1.02217E+00 -8.82814E-02
    9020.952     26.998   2.960  9.35553E-01  1.02111E+00 -8.55554E-02
    9021.860     27.907   3.000  9.38143E-01  1.01991E+00 -8.17667E-02
    9022.781     28.827   3.040  9.41063E-01  1.01862E+00 -7.75596E-02
    9023.713     29.760   3.080  9.44134E-01  1.01727E+00 -7.31408E-02
    9024.658     30.705   3.120  9.47498E-01  1.01585E+00 -6.83543E-02
    9025.615     31.662   3.160  9.51392E-01  1.01436E+00 -6.29699E-02
    9026.585     32.631   3.200  9.55825E-01  1.01285E+00 -5.70259E-02
    9027.566     33.612   3.240  9.60730E-01  1.01131E+00 -5.05752E-02
    9028.560     34.606   3.280  9.65896E-01  1.00975E+00 -4.38565E-02
    9029.566     35.612   3.320  9.70990E-01  1.00820E+00 -3.72071E-02
    9030.584     36.630   3.360  9.75850E-01  1.00664E+00 -3.07950E-02
    9031.614     37.660   3.400  9.80618E-01  1.00512E+00 -2.45004E-02
    9032.656     38.703   3.440  9.85596E-01  1.00360E+00 -1.80084E-02
    9033.711     39.757   3.480  9.91282E-01  1.00213E+00 -1.08461E-02
    9034.778     40.824   3.520  9.98068E-01  1.00071E+00 -2.64481E-03
    9035.857     41.903   3.560  1.00608E+00  9.99319E-01  6.75641E-03
    9036.948     42.994   3.600  1.01528E+00  9.97991E-01  1.72837E-02
    9038.051     44.098   3.640  1.02544E+00  9.96714E-01  2.87247E-02
    9039.167     45.213   3.680  1.03636E+00  9.95530E-01  4.08308E-02
    9040.294     46.341   3.720  1.04766E+00  9.94380E-01  5.32791E-02
    9041.434     47.481   3.760  1.05908E+00  9.93326E-01  6.57576E-02
    9042.587     48.633   3.800  1.07018E+00  9.92350E-01  7.78304E-02
    9043.751     49.797   3.840  1.08028E+00  9.91434E-01  8.88504E-02
    9044.927     50.974   3.880  1.08869E+00  9.90618E-01  9.80710E-02
    9046.116     52.163   3.920  1.09464E+00  9.89883E-01  1.04757E-01
    9047.317     53.363   3.960  1.09748E+00  9.89210E-01  1.08274E-01
    9048.530     54.577   4.000  1.09682E+00  9.88641E-01  1.08179E-01
    9049.755     55.802   4.040  1.09264E+00  9.88176E-01  1.04465E-01
    9050.993     57.039   4.080  1.08515E+00  9.87772E-01  9.73790E-02
    9052.243     58.289   4.120  1.07479E+00  9.87450E-01  8.73446E-02
    9053.504     59.551   4.160  1.06207E+00  9.87229E-01  7.48398E-02
    9054.778     60.825   4.200  1.04745E+00  9.87068E-01  6.03809E-02
    9056.065     62.111   4.240  1.03145E+00  9.87008E-01  4.44391E-02
    9057.363     63.410   4.280  1.01457E+00  9.87006E-01  2.75601E-02
    9058.674     64.720   4.320  9.97421E-01  9.87081E-01  1.03404E-02
    9059.997     66.043   4.360  9.80615E-01  9.87232E-01 -6.61739E-03
    9061.332     67.378   4.400  9.64830E-01  9.87461E-01 -2.26307E-02
    9062.679     68.725   4.440  9.50769E-01  9.87763E-01 -3.69935E-02
    9064.038     70.085   4.480  9.38929E-01  9.88113E-01 -4.91844E-02
    9065.410     71.456   4.520  9.29592E-01  9.88511E-01 -5.89195E-02
    9066.794     72.840   4.560  9.22825E-01  9.88977E-01 -6.61513E-02
    9068.190     74.236   4.600  9.18489E-01  9.89487E-01 -7.09981E-02
    9069.598     75.644   4.640  9.16449E-01  9.90038E-01 -7.35896E-02
    9071.018     77.065   4.680  9.16658E-01  9.90629E-01 -7.39710E-02
    9072.451     78.497   4.720  9.19069E-01  9.91258E-01 -7.21890E-02
    9073.895     79.942   4.760  9.23637E-01  9.91921E-01 -6.82840E-02
    9075.352     81.399   4.800  9.30182E-01  9.92595E-01 -6.24135E-02
    9076.822     82.868   4.840  9.38359E-01  9.93300E-01 -5.49406E-02
    9078.303     84.349   4.880  9.47621E-01  9.94009E-01 -4.63883E-02
    9079.796     85.843   4.920  9.57343E-01  9.94722E-01 -3.73789E-02
    9081.302     87.349   4.960  9.66889E-01  9.95457E-01 -2.85683E-02
    9082.820     88.866   5.000  9.75719E-01  9.96168E-01 -2.04493E-02
    9084.350     90.396   5.040  9.83579E-01  9.96874E-01 -1.32954E-02
    9085.892     91.939   5.080  9.90438E-01  9.97575E-01 -7.13666E-03
    9087.447     93.493   5.120  9.96401E-01  9.98244E-01 -1.84340E-03
    9089.013     95.060   5.160  1.00167E+00  9.98902E-01  2.76459E-03
    9090.592     96.639   5.200  1.00637E+00  9.99525E-01  6.84693E-03
    9092.183     98.230   5.240  1.01063E+00  1.00011E+00  1.05199E-02
    9093.787     99.833   5.280  1.01447E+00  1.00065E+00  1.38145E-02
    9095.402    101.448   5.320  1.01785E+00  1.00118E+00  1.66637E-02
    9097.030    103.076   5.360  1.02051E+00  1.00165E+00  1.88677E-02
    9098.669    104.716   5.400  1.02215E+00  1.00206E+00  2.00855E-02
    9100.321    106.368   5.440  1.02235E+00  1.00244E+00  1.99189E-02
    9101.986    108.032   5.480  1.02084E+00  1.00274E+00  1.81001E-02
    9103.662    109.709   5.520  1.01764E+00  1.00299E+00  1.46482E-02
    9105.351    111.397   5.560  1.01311E+00  1.00320E+00  9.90402E-03
    9107.051    113.098   5.600  1.00785E+00  1.00334E+00  4.51215E-03
    9108.764    114.811   5.640  1.00273E+00  1.00343E+00 -6.99465E-04
    9110.490    116.536   5.680  9.98543E-01  1.00344E+00 -4.89449E-03
    9112.227    118.273   5.720  9.95959E-01  1.00338E+00 -7.41758E-03
    9113.976    120.023   5.760  9.95336E-01  1.00327E+00 -7.92940E-03
    9115.738    121.785   5.800  9.96665E-01  1.00308E+00 -6.41870E-03
    9117.512    123.559   5.840  9.99743E-01  1.00285E+00 -3.10945E-03
    9119.298    125.345   5.880  1.00419E+00  1.00255E+00  1.63527E-03
    9121.097    127.143   5.920  1.00958E+00  1.00221E+00  7.36905E-03
    9122.907    128.954   5.960  1.01534E+00  1.00179E+00  1.35495E-02
    9124.730    130.776   6.000  1.02088E+00  1.00128E+00  1.95921E-02
