# # comment:                                                     FEFF 9.9.1  
# # Source:
# # Structure
# # Reduced
# # space
# # abc:
# # angles:
# # sites:
# # POT  SCF 100  7.0000   0, screened core-hole, AFOLP (folp(0)= 1.150)
# # Abs   Z=29 Rmt= 1.251 Rnm= 1.327 K  shell
# # Pot 1 Z= 3 Rmt= 1.228 Rnm= 1.294
# # Pot 2 Z=29 Rmt= 1.251 Rnm= 1.327
# # Pot 3 Z= 8 Rmt= 1.045 Rnm= 1.108
# # Pot 4 Z= 9 Rmt= 1.073 Rnm= 1.131
# # Gam_ch=1.729E+00 H-L exch Vi= 0.000E+00 Vr= 0.000E+00
# # Mu=-5.572E+00eV kf=1.880E+00 Vint=-1.565E+01eV Rs_int= 1.929
# FMS rfms= 9.0000
# # PATH  Rmax=-1.000,  Keep_limit= 0.00, Heap_limit 0.00  Pwcrit= 2.50%
#  S02=0.950  Temp=   0.00  Debye_temp=   0.00  Global_sig2= 0.00000
#  Energy zero shift, vr, vi    0.00000E+00   0.00000E+00
#  Curved wave amplitude ratio filter   4.000%
#     file         sig2 tot  cw amp ratio   deg  nlegs   reff  inp sig2
#     0/   0 paths used
#  xsedge+ 50, used to normalize mu           2.4380E-04
#  -----------------------------------------------------------------------
#  omega    e    k    mu    mu0     chi     @#
    8984.106     -9.382  -1.000  5.18883E-02  6.16286E-02 -9.74025E-03
    8984.405     -9.084  -0.960  5.52204E-02  6.63614E-02 -1.11409E-02
    8984.691     -8.797  -0.920  5.88626E-02  7.16425E-02 -1.27800E-02
    8984.965     -8.523  -0.880  6.28518E-02  7.75548E-02 -1.47030E-02
    8985.228     -8.261  -0.840  6.72296E-02  8.41945E-02 -1.69650E-02
    8985.478     -8.011  -0.800  7.20418E-02  9.16736E-02 -1.96318E-02
    8985.715     -7.773  -0.760  7.73388E-02  1.00121E-01 -2.27820E-02
    8985.941     -7.547  -0.720  8.31744E-02  1.09682E-01 -2.65073E-02
    8986.154     -7.334  -0.680  8.96047E-02  1.20517E-01 -3.09124E-02
    8986.355     -7.133  -0.640  9.66848E-02  1.32797E-01 -3.61122E-02
    8986.544     -6.944  -0.600  1.04465E-01  1.46689E-01 -4.22240E-02
    8986.721     -6.767  -0.560  1.12984E-01  1.62337E-01 -4.93533E-02
    8986.886     -6.603  -0.520  1.22258E-01  1.79828E-01 -5.75701E-02
    8987.038     -6.450  -0.480  1.32271E-01  1.99146E-01 -6.68755E-02
    8987.178     -6.310  -0.440  1.42958E-01  2.20121E-01 -7.71635E-02
    8987.306     -6.182  -0.400  1.54193E-01  2.42382E-01 -8.81890E-02
    8987.422     -6.066  -0.360  1.65783E-01  2.65346E-01 -9.95631E-02
    8987.526     -5.963  -0.320  1.77464E-01  2.88254E-01 -1.10789E-01
    8987.617     -5.871  -0.280  1.88921E-01  3.10265E-01 -1.21344E-01
    8987.696     -5.792  -0.240  1.99802E-01  3.30572E-01 -1.30770E-01
    8987.764     -5.725  -0.200  2.09752E-01  3.48505E-01 -1.38753E-01
    8987.818     -5.670  -0.160  2.18431E-01  3.63575E-01 -1.45144E-01
    8987.861     -5.627  -0.120  2.25543E-01  3.75476E-01 -1.49933E-01
    8987.892     -5.597  -0.080  2.30844E-01  3.84042E-01 -1.53198E-01
    8987.916     -5.572   0.000  2.35307E-01  3.90918E-01 -1.55612E-01
    8987.971     -5.518   0.120  2.45415E-01  4.06396E-01 -1.60980E-01
    8988.013     -5.475   0.160  2.53496E-01  4.18419E-01 -1.64923E-01
    8988.068     -5.420   0.200  2.64259E-01  4.33733E-01 -1.69474E-01
    8988.135     -5.353   0.240  2.78023E-01  4.52106E-01 -1.74083E-01
    8988.215     -5.274   0.280  2.95144E-01  4.73112E-01 -1.77968E-01
    8988.306     -5.182   0.320  3.16067E-01  4.96190E-01 -1.80123E-01
    8988.410     -5.079   0.360  3.41070E-01  5.20578E-01 -1.79508E-01
    8988.526     -4.963   0.400  3.70310E-01  5.45514E-01 -1.75203E-01
    8988.654     -4.835   0.440  4.03336E-01  5.70302E-01 -1.66965E-01
    8988.794     -4.695   0.480  4.38666E-01  5.94361E-01 -1.55694E-01
    8988.946     -4.542   0.520  4.73533E-01  6.17349E-01 -1.43816E-01
    8989.111     -4.378   0.560  5.04210E-01  6.39107E-01 -1.34897E-01
    8989.288     -4.201   0.600  5.27624E-01  6.59574E-01 -1.31950E-01
    8989.477     -4.012   0.640  5.43139E-01  6.78803E-01 -1.35664E-01
    8989.678     -3.811   0.680  5.52297E-01  6.96918E-01 -1.44621E-01
    8989.891     -3.597   0.720  5.56650E-01  7.14019E-01 -1.57369E-01
    8990.117     -3.372   0.760  5.56789E-01  7.30228E-01 -1.73440E-01
    8990.354     -3.134   0.800  5.53489E-01  7.45677E-01 -1.92188E-01
    8990.604     -2.884   0.840  5.49136E-01  7.60458E-01 -2.11322E-01
    8990.866     -2.622   0.880  5.46864E-01  7.74608E-01 -2.27744E-01
    8991.141     -2.348   0.920  5.48099E-01  7.88228E-01 -2.40128E-01
    8991.427     -2.061   0.960  5.51168E-01  8.01342E-01 -2.50174E-01
    8991.726     -1.762   1.000  5.52881E-01  8.13984E-01 -2.61103E-01
    8992.037     -1.452   1.040  5.52875E-01  8.26175E-01 -2.73300E-01
    8992.360     -1.128   1.080  5.57062E-01  8.37927E-01 -2.80866E-01
    8992.695     -0.793   1.120  5.73860E-01  8.49268E-01 -2.75408E-01
    8993.043     -0.446   1.160  6.05358E-01  8.60176E-01 -2.54818E-01
    8993.402     -0.086   1.200  6.44608E-01  8.70644E-01 -2.26036E-01
    8993.774      0.286   1.240  6.84404E-01  8.80708E-01 -1.96304E-01
    8994.158      0.670   1.280  7.28377E-01  8.90313E-01 -1.61937E-01
    8994.554      1.066   1.320  7.89148E-01  8.99489E-01 -1.10341E-01
    8994.963      1.475   1.360  8.78432E-01  9.08221E-01 -2.97895E-02
    8995.384      1.895   1.400  1.00201E+00  9.16515E-01  8.54912E-02
    8995.816      2.328   1.440  1.15666E+00  9.24355E-01  2.32307E-01
    8996.261      2.773   1.480  1.31688E+00  9.31746E-01  3.85132E-01
    8996.719      3.230   1.520  1.43426E+00  9.38673E-01  4.95583E-01
    8997.188      3.700   1.560  1.48977E+00  9.45182E-01  5.44590E-01
    8997.669      4.181   1.600  1.52411E+00  9.51238E-01  5.72876E-01
    8998.163      4.675   1.640  1.56588E+00  9.56847E-01  6.09033E-01
    8998.669      5.181   1.680  1.59045E+00  9.62057E-01  6.28390E-01
    8999.187      5.699   1.720  1.57303E+00  9.66834E-01  6.06199E-01
    8999.718      6.229   1.760  1.53084E+00  9.71186E-01  5.59656E-01
    9000.260      6.772   1.800  1.49112E+00  9.75183E-01  5.15940E-01
    9000.815      7.327   1.840  1.43951E+00  9.78772E-01  4.60733E-01
    9001.382      7.894   1.880  1.34314E+00  9.82023E-01  3.61116E-01
    9001.961      8.473   1.920  1.20984E+00  9.84905E-01  2.24934E-01
    9002.552      9.064   1.960  1.08041E+00  9.87470E-01  9.29408E-02
    9003.156      9.668   2.000  9.79580E-01  9.89725E-01 -1.01455E-02
    9003.772     10.283   2.040  9.09013E-01  9.91702E-01 -8.26895E-02
    9004.399     10.911   2.080  8.63569E-01  9.93370E-01 -1.29801E-01
    9005.040     11.551   2.120  8.39883E-01  9.94800E-01 -1.54918E-01
    9005.692     12.203   2.160  8.35750E-01  9.96003E-01 -1.60253E-01
    9006.356     12.868   2.200  8.49385E-01  9.96967E-01 -1.47582E-01
    9007.033     13.545   2.240  8.79477E-01  9.97744E-01 -1.18266E-01
    9007.722     14.233   2.280  9.25481E-01  9.98340E-01 -7.28594E-02
    9008.423     14.934   2.320  9.82650E-01  9.98768E-01 -1.61171E-02
    9009.136     15.648   2.360  1.02530E+00  9.99033E-01  2.62675E-02
    9009.861     16.373   2.400  1.05173E+00  9.99168E-01  5.25590E-02
    9010.599     17.111   2.440  1.06655E+00  9.99199E-01  6.73539E-02
    9011.349     17.861   2.480  1.07465E+00  9.99114E-01  7.55315E-02
    9012.111     18.623   2.520  1.07930E+00  9.98962E-01  8.03411E-02
    9012.885     19.397   2.560  1.08330E+00  9.98709E-01  8.45895E-02
    9013.671     20.183   2.600  1.08722E+00  9.98423E-01  8.87999E-02
    9014.470     20.982   2.640  1.08858E+00  9.98068E-01  9.05159E-02
    9015.281     21.792   2.680  1.08279E+00  9.97693E-01  8.51013E-02
    9016.104     22.615   2.720  1.06686E+00  9.97281E-01  6.95747E-02
    9016.939     23.451   2.760  1.04143E+00  9.96838E-01  4.45898E-02
    9017.786     24.298   2.800  1.01031E+00  9.96410E-01  1.38985E-02
    9018.646     25.157   2.840  9.77766E-01  9.95982E-01 -1.82155E-02
    9019.517     26.029   2.880  9.47319E-01  9.95555E-01 -4.82360E-02
    9020.401     26.913   2.920  9.21173E-01  9.95136E-01 -7.39637E-02
    9021.297     27.809   2.960  9.00802E-01  9.94769E-01 -9.39667E-02
    9022.206     28.717   3.000  8.86396E-01  9.94414E-01 -1.08018E-01
    9023.126     29.638   3.040  8.76569E-01  9.94094E-01 -1.17526E-01
    9024.059     30.571   3.080  8.69354E-01  9.93813E-01 -1.24459E-01
    9025.004     31.516   3.120  8.63504E-01  9.93572E-01 -1.30068E-01
    9025.961     32.473   3.160  8.58457E-01  9.93372E-01 -1.34914E-01
    9026.930     33.442   3.200  8.54796E-01  9.93215E-01 -1.38420E-01
    9027.912     34.423   3.240  8.53252E-01  9.93126E-01 -1.39874E-01
    9028.905     35.417   3.280  8.53989E-01  9.93082E-01 -1.39093E-01
    9029.911     36.423   3.320  8.56988E-01  9.93107E-01 -1.36119E-01
    9030.929     37.441   3.360  8.62496E-01  9.93178E-01 -1.30682E-01
    9031.959     38.471   3.400  8.71140E-01  9.93295E-01 -1.22155E-01
    9033.002     39.513   3.440  8.83059E-01  9.93480E-01 -1.10422E-01
    9034.056     40.568   3.480  8.97871E-01  9.93712E-01 -9.58412E-02
    9035.123     41.635   3.520  9.14622E-01  9.93990E-01 -7.93683E-02
    9036.202     42.714   3.560  9.32365E-01  9.94336E-01 -6.19716E-02
    9037.293     43.805   3.600  9.50763E-01  9.94729E-01 -4.39663E-02
    9038.397     44.908   3.640  9.70075E-01  9.95188E-01 -2.51126E-02
    9039.512     46.024   3.680  9.90125E-01  9.95690E-01 -5.56560E-03
    9040.640     47.152   3.720  1.00965E+00  9.96213E-01  1.34349E-02
    9041.780     48.292   3.760  1.02674E+00  9.96798E-01  2.99439E-02
    9042.932     49.444   3.800  1.03992E+00  9.97424E-01  4.25007E-02
    9044.096     50.608   3.840  1.04898E+00  9.98089E-01  5.08913E-02
    9045.273     51.785   3.880  1.05516E+00  9.98793E-01  5.63709E-02
    9046.462     52.973   3.920  1.06019E+00  9.99531E-01  6.06587E-02
    9047.663     54.174   3.960  1.06538E+00  1.00028E+00  6.50997E-02
    9048.876     55.387   4.000  1.07141E+00  1.00106E+00  7.03496E-02
    9050.101     56.613   4.040  1.07822E+00  1.00185E+00  7.63723E-02
    9051.338     57.850   4.080  1.08523E+00  1.00267E+00  8.25607E-02
    9052.588     59.100   4.120  1.09139E+00  1.00349E+00  8.79024E-02
    9053.850     60.362   4.160  1.09571E+00  1.00431E+00  9.13939E-02
    9055.124     61.636   4.200  1.09744E+00  1.00516E+00  9.22816E-02
    9056.410     62.922   4.240  1.09658E+00  1.00598E+00  9.05927E-02
    9057.709     64.220   4.280  1.09413E+00  1.00681E+00  8.73216E-02
    9059.019     65.531   4.320  1.09141E+00  1.00764E+00  8.37638E-02
    9060.342     66.854   4.360  1.08896E+00  1.00843E+00  8.05234E-02
    9061.677     68.189   4.400  1.08642E+00  1.00923E+00  7.71866E-02
    9063.024     69.536   4.440  1.08284E+00  1.01000E+00  7.28400E-02
    9064.384     70.896   4.480  1.07746E+00  1.01074E+00  6.67190E-02
    9065.755     72.267   4.520  1.07001E+00  1.01146E+00  5.85465E-02
    9067.139     73.651   4.560  1.06047E+00  1.01215E+00  4.83222E-02
    9068.535     75.047   4.600  1.04898E+00  1.01282E+00  3.61589E-02
    9069.943     76.455   4.640  1.03587E+00  1.01343E+00  2.24424E-02
    9071.364     77.875   4.680  1.02211E+00  1.01400E+00  8.11131E-03
    9072.796     79.308   4.720  1.00899E+00  1.01454E+00 -5.55076E-03
    9074.241     80.753   4.760  9.97786E-01  1.01503E+00 -1.72396E-02
    9075.698     82.210   4.800  9.89384E-01  1.01549E+00 -2.61019E-02
    9077.167     83.679   4.840  9.83885E-01  1.01588E+00 -3.19937E-02
    9078.648     85.160   4.880  9.80746E-01  1.01622E+00 -3.54786E-02
    9080.142     86.654   4.920  9.78928E-01  1.01650E+00 -3.75747E-02
    9081.648     88.159   4.960  9.77357E-01  1.01676E+00 -3.93985E-02
    9083.166     89.677   5.000  9.75365E-01  1.01694E+00 -4.15742E-02
    9084.696     91.207   5.040  9.72899E-01  1.01707E+00 -4.41761E-02
    9086.238     92.750   5.080  9.70281E-01  1.01714E+00 -4.68586E-02
    9087.792     94.304   5.120  9.68109E-01  1.01716E+00 -4.90471E-02
    9089.359     95.871   5.160  9.66945E-01  1.01713E+00 -5.01834E-02
    9090.938     97.450   5.200  9.66973E-01  1.01705E+00 -5.00806E-02
    9092.529     99.041   5.240  9.67669E-01  1.01691E+00 -4.92430E-02
    9094.132    100.644   5.280  9.68195E-01  1.01675E+00 -4.85519E-02
    9095.748    102.259   5.320  9.67882E-01  1.01651E+00 -4.86312E-02
    9097.375    103.887   5.360  9.66881E-01  1.01623E+00 -4.93516E-02
    9099.015    105.527   5.400  9.66169E-01  1.01589E+00 -4.97180E-02
    9100.667    107.179   5.440  9.67271E-01  1.01552E+00 -4.82496E-02
    9102.331    108.843   5.480  9.71369E-01  1.01511E+00 -4.37439E-02
    9104.008    110.519   5.520  9.78848E-01  1.01464E+00 -3.57944E-02
    9105.696    112.208   5.560  9.89237E-01  1.01415E+00 -2.49165E-02
    9107.397    113.909   5.600  1.00121E+00  1.01363E+00 -1.24131E-02
    9109.110    115.622   5.640  1.01315E+00  1.01307E+00  8.43260E-05
    9110.835    117.347   5.680  1.02373E+00  1.01249E+00  1.12328E-02
    9112.573    119.084   5.720  1.03205E+00  1.01189E+00  2.01682E-02
    9114.322    120.834   5.760  1.03758E+00  1.01124E+00  2.63366E-02
    9116.084    122.595   5.800  1.04009E+00  1.01057E+00  2.95183E-02
    9117.858    124.369   5.840  1.04005E+00  1.00992E+00  3.01245E-02
    9119.644    126.156   5.880  1.03827E+00  1.00925E+00  2.90204E-02
    9121.442    127.954   5.920  1.03509E+00  1.00855E+00  2.65460E-02
    9123.253    129.764   5.960  1.02978E+00  1.00789E+00  2.18954E-02
    9125.075    131.587   6.000  1.02096E+00  1.00720E+00  1.37670E-02
