# # comment:                                                     FEFF 9.9.1  
# # Source:
# # Structure
# # Reduced
# # space
# # abc:
# # angles:
# # sites:
# # POT  SCF 100  7.0000   0, screened core-hole, AFOLP (folp(0)= 1.150)
# # Abs   Z=29 Rmt= 1.240 Rnm= 1.378 K  shell
# # Pot 1 Z=29 Rmt= 1.241 Rnm= 1.379
# # Pot 2 Z= 1 Rmt= 0.826 Rnm= 1.008
# # Pot 3 Z= 7 Rmt= 1.025 Rnm= 1.224
# # Pot 4 Z= 8 Rmt= 0.640 Rnm= 0.988
# # Gam_ch=1.729E+00 H-L exch Vi= 0.000E+00 Vr= 0.000E+00
# # Mu=-7.608E+00eV kf=2.250E+00 Vint=-1.263E+01eV Rs_int= 1.612
# FMS rfms= 9.0000
# # PATH  Rmax=-1.000,  Keep_limit= 0.00, Heap_limit 0.00  Pwcrit= 2.50%
#  S02=0.950  Temp=   0.00  Debye_temp=   0.00  Global_sig2= 0.00000
#  Energy zero shift, vr, vi    0.00000E+00   0.00000E+00
#  Curved wave amplitude ratio filter   4.000%
#     file         sig2 tot  cw amp ratio   deg  nlegs   reff  inp sig2
#     0/   0 paths used
#  xsedge+ 50, used to normalize mu           2.4169E-04
#  -----------------------------------------------------------------------
#  omega    e    k    mu    mu0     chi     @#
    8983.268    -11.418  -1.000  3.29807E-02  5.38896E-02 -2.09089E-02
    8983.567    -11.119  -0.960  3.43722E-02  5.76529E-02 -2.32808E-02
    8983.853    -10.832  -0.920  3.58292E-02  6.18116E-02 -2.59824E-02
    8984.127    -10.558  -0.880  3.73545E-02  6.64207E-02 -2.90663E-02
    8984.389    -10.296  -0.840  3.89504E-02  7.15441E-02 -3.25937E-02
    8984.639    -10.046  -0.800  4.06194E-02  7.72552E-02 -3.66358E-02
    8984.877     -9.808  -0.760  4.23636E-02  8.36377E-02 -4.12741E-02
    8985.103     -9.583  -0.720  4.41848E-02  9.07855E-02 -4.66007E-02
    8985.316     -9.369  -0.680  4.60842E-02  9.88015E-02 -5.27173E-02
    8985.517     -9.168  -0.640  4.80620E-02  1.07793E-01 -5.97313E-02
    8985.706     -8.979  -0.600  5.01170E-02  1.17866E-01 -6.77486E-02
    8985.883     -8.802  -0.560  5.22454E-02  1.29106E-01 -7.68609E-02
    8986.048     -8.638  -0.520  5.44401E-02  1.41565E-01 -8.71254E-02
    8986.200     -8.485  -0.480  5.66887E-02  1.55226E-01 -9.85372E-02
    8986.340     -8.345  -0.440  5.89719E-02  1.69970E-01 -1.10998E-01
    8986.468     -8.217  -0.400  6.12622E-02  1.85550E-01 -1.24287E-01
    8986.584     -8.101  -0.360  6.35238E-02  2.01580E-01 -1.38056E-01
    8986.688     -7.998  -0.320  6.57136E-02  2.17559E-01 -1.51845E-01
    8986.779     -7.906  -0.280  6.77850E-02  2.32927E-01 -1.65142E-01
    8986.858     -7.827  -0.240  6.96918E-02  2.47141E-01 -1.77449E-01
    8986.925     -7.760  -0.200  7.13916E-02  2.59737E-01 -1.88345E-01
    8986.980     -7.705  -0.160  7.28475E-02  2.70366E-01 -1.97518E-01
    8987.023     -7.662  -0.120  7.40293E-02  2.78796E-01 -2.04767E-01
    8987.053     -7.632  -0.080  7.49125E-02  2.84887E-01 -2.09975E-01
    8987.078     -7.608   0.000  7.56843E-02  2.89796E-01 -2.14112E-01
    8987.133     -7.553   0.120  7.74523E-02  3.00883E-01 -2.23430E-01
    8987.175     -7.510   0.160  7.87243E-02  3.09543E-01 -2.30818E-01
    8987.230     -7.455   0.200  8.03591E-02  3.20667E-01 -2.40308E-01
    8987.297     -7.388   0.240  8.23893E-02  3.34165E-01 -2.51776E-01
    8987.377     -7.309   0.280  8.47556E-02  3.49825E-01 -2.65070E-01
    8987.468     -7.217   0.320  8.74819E-02  3.67355E-01 -2.79873E-01
    8987.572     -7.114   0.360  9.06319E-02  3.86399E-01 -2.95768E-01
    8987.687     -6.998   0.400  9.42335E-02  4.06509E-01 -3.12276E-01
    8987.815     -6.870   0.440  9.83913E-02  4.27307E-01 -3.28915E-01
    8987.956     -6.730   0.480  1.03227E-01  4.48495E-01 -3.45267E-01
    8988.108     -6.577   0.520  1.08880E-01  4.69841E-01 -3.60962E-01
    8988.273     -6.413   0.560  1.15650E-01  4.91272E-01 -3.75622E-01
    8988.449     -6.236   0.600  1.23768E-01  5.12686E-01 -3.88917E-01
    8988.638     -6.047   0.640  1.33707E-01  5.34130E-01 -4.00423E-01
    8988.840     -5.846   0.680  1.45893E-01  5.55611E-01 -4.09718E-01
    8989.053     -5.633   0.720  1.60831E-01  5.77144E-01 -4.16313E-01
    8989.278     -5.407   0.760  1.79048E-01  5.98737E-01 -4.19689E-01
    8989.516     -5.169   0.800  2.01184E-01  6.20366E-01 -4.19182E-01
    8989.766     -4.919   0.840  2.28419E-01  6.42060E-01 -4.13641E-01
    8990.028     -4.657   0.880  2.62456E-01  6.63727E-01 -4.01271E-01
    8990.303     -4.383   0.920  3.04780E-01  6.85346E-01 -3.80566E-01
    8990.589     -4.096   0.960  3.54021E-01  7.06867E-01 -3.52846E-01
    8990.888     -3.798   1.000  4.04719E-01  7.28169E-01 -3.23451E-01
    8991.199     -3.487   1.040  4.52120E-01  7.49208E-01 -2.97088E-01
    8991.522     -3.164   1.080  4.98206E-01  7.69870E-01 -2.71664E-01
    8991.857     -2.828   1.120  5.46706E-01  7.90102E-01 -2.43397E-01
    8992.205     -2.481   1.160  5.89372E-01  8.09809E-01 -2.20437E-01
    8992.564     -2.121   1.200  6.08775E-01  8.28895E-01 -2.20120E-01
    8992.936     -1.749   1.240  6.01388E-01  8.47265E-01 -2.45877E-01
    8993.320     -1.365   1.280  5.83042E-01  8.64911E-01 -2.81869E-01
    8993.716     -0.969   1.320  5.71411E-01  8.81701E-01 -3.10290E-01
    8994.125     -0.561   1.360  5.74832E-01  8.97614E-01 -3.22781E-01
    8994.545     -0.140   1.400  5.90665E-01  9.12610E-01 -3.21945E-01
    8994.978      0.293   1.440  6.09786E-01  9.26655E-01 -3.16869E-01
    8995.423      0.738   1.480  6.27174E-01  9.39720E-01 -3.12545E-01
    8995.880      1.195   1.520  6.50091E-01  9.51800E-01 -3.01710E-01
    8996.350      1.664   1.560  6.90469E-01  9.62897E-01 -2.72427E-01
    8996.831      2.146   1.600  7.52640E-01  9.72995E-01 -2.20355E-01
    8997.325      2.640   1.640  8.26764E-01  9.82124E-01 -1.55360E-01
    8997.831      3.146   1.680  9.00581E-01  9.90316E-01 -8.97360E-02
    8998.349      3.664   1.720  9.84055E-01  9.97590E-01 -1.35350E-02
    8998.880      4.194   1.760  1.09279E+00  1.00400E+00  8.87909E-02
    8999.422      4.737   1.800  1.20895E+00  1.00956E+00  1.99394E-01
    8999.977      5.291   1.840  1.29268E+00  1.01434E+00  2.78341E-01
    9000.544      5.858   1.880  1.32130E+00  1.01837E+00  3.02934E-01
    9001.123      6.437   1.920  1.31558E+00  1.02169E+00  2.93889E-01
    9001.714      7.029   1.960  1.30963E+00  1.02435E+00  2.85277E-01
    9002.318      7.632   2.000  1.31894E+00  1.02645E+00  2.92493E-01
    9002.933      8.248   2.040  1.34418E+00  1.02797E+00  3.16212E-01
    9003.561      8.876   2.080  1.37562E+00  1.02899E+00  3.46630E-01
    9004.201      9.516   2.120  1.38922E+00  1.02958E+00  3.59636E-01
    9004.854     10.168   2.160  1.36025E+00  1.02976E+00  3.30487E-01
    9005.518     10.833   2.200  1.29622E+00  1.02959E+00  2.66625E-01
    9006.195     11.509   2.240  1.22582E+00  1.02910E+00  1.96727E-01
    9006.884     12.198   2.280  1.16666E+00  1.02832E+00  1.38347E-01
    9007.585     12.899   2.320  1.12594E+00  1.02731E+00  9.86324E-02
    9008.298     13.612   2.360  1.10141E+00  1.02610E+00  7.53040E-02
    9009.023     14.338   2.400  1.08546E+00  1.02472E+00  6.07339E-02
    9009.761     15.075   2.440  1.07519E+00  1.02321E+00  5.19804E-02
    9010.511     15.825   2.480  1.06930E+00  1.02159E+00  4.77154E-02
    9011.273     16.587   2.520  1.06640E+00  1.01990E+00  4.65004E-02
    9012.047     17.361   2.560  1.06359E+00  1.01814E+00  4.54518E-02
    9012.833     18.148   2.600  1.05619E+00  1.01636E+00  3.98265E-02
    9013.632     18.946   2.640  1.04451E+00  1.01456E+00  2.99468E-02
    9014.443     19.757   2.680  1.03317E+00  1.01276E+00  2.04158E-02
    9015.266     20.580   2.720  1.02473E+00  1.01101E+00  1.37268E-02
    9016.101     21.415   2.760  1.01664E+00  1.00927E+00  7.36594E-03
    9016.948     22.263   2.800  1.00797E+00  1.00759E+00  3.81660E-04
    9017.808     23.122   2.840  9.98303E-01  1.00597E+00 -7.66975E-03
    9018.679     23.994   2.880  9.87381E-01  1.00444E+00 -1.70567E-02
    9019.563     24.878   2.920  9.75125E-01  1.00298E+00 -2.78585E-02
    9020.459     25.774   2.960  9.61721E-01  1.00162E+00 -3.98957E-02
    9021.368     26.682   3.000  9.47786E-01  1.00036E+00 -5.25739E-02
    9022.288     27.603   3.040  9.34196E-01  9.99197E-01 -6.50010E-02
    9023.221     28.535   3.080  9.21654E-01  9.98150E-01 -7.64955E-02
    9024.166     29.480   3.120  9.10624E-01  9.97221E-01 -8.65970E-02
    9025.123     30.437   3.160  9.01335E-01  9.96391E-01 -9.50561E-02
    9026.092     31.407   3.200  8.93925E-01  9.95701E-01 -1.01777E-01
    9027.074     32.388   3.240  8.88358E-01  9.95110E-01 -1.06752E-01
    9028.067     33.382   3.280  8.84660E-01  9.94641E-01 -1.09981E-01
    9029.073     34.388   3.320  8.82850E-01  9.94294E-01 -1.11443E-01
    9030.091     35.406   3.360  8.83090E-01  9.94067E-01 -1.10977E-01
    9031.121     36.436   3.400  8.85464E-01  9.93962E-01 -1.08498E-01
    9032.164     37.478   3.440  8.89873E-01  9.93978E-01 -1.04106E-01
    9033.218     38.533   3.480  8.96184E-01  9.94113E-01 -9.79297E-02
    9034.285     39.600   3.520  9.04214E-01  9.94343E-01 -9.01291E-02
    9035.364     40.679   3.560  9.13933E-01  9.94688E-01 -8.07544E-02
    9036.455     41.770   3.600  9.25320E-01  9.95147E-01 -6.98265E-02
    9037.559     42.873   3.640  9.38173E-01  9.95695E-01 -5.75221E-02
    9038.674     43.989   3.680  9.52166E-01  9.96331E-01 -4.41657E-02
    9039.802     45.116   3.720  9.66780E-01  9.97051E-01 -3.02711E-02
    9040.942     46.256   3.760  9.81487E-01  9.97875E-01 -1.63881E-02
    9042.094     47.409   3.800  9.95924E-01  9.98758E-01 -2.83484E-03
    9043.258     48.573   3.840  1.00995E+00  9.99720E-01  1.02267E-02
    9044.435     49.749   3.880  1.02364E+00  1.00076E+00  2.28858E-02
    9045.624     50.938   3.920  1.03696E+00  1.00184E+00  3.51232E-02
    9046.824     52.139   3.960  1.04964E+00  1.00299E+00  4.66435E-02
    9048.038     53.352   4.000  1.06113E+00  1.00419E+00  5.69382E-02
    9049.263     54.577   4.040  1.07081E+00  1.00541E+00  6.53994E-02
    9050.500     55.815   4.080  1.07835E+00  1.00668E+00  7.16676E-02
    9051.750     57.065   4.120  1.08364E+00  1.00797E+00  7.56695E-02
    9053.012     58.326   4.160  1.08684E+00  1.00928E+00  7.75589E-02
    9054.286     59.600   4.200  1.08828E+00  1.01060E+00  7.76704E-02
    9055.572     60.887   4.240  1.08835E+00  1.01193E+00  7.64230E-02
    9056.871     62.185   4.280  1.08757E+00  1.01325E+00  7.43210E-02
    9058.181     63.496   4.320  1.08631E+00  1.01457E+00  7.17378E-02
    9059.504     64.819   4.360  1.08485E+00  1.01588E+00  6.89752E-02
    9060.839     66.154   4.400  1.08338E+00  1.01716E+00  6.62248E-02
    9062.186     67.501   4.440  1.08201E+00  1.01842E+00  6.35904E-02
    9063.546     68.860   4.480  1.08057E+00  1.01962E+00  6.09485E-02
    9064.917     70.232   4.520  1.07882E+00  1.02081E+00  5.80085E-02
    9066.301     71.616   4.560  1.07629E+00  1.02195E+00  5.43410E-02
    9067.697     73.012   4.600  1.07253E+00  1.02302E+00  4.95075E-02
    9069.105     74.420   4.640  1.06728E+00  1.02404E+00  4.32414E-02
    9070.526     75.840   4.680  1.06049E+00  1.02501E+00  3.54755E-02
    9071.958     77.273   4.720  1.05220E+00  1.02591E+00  2.62908E-02
    9073.403     78.717   4.760  1.04266E+00  1.02672E+00  1.59348E-02
    9074.860     80.174   4.800  1.03226E+00  1.02749E+00  4.77709E-03
    9076.329     81.644   4.840  1.02148E+00  1.02817E+00 -6.68816E-03
    9077.810     83.125   4.880  1.01091E+00  1.02877E+00 -1.78573E-02
    9079.304     84.618   4.920  1.00117E+00  1.02929E+00 -2.81254E-02
    9080.810     86.124   4.960  9.92654E-01  1.02973E+00 -3.70723E-02
    9082.327     87.642   5.000  9.85516E-01  1.03008E+00 -4.45627E-02
    9083.858     89.172   5.040  9.79701E-01  1.03035E+00 -5.06483E-02
    9085.400     90.714   5.080  9.75186E-01  1.03056E+00 -5.53743E-02
    9086.954     92.269   5.120  9.71982E-01  1.03066E+00 -5.86817E-02
    9088.521     93.835   5.160  9.70255E-01  1.03068E+00 -6.04281E-02
    9090.100     95.414   5.200  9.70066E-01  1.03062E+00 -6.05539E-02
    9091.691     97.005   5.240  9.71277E-01  1.03050E+00 -5.92199E-02
    9093.294     98.609   5.280  9.73508E-01  1.03027E+00 -5.67637E-02
    9094.910    100.224   5.320  9.76457E-01  1.02999E+00 -5.35297E-02
    9096.537    101.852   5.360  9.79920E-01  1.02960E+00 -4.96817E-02
    9098.177    103.491   5.400  9.83987E-01  1.02918E+00 -4.51963E-02
    9099.829    105.144   5.440  9.88615E-01  1.02867E+00 -4.00515E-02
    9101.493    106.808   5.480  9.93659E-01  1.02810E+00 -3.44399E-02
    9103.170    108.484   5.520  9.98744E-01  1.02748E+00 -2.87378E-02
    9104.858    110.173   5.560  1.00350E+00  1.02679E+00 -2.32902E-02
    9106.559    111.873   5.600  1.00784E+00  1.02606E+00 -1.82242E-02
    9108.272    113.586   5.640  1.01183E+00  1.02528E+00 -1.34532E-02
    9109.997    115.312   5.680  1.01567E+00  1.02447E+00 -8.80017E-03
    9111.734    117.049   5.720  1.01948E+00  1.02361E+00 -4.13021E-03
    9113.484    118.798   5.760  1.02328E+00  1.02272E+00  5.58467E-04
    9115.246    120.560   5.800  1.02695E+00  1.02182E+00  5.12529E-03
    9117.020    122.334   5.840  1.03025E+00  1.02090E+00  9.35085E-03
    9118.806    124.120   5.880  1.03302E+00  1.01997E+00  1.30517E-02
    9120.604    125.919   5.920  1.03518E+00  1.01902E+00  1.61521E-02
    9122.415    127.729   5.960  1.03675E+00  1.01809E+00  1.86537E-02
    9124.237    129.552   6.000  1.03775E+00  1.01715E+00  2.05945E-02
