# # comment:                                                     FEFF 9.9.1  
# # Source:
# # Structure
# # Reduced
# # space
# # abc:
# # angles:
# # sites:
# # POT  SCF 100  7.0000   0, screened core-hole, AFOLP (folp(0)= 1.150)
# # Abs   Z=29 Rmt= 1.238 Rnm= 1.307 K  shell
# # Pot 1 Z=27 Rmt= 1.222 Rnm= 1.314
# # Pot 2 Z=29 Rmt= 1.238 Rnm= 1.308
# # Pot 3 Z= 8 Rmt= 0.991 Rnm= 1.065
# # Gam_ch=1.729E+00 H-L exch Vi= 0.000E+00 Vr= 0.000E+00
# # Mu=-1.123E+01eV kf=2.300E+00 Vint=-1.976E+01eV Rs_int= 1.577
# FMS rfms= 9.0000
# # PATH  Rmax=-1.000,  Keep_limit= 0.00, Heap_limit 0.00  Pwcrit= 2.50%
#  S02=0.950  Temp=   0.00  Debye_temp=   0.00  Global_sig2= 0.00000
#  Energy zero shift, vr, vi    0.00000E+00   0.00000E+00
#  Curved wave amplitude ratio filter   4.000%
#     file         sig2 tot  cw amp ratio   deg  nlegs   reff  inp sig2
#     0/   0 paths used
#  xsedge+ 50, used to normalize mu           2.5311E-04
#  -----------------------------------------------------------------------
#  omega    e    k    mu    mu0     chi     @#
    8984.403    -15.042  -1.000  2.87349E-02  4.28724E-02 -1.41375E-02
    8984.701    -14.743  -0.960  3.00460E-02  4.57622E-02 -1.57161E-02
    8984.988    -14.457  -0.920  3.14484E-02  4.89588E-02 -1.75104E-02
    8985.262    -14.183  -0.880  3.29518E-02  5.25066E-02 -1.95548E-02
    8985.524    -13.920  -0.840  3.45674E-02  5.64572E-02 -2.18897E-02
    8985.774    -13.671  -0.800  3.63077E-02  6.08700E-02 -2.45623E-02
    8986.012    -13.433  -0.760  3.81864E-02  6.58136E-02 -2.76272E-02
    8986.237    -13.207  -0.720  4.02183E-02  7.13648E-02 -3.11466E-02
    8986.451    -12.994  -0.680  4.24191E-02  7.76087E-02 -3.51897E-02
    8986.652    -12.793  -0.640  4.48042E-02  8.46345E-02 -3.98303E-02
    8986.841    -12.604  -0.600  4.73878E-02  9.25298E-02 -4.51419E-02
    8987.018    -12.427  -0.560  5.01808E-02  1.01369E-01 -5.11881E-02
    8987.182    -12.262  -0.520  5.31877E-02  1.11195E-01 -5.80076E-02
    8987.335    -12.110  -0.480  5.64034E-02  1.21998E-01 -6.55943E-02
    8987.475    -11.970  -0.440  5.98086E-02  1.33682E-01 -7.38729E-02
    8987.603    -11.842  -0.400  6.33662E-02  1.46046E-01 -8.26796E-02
    8987.719    -11.726  -0.360  6.70182E-02  1.58775E-01 -9.17570E-02
    8987.822    -11.622  -0.320  7.06869E-02  1.71461E-01 -1.00774E-01
    8987.914    -11.531  -0.280  7.42778E-02  1.83648E-01 -1.09370E-01
    8987.993    -11.452  -0.240  7.76863E-02  1.94898E-01 -1.17211E-01
    8988.060    -11.385  -0.200  8.08049E-02  2.04843E-01 -1.24038E-01
    8988.115    -11.330  -0.160  8.35293E-02  2.13213E-01 -1.29684E-01
    8988.158    -11.287  -0.120  8.57664E-02  2.19833E-01 -1.34067E-01
    8988.188    -11.256  -0.080  8.74421E-02  2.24605E-01 -1.37163E-01
    8988.213    -11.232   0.000  8.88824E-02  2.28441E-01 -1.39558E-01
    8988.267    -11.177   0.120  9.22984E-02  2.37096E-01 -1.44798E-01
    8988.310    -11.135   0.160  9.49262E-02  2.43830E-01 -1.48904E-01
    8988.365    -11.080   0.200  9.83817E-02  2.52435E-01 -1.54053E-01
    8988.432    -11.013   0.240  1.02754E-01  2.62806E-01 -1.60052E-01
    8988.511    -10.933   0.280  1.08128E-01  2.74738E-01 -1.66610E-01
    8988.603    -10.842   0.320  1.14616E-01  2.87959E-01 -1.73343E-01
    8988.706    -10.738   0.360  1.22277E-01  3.02113E-01 -1.79836E-01
    8988.822    -10.623   0.400  1.31039E-01  3.16797E-01 -1.85758E-01
    8988.950    -10.494   0.440  1.40581E-01  3.31665E-01 -1.91084E-01
    8989.090    -10.354   0.480  1.50198E-01  3.46450E-01 -1.96253E-01
    8989.243    -10.202   0.520  1.58619E-01  3.61003E-01 -2.02384E-01
    8989.407    -10.037   0.560  1.64162E-01  3.75208E-01 -2.11046E-01
    8989.584     -9.861   0.600  1.65369E-01  3.89061E-01 -2.23693E-01
    8989.773     -9.672   0.640  1.61984E-01  4.02627E-01 -2.40642E-01
    8989.974     -9.470   0.680  1.55469E-01  4.15950E-01 -2.60481E-01
    8990.188     -9.257   0.720  1.48424E-01  4.29091E-01 -2.80667E-01
    8990.413     -9.031   0.760  1.43341E-01  4.42144E-01 -2.98803E-01
    8990.651     -8.794   0.800  1.41721E-01  4.55160E-01 -3.13439E-01
    8990.901     -8.544   0.840  1.44206E-01  4.68179E-01 -3.23973E-01
    8991.163     -8.282   0.880  1.51168E-01  4.81271E-01 -3.30103E-01
    8991.437     -8.007   0.920  1.62887E-01  4.94440E-01 -3.31553E-01
    8991.724     -7.721   0.960  1.80189E-01  5.07718E-01 -3.27529E-01
    8992.023     -7.422   1.000  2.04954E-01  5.21133E-01 -3.16179E-01
    8992.333     -7.111   1.040  2.40433E-01  5.34662E-01 -2.94229E-01
    8992.657     -6.788   1.080  2.90373E-01  5.48342E-01 -2.57969E-01
    8992.992     -6.453   1.120  3.55850E-01  5.62140E-01 -2.06290E-01
    8993.339     -6.105   1.160  4.30366E-01  5.76080E-01 -1.45714E-01
    8993.699     -5.746   1.200  4.92578E-01  5.90107E-01 -9.75292E-02
    8994.071     -5.374   1.240  5.08960E-01  6.04238E-01 -9.52776E-02
    8994.455     -4.990   1.280  4.71823E-01  6.18428E-01 -1.46606E-01
    8994.851     -4.594   1.320  4.22321E-01  6.32693E-01 -2.10372E-01
    8995.259     -4.185   1.360  3.97522E-01  6.46985E-01 -2.49463E-01
    8995.680     -3.765   1.400  4.00667E-01  6.61254E-01 -2.60588E-01
    8996.113     -3.332   1.440  4.23258E-01  6.75511E-01 -2.52252E-01
    8996.558     -2.887   1.480  4.60289E-01  6.89724E-01 -2.29435E-01
    8997.015     -2.430   1.520  5.06813E-01  7.03864E-01 -1.97052E-01
    8997.485     -1.960   1.560  5.54937E-01  7.17897E-01 -1.62960E-01
    8997.966     -1.479   1.600  6.07152E-01  7.31789E-01 -1.24638E-01
    8998.460     -0.985   1.640  6.71534E-01  7.45510E-01 -7.39756E-02
    8998.966     -0.479   1.680  7.24909E-01  7.59046E-01 -3.41373E-02
    8999.484      0.039   1.720  7.29507E-01  7.72366E-01 -4.28587E-02
    9000.014      0.570   1.760  6.98180E-01  7.85436E-01 -8.72563E-02
    9000.557      1.112   1.800  6.74744E-01  7.98226E-01 -1.23482E-01
    9001.112      1.667   1.840  6.85193E-01  8.10724E-01 -1.25531E-01
    9001.679      2.234   1.880  7.37717E-01  8.22919E-01 -8.52024E-02
    9002.258      2.813   1.920  8.38134E-01  8.34762E-01  3.37147E-03
    9002.849      3.404   1.960  9.92698E-01  8.46266E-01  1.46432E-01
    9003.452      4.008   2.000  1.18801E+00  8.57380E-01  3.30634E-01
    9004.068      4.624   2.040  1.35677E+00  8.68117E-01  4.88654E-01
    9004.696      5.251   2.080  1.39321E+00  8.78450E-01  5.14755E-01
    9005.336      5.891   2.120  1.29526E+00  8.88354E-01  4.06909E-01
    9005.988      6.544   2.160  1.19510E+00  8.97825E-01  2.97278E-01
    9006.653      7.208   2.200  1.15750E+00  9.06877E-01  2.50621E-01
    9007.330      7.885   2.240  1.15611E+00  9.15489E-01  2.40623E-01
    9008.018      8.574   2.280  1.17376E+00  9.23659E-01  2.50099E-01
    9008.719      9.275   2.320  1.22774E+00  9.31365E-01  2.96375E-01
    9009.433      9.988   2.360  1.28913E+00  9.38627E-01  3.50502E-01
    9010.158     10.713   2.400  1.29596E+00  9.45446E-01  3.50515E-01
    9010.896     11.451   2.440  1.25144E+00  9.51824E-01  2.99621E-01
    9011.645     12.201   2.480  1.18611E+00  9.57764E-01  2.28342E-01
    9012.407     12.963   2.520  1.09194E+00  9.63267E-01  1.28671E-01
    9013.182     13.737   2.560  9.79454E-01  9.68338E-01  1.11162E-02
    9013.968     14.523   2.600  8.96761E-01  9.73002E-01 -7.62416E-02
    9014.767     15.322   2.640  8.70154E-01  9.77264E-01 -1.07110E-01
    9015.577     16.133   2.680  8.81608E-01  9.81129E-01 -9.95211E-02
    9016.400     16.956   2.720  9.01544E-01  9.84602E-01 -8.30583E-02
    9017.235     17.791   2.760  9.12560E-01  9.87711E-01 -7.51511E-02
    9018.083     18.638   2.800  9.25176E-01  9.90462E-01 -6.52854E-02
    9018.942     19.498   2.840  9.39496E-01  9.92860E-01 -5.33646E-02
    9019.814     20.369   2.880  9.50013E-01  9.94935E-01 -4.49215E-02
    9020.698     21.253   2.920  9.54925E-01  9.96694E-01 -4.17696E-02
    9021.594     22.149   2.960  9.56648E-01  9.98166E-01 -4.15176E-02
    9022.502     23.058   3.000  9.57864E-01  9.99357E-01 -4.14935E-02
    9023.423     23.978   3.040  9.59313E-01  1.00027E+00 -4.09614E-02
    9024.356     24.911   3.080  9.60731E-01  1.00093E+00 -4.01953E-02
    9025.300     25.856   3.120  9.60926E-01  1.00136E+00 -4.04350E-02
    9026.258     26.813   3.160  9.58206E-01  1.00159E+00 -4.33808E-02
    9027.227     27.782   3.200  9.51548E-01  1.00159E+00 -5.00443E-02
    9028.208     28.764   3.240  9.41763E-01  1.00142E+00 -5.96589E-02
    9029.202     29.757   3.280  9.30787E-01  1.00106E+00 -7.02777E-02
    9030.208     30.763   3.320  9.20604E-01  1.00055E+00 -7.99439E-02
    9031.226     31.781   3.360  9.12408E-01  9.99899E-01 -8.74910E-02
    9032.256     32.811   3.400  9.06443E-01  9.99105E-01 -9.26624E-02
    9033.298     33.854   3.440  9.02388E-01  9.98213E-01 -9.58249E-02
    9034.353     34.908   3.480  8.99668E-01  9.97209E-01 -9.75410E-02
    9035.420     35.975   3.520  8.97913E-01  9.96119E-01 -9.82061E-02
    9036.499     37.054   3.560  8.96762E-01  9.94949E-01 -9.81874E-02
    9037.590     38.145   3.600  8.96129E-01  9.93704E-01 -9.75750E-02
    9038.693     39.249   3.640  8.96297E-01  9.92410E-01 -9.61130E-02
    9039.809     40.364   3.680  8.97741E-01  9.91053E-01 -9.33118E-02
    9040.937     41.492   3.720  9.00916E-01  9.89677E-01 -8.87616E-02
    9042.077     42.632   3.760  9.06071E-01  9.88289E-01 -8.22181E-02
    9043.229     43.784   3.800  9.13109E-01  9.86851E-01 -7.37420E-02
    9044.393     44.948   3.840  9.21801E-01  9.85428E-01 -6.36266E-02
    9045.570     46.125   3.880  9.31773E-01  9.84004E-01 -5.22311E-02
    9046.758     47.314   3.920  9.42800E-01  9.82584E-01 -3.97842E-02
    9047.959     48.515   3.960  9.54593E-01  9.81169E-01 -2.65759E-02
    9049.172     49.728   4.000  9.67091E-01  9.79784E-01 -1.26936E-02
    9050.398     50.953   4.040  9.80650E-01  9.78431E-01  2.21857E-03
    9051.635     52.190   4.080  9.95608E-01  9.77091E-01  1.85165E-02
    9052.885     53.440   4.120  1.01179E+00  9.75789E-01  3.59995E-02
    9054.147     54.702   4.160  1.02834E+00  9.74549E-01  5.37943E-02
    9055.421     55.976   4.200  1.04390E+00  9.73351E-01  7.05456E-02
    9056.707     57.262   4.240  1.05701E+00  9.72196E-01  8.48157E-02
    9058.005     58.561   4.280  1.06689E+00  9.71086E-01  9.58046E-02
    9059.316     59.871   4.320  1.07378E+00  9.70043E-01  1.03739E-01
    9060.639     61.194   4.360  1.07870E+00  9.69047E-01  1.09656E-01
    9061.974     62.529   4.400  1.08283E+00  9.68120E-01  1.14713E-01
    9063.321     63.876   4.440  1.08705E+00  9.67243E-01  1.19808E-01
    9064.680     65.236   4.480  1.09221E+00  9.66438E-01  1.25774E-01
    9066.052     66.607   4.520  1.09874E+00  9.65706E-01  1.33034E-01
    9067.436     67.991   4.560  1.10542E+00  9.65047E-01  1.40374E-01
    9068.832     69.387   4.600  1.10848E+00  9.64439E-01  1.44044E-01
    9070.240     70.795   4.640  1.10270E+00  9.63902E-01  1.38803E-01
    9071.660     72.216   4.680  1.08430E+00  9.63415E-01  1.20881E-01
    9073.093     73.648   4.720  1.05366E+00  9.63000E-01  9.06641E-02
    9074.538     75.093   4.760  1.01529E+00  9.62659E-01  5.26307E-02
    9075.995     76.550   4.800  9.75160E-01  9.62389E-01  1.27706E-02
    9077.464     78.019   4.840  9.38011E-01  9.62168E-01 -2.41569E-02
    9078.945     79.500   4.880  9.06567E-01  9.61993E-01 -5.54258E-02
    9080.439     80.994   4.920  8.81974E-01  9.61890E-01 -7.99155E-02
    9081.944     82.500   4.960  8.64395E-01  9.61855E-01 -9.74607E-02
    9083.462     84.017   5.000  8.53442E-01  9.61867E-01 -1.08425E-01
    9084.992     85.548   5.040  8.48359E-01  9.61923E-01 -1.13563E-01
    9086.535     87.090   5.080  8.48450E-01  9.62042E-01 -1.13592E-01
    9088.089     88.644   5.120  8.53359E-01  9.62183E-01 -1.08824E-01
    9089.656     90.211   5.160  8.63470E-01  9.62387E-01 -9.89170E-02
    9091.235     91.790   5.200  8.79455E-01  9.62631E-01 -8.31762E-02
    9092.826     93.381   5.240  9.01367E-01  9.62914E-01 -6.15473E-02
    9094.429     94.984   5.280  9.27556E-01  9.63234E-01 -3.56777E-02
    9096.044     96.600   5.320  9.54346E-01  9.63568E-01 -9.22265E-03
    9097.672     98.227   5.360  9.77441E-01  9.63958E-01  1.34827E-02
    9099.312     99.867   5.400  9.94118E-01  9.64357E-01  2.97608E-02
    9100.964    101.519   5.440  1.00446E+00  9.64764E-01  3.96949E-02
    9102.628    103.183   5.480  1.01003E+00  9.65200E-01  4.48329E-02
    9104.304    104.860   5.520  1.01200E+00  9.65640E-01  4.63619E-02
    9105.993    106.548   5.560  1.01064E+00  9.66086E-01  4.45541E-02
    9107.694    108.249   5.600  1.00589E+00  9.66556E-01  3.93354E-02
    9109.407    109.962   5.640  9.97930E-01  9.67025E-01  3.09048E-02
    9111.132    111.687   5.680  9.87221E-01  9.67470E-01  1.97504E-02
    9112.869    113.424   5.720  9.74427E-01  9.67912E-01  6.51506E-03
    9114.619    115.174   5.760  9.60569E-01  9.68372E-01 -7.80307E-03
    9116.380    116.936   5.800  9.46966E-01  9.68781E-01 -2.18151E-02
    9118.154    118.710   5.840  9.35062E-01  9.69204E-01 -3.41420E-02
    9119.940    120.496   5.880  9.25561E-01  9.69594E-01 -4.40323E-02
    9121.739    122.294   5.920  9.18307E-01  9.69945E-01 -5.16381E-02
    9123.549    124.105   5.960  9.12604E-01  9.70253E-01 -5.76485E-02
    9125.372    125.927   6.000  9.08020E-01  9.70542E-01 -6.25217E-02
