# # comment:                                                     FEFF 9.9.1  
# # Source:
# # Structure
# # Reduced
# # space
# # abc:
# # angles:
# # sites:
# # POT  SCF 100  7.0000   0, screened core-hole, AFOLP (folp(0)= 1.150)
# # Abs   Z=29 Rmt= 1.247 Rnm= 1.344 K  shell
# # Pot 1 Z=29 Rmt= 1.232 Rnm= 1.330
# # Pot 2 Z=50 Rmt= 1.382 Rnm= 1.504
# # Pot 3 Z= 5 Rmt= 0.756 Rnm= 0.993
# # Pot 4 Z= 8 Rmt= 1.033 Rnm= 1.108
# # Gam_ch=1.729E+00 H-L exch Vi= 0.000E+00 Vr= 0.000E+00
# # Mu=-7.078E+00eV kf=2.237E+00 Vint=-1.585E+01eV Rs_int= 1.621
# FMS rfms= 9.0000
# # PATH  Rmax=-1.000,  Keep_limit= 0.00, Heap_limit 0.00  Pwcrit= 2.50%
#  S02=0.950  Temp=   0.00  Debye_temp=   0.00  Global_sig2= 0.00000
#  Energy zero shift, vr, vi    0.00000E+00   0.00000E+00
#  Curved wave amplitude ratio filter   4.000%
#     file         sig2 tot  cw amp ratio   deg  nlegs   reff  inp sig2
#     0/   0 paths used
#  xsedge+ 50, used to normalize mu           2.4685E-04
#  -----------------------------------------------------------------------
#  omega    e    k    mu    mu0     chi     @#
    8983.428    -10.888  -1.000  3.60979E-02  5.15929E-02 -1.54950E-02
    8983.727    -10.589  -0.960  3.78284E-02  5.52888E-02 -1.74604E-02
    8984.014    -10.303  -0.920  3.96623E-02  5.93920E-02 -1.97296E-02
    8984.288    -10.028  -0.880  4.16064E-02  6.39622E-02 -2.23558E-02
    8984.550     -9.766  -0.840  4.36676E-02  6.90690E-02 -2.54014E-02
    8984.800     -9.516  -0.800  4.58530E-02  7.47928E-02 -2.89398E-02
    8985.038     -9.279  -0.760  4.81698E-02  8.12260E-02 -3.30562E-02
    8985.263     -9.053  -0.720  5.06250E-02  8.84728E-02 -3.78478E-02
    8985.477     -8.840  -0.680  5.32248E-02  9.66481E-02 -4.34233E-02
    8985.678     -8.638  -0.640  5.59741E-02  1.05873E-01 -4.98989E-02
    8985.867     -8.449  -0.600  5.88754E-02  1.16266E-01 -5.73909E-02
    8986.044     -8.273  -0.560  6.19272E-02  1.27929E-01 -6.60022E-02
    8986.208     -8.108  -0.520  6.51218E-02  1.40922E-01 -7.58006E-02
    8986.361     -7.956  -0.480  6.84425E-02  1.55231E-01 -8.67890E-02
    8986.501     -7.816  -0.440  7.18599E-02  1.70731E-01 -9.88710E-02
    8986.629     -7.687  -0.400  7.53303E-02  1.87152E-01 -1.11821E-01
    8986.745     -7.572  -0.360  7.87940E-02  2.04071E-01 -1.25277E-01
    8986.848     -7.468  -0.320  8.21782E-02  2.20940E-01 -1.38762E-01
    8986.940     -7.377  -0.280  8.54022E-02  2.37149E-01 -1.51747E-01
    8987.019     -7.297  -0.240  8.83845E-02  2.52111E-01 -1.63727E-01
    8987.086     -7.230  -0.200  9.10492E-02  2.65335E-01 -1.74286E-01
    8987.141     -7.175  -0.160  9.33297E-02  2.76460E-01 -1.83131E-01
    8987.184     -7.133  -0.120  9.51704E-02  2.85256E-01 -1.90085E-01
    8987.214     -7.102  -0.080  9.65273E-02  2.91593E-01 -1.95066E-01
    8987.238     -7.078   0.000  9.76601E-02  2.96686E-01 -1.99026E-01
    8987.293     -7.023   0.120  1.00312E-01  3.08179E-01 -2.07867E-01
    8987.336     -6.980   0.160  1.02343E-01  3.17102E-01 -2.14759E-01
    8987.391     -6.925   0.200  1.04979E-01  3.28498E-01 -2.23518E-01
    8987.458     -6.858   0.240  1.08294E-01  3.42233E-01 -2.33938E-01
    8987.537     -6.779   0.280  1.12302E-01  3.57997E-01 -2.45695E-01
    8987.629     -6.688   0.320  1.17074E-01  3.75397E-01 -2.58324E-01
    8987.732     -6.584   0.360  1.22748E-01  3.93982E-01 -2.71234E-01
    8987.848     -6.468   0.400  1.29416E-01  4.13167E-01 -2.83751E-01
    8987.976     -6.340   0.440  1.37302E-01  4.32494E-01 -2.95192E-01
    8988.116     -6.200   0.480  1.46620E-01  4.51575E-01 -3.04955E-01
    8988.269     -6.048   0.520  1.57686E-01  4.70176E-01 -3.12490E-01
    8988.433     -5.883   0.560  1.70853E-01  4.88188E-01 -3.17336E-01
    8988.610     -5.706   0.600  1.86460E-01  5.05582E-01 -3.19123E-01
    8988.799     -5.517   0.640  2.04787E-01  5.22392E-01 -3.17605E-01
    8989.000     -5.316   0.680  2.25999E-01  5.38683E-01 -3.12683E-01
    8989.213     -5.103   0.720  2.50167E-01  5.54575E-01 -3.04408E-01
    8989.439     -4.877   0.760  2.77230E-01  5.70126E-01 -2.92896E-01
    8989.677     -4.639   0.800  3.07591E-01  5.85426E-01 -2.77835E-01
    8989.927     -4.390   0.840  3.42058E-01  6.00531E-01 -2.58473E-01
    8990.189     -4.127   0.880  3.81455E-01  6.15465E-01 -2.34010E-01
    8990.463     -3.853   0.920  4.26492E-01  6.30282E-01 -2.03791E-01
    8990.750     -3.567   0.960  4.76846E-01  6.45023E-01 -1.68177E-01
    8991.048     -3.268   1.000  5.27203E-01  6.59656E-01 -1.32453E-01
    8991.359     -2.957   1.040  5.65649E-01  6.74205E-01 -1.08556E-01
    8991.682     -2.634   1.080  5.82953E-01  6.88685E-01 -1.05732E-01
    8992.018     -2.299   1.120  5.82956E-01  7.03044E-01 -1.20089E-01
    8992.365     -1.951   1.160  5.77704E-01  7.17309E-01 -1.39605E-01
    8992.725     -1.592   1.200  5.75347E-01  7.31419E-01 -1.56071E-01
    8993.097     -1.220   1.240  5.77386E-01  7.45369E-01 -1.67984E-01
    8993.481     -0.836   1.280  5.85794E-01  7.59136E-01 -1.73342E-01
    8993.877     -0.439   1.320  6.07794E-01  7.72694E-01 -1.64900E-01
    8994.285     -0.031   1.360  6.48808E-01  7.86014E-01 -1.37206E-01
    8994.706      0.390   1.400  7.01678E-01  7.99066E-01 -9.73881E-02
    8995.139      0.822   1.440  7.46626E-01  8.11822E-01 -6.51952E-02
    8995.584      1.268   1.480  7.71194E-01  8.24271E-01 -5.30769E-02
    8996.041      1.725   1.520  7.82544E-01  8.36365E-01 -5.38211E-02
    8996.510      2.194   1.560  7.96577E-01  8.48094E-01 -5.15171E-02
    8996.992      2.676   1.600  8.24296E-01  8.59451E-01 -3.51556E-02
    8997.486      3.169   1.640  8.64722E-01  8.70388E-01 -5.66631E-03
    8997.992      3.675   1.680  9.12006E-01  8.80918E-01  3.10874E-02
    8998.510      4.194   1.720  9.65835E-01  8.90995E-01  7.48400E-02
    8999.040      4.724   1.760  1.03318E+00  9.00634E-01  1.32549E-01
    8999.583      5.266   1.800  1.12040E+00  9.09834E-01  2.10567E-01
    9000.137      5.821   1.840  1.22335E+00  9.18551E-01  3.04800E-01
    9000.704      6.388   1.880  1.32022E+00  9.26803E-01  3.93414E-01
    9001.283      6.967   1.920  1.38303E+00  9.34591E-01  4.48435E-01
    9001.875      7.559   1.960  1.39590E+00  9.41916E-01  4.53987E-01
    9002.478      8.162   2.000  1.35440E+00  9.48760E-01  4.05638E-01
    9003.094      8.778   2.040  1.27038E+00  9.55167E-01  3.15216E-01
    9003.722      9.406   2.080  1.17213E+00  9.61121E-01  2.11011E-01
    9004.362     10.046   2.120  1.08711E+00  9.66626E-01  1.20488E-01
    9005.014     10.698   2.160  1.02943E+00  9.71687E-01  5.77463E-02
    9005.679     11.362   2.200  9.99639E-01  9.76351E-01  2.32876E-02
    9006.355     12.039   2.240  9.91521E-01  9.80587E-01  1.09337E-02
    9007.044     12.728   2.280  9.99763E-01  9.84461E-01  1.53018E-02
    9007.745     13.429   2.320  1.01714E+00  9.87919E-01  2.92237E-02
    9008.458     14.142   2.360  1.03675E+00  9.91051E-01  4.56964E-02
    9009.184     14.868   2.400  1.05990E+00  9.93805E-01  6.60908E-02
    9009.921     15.605   2.440  1.08595E+00  9.96250E-01  8.96969E-02
    9010.671     16.355   2.480  1.10725E+00  9.98375E-01  1.08880E-01
    9011.433     17.117   2.520  1.11965E+00  1.00021E+00  1.19440E-01
    9012.207     17.891   2.560  1.12328E+00  1.00178E+00  1.21498E-01
    9012.994     18.678   2.600  1.11907E+00  1.00308E+00  1.15985E-01
    9013.792     19.476   2.640  1.10414E+00  1.00414E+00  1.00009E-01
    9014.603     20.287   2.680  1.08004E+00  1.00497E+00  7.50696E-02
    9015.426     21.110   2.720  1.05345E+00  1.00558E+00  4.78697E-02
    9016.261     21.945   2.760  1.02544E+00  1.00602E+00  1.94275E-02
    9017.109     22.792   2.800  9.97267E-01  1.00628E+00 -9.01385E-03
    9017.968     23.652   2.840  9.71242E-01  1.00638E+00 -3.51401E-02
    9018.840     24.524   2.880  9.49180E-01  1.00635E+00 -5.71697E-02
    9019.724     25.408   2.920  9.31609E-01  1.00617E+00 -7.45610E-02
    9020.620     26.304   2.960  9.18784E-01  1.00589E+00 -8.71072E-02
    9021.528     27.212   3.000  9.10288E-01  1.00550E+00 -9.52099E-02
    9022.449     28.132   3.040  9.04933E-01  1.00502E+00 -1.00087E-01
    9023.381     29.065   3.080  9.01259E-01  1.00448E+00 -1.03223E-01
    9024.326     30.010   3.120  8.97857E-01  1.00385E+00 -1.05991E-01
    9025.283     30.967   3.160  8.94075E-01  1.00319E+00 -1.09111E-01
    9026.253     31.936   3.200  8.90192E-01  1.00246E+00 -1.12268E-01
    9027.234     32.918   3.240  8.87070E-01  1.00172E+00 -1.14647E-01
    9028.228     33.911   3.280  8.85348E-01  1.00094E+00 -1.15590E-01
    9029.234     34.917   3.320  8.85508E-01  1.00013E+00 -1.14620E-01
    9030.252     35.935   3.360  8.87778E-01  9.99333E-01 -1.11555E-01
    9031.282     36.966   3.400  8.91970E-01  9.98517E-01 -1.06547E-01
    9032.324     38.008   3.440  8.97775E-01  9.97723E-01 -9.99484E-02
    9033.379     39.063   3.480  9.04911E-01  9.96932E-01 -9.20210E-02
    9034.446     40.129   3.520  9.13160E-01  9.96149E-01 -8.29884E-02
    9035.525     41.208   3.560  9.22250E-01  9.95396E-01 -7.31453E-02
    9036.616     42.300   3.600  9.31971E-01  9.94675E-01 -6.27040E-02
    9037.719     43.403   3.640  9.42131E-01  9.93968E-01 -5.18369E-02
    9038.835     44.518   3.680  9.52557E-01  9.93298E-01 -4.07411E-02
    9039.962     45.646   3.720  9.62993E-01  9.92687E-01 -2.96939E-02
    9041.102     46.786   3.760  9.73276E-01  9.92094E-01 -1.88173E-02
    9042.255     47.938   3.800  9.83332E-01  9.91541E-01 -8.20892E-03
    9043.419     49.103   3.840  9.93104E-01  9.91051E-01  2.05282E-03
    9044.595     50.279   3.880  1.00253E+00  9.90583E-01  1.19447E-02
    9045.784     51.468   3.920  1.01158E+00  9.90178E-01  2.14017E-02
    9046.985     52.669   3.960  1.02001E+00  9.89819E-01  3.01927E-02
    9048.198     53.882   4.000  1.02750E+00  9.89524E-01  3.79785E-02
    9049.423     55.107   4.040  1.03369E+00  9.89251E-01  4.44362E-02
    9050.661     56.345   4.080  1.03846E+00  9.89044E-01  4.94159E-02
    9051.911     57.594   4.120  1.04198E+00  9.88882E-01  5.30962E-02
    9053.172     58.856   4.160  1.04483E+00  9.88784E-01  5.60497E-02
    9054.446     60.130   4.200  1.04760E+00  9.88708E-01  5.88937E-02
    9055.733     61.416   4.240  1.05078E+00  9.88695E-01  6.20888E-02
    9057.031     62.715   4.280  1.05452E+00  9.88724E-01  6.57971E-02
    9058.342     64.026   4.320  1.05861E+00  9.88770E-01  6.98396E-02
    9059.665     65.348   4.360  1.06267E+00  9.88878E-01  7.37916E-02
    9061.000     66.683   4.400  1.06624E+00  9.89028E-01  7.72148E-02
    9062.347     68.031   4.440  1.06905E+00  9.89216E-01  7.98297E-02
    9063.706     69.390   4.480  1.07083E+00  9.89441E-01  8.13862E-02
    9065.078     70.762   4.520  1.07124E+00  9.89681E-01  8.15583E-02
    9066.462     72.145   4.560  1.06980E+00  9.89979E-01  7.98252E-02
    9067.858     73.541   4.600  1.06579E+00  9.90288E-01  7.55067E-02
    9069.266     74.950   4.640  1.05874E+00  9.90606E-01  6.81317E-02
    9070.686     76.370   4.680  1.04876E+00  9.90978E-01  5.77844E-02
    9072.119     77.802   4.720  1.03641E+00  9.91337E-01  4.50759E-02
    9073.563     79.247   4.760  1.02267E+00  9.91724E-01  3.09490E-02
    9075.020     80.704   4.800  1.00854E+00  9.92139E-01  1.64057E-02
    9076.490     82.173   4.840  9.94882E-01  9.92558E-01  2.32411E-03
    9077.971     83.655   4.880  9.82426E-01  9.92956E-01 -1.05299E-02
    9079.464     85.148   4.920  9.71793E-01  9.93377E-01 -2.15844E-02
    9080.970     86.654   4.960  9.63249E-01  9.93800E-01 -3.05511E-02
    9082.488     88.172   5.000  9.56711E-01  9.94221E-01 -3.75101E-02
    9084.018     89.702   5.040  9.51741E-01  9.94642E-01 -4.29005E-02
    9085.560     91.244   5.080  9.47773E-01  9.95059E-01 -4.72864E-02
    9087.115     92.799   5.120  9.44369E-01  9.95471E-01 -5.11021E-02
    9088.681     94.365   5.160  9.41409E-01  9.95854E-01 -5.44455E-02
    9090.260     95.944   5.200  9.39129E-01  9.96228E-01 -5.70984E-02
    9091.851     97.535   5.240  9.37772E-01  9.96570E-01 -5.87985E-02
    9093.455     99.138   5.280  9.37479E-01  9.96903E-01 -5.94237E-02
    9095.070    100.754   5.320  9.38188E-01  9.97204E-01 -5.90156E-02
    9096.698    102.381   5.360  9.39916E-01  9.97494E-01 -5.75776E-02
    9098.338    104.021   5.400  9.42696E-01  9.97750E-01 -5.50534E-02
    9099.990    105.673   5.440  9.46679E-01  9.97991E-01 -5.13118E-02
    9101.654    107.337   5.480  9.51897E-01  9.98174E-01 -4.62768E-02
    9103.330    109.014   5.520  9.58331E-01  9.98342E-01 -4.00109E-02
    9105.019    110.702   5.560  9.65685E-01  9.98473E-01 -3.27886E-02
    9106.719    112.403   5.600  9.73541E-01  9.98567E-01 -2.50267E-02
    9108.432    114.116   5.640  9.81447E-01  9.98646E-01 -1.71992E-02
    9110.158    115.841   5.680  9.88958E-01  9.98663E-01 -9.70490E-03
    9111.895    117.579   5.720  9.95828E-01  9.98663E-01 -2.83526E-03
    9113.644    119.328   5.760  1.00180E+00  9.98602E-01  3.19334E-03
    9115.406    121.090   5.800  1.00671E+00  9.98527E-01  8.18187E-03
    9117.180    122.864   5.840  1.01040E+00  9.98415E-01  1.19825E-02
    9118.966    124.650   5.880  1.01281E+00  9.98265E-01  1.45480E-02
    9120.765    126.448   5.920  1.01397E+00  9.98079E-01  1.58961E-02
    9122.575    128.259   5.960  1.01387E+00  9.97852E-01  1.60151E-02
    9124.398    130.082   6.000  1.01251E+00  9.97565E-01  1.49464E-02
