# # comment:                                                     FEFF 9.9.1  
# # Source:
# # Structure
# # Reduced
# # space
# # abc:
# # angles:
# # sites:
# # POT  SCF 100  7.0000   0, screened core-hole, AFOLP (folp(0)= 1.150)
# # Abs   Z=29 Rmt= 1.265 Rnm= 1.334 K  shell
# # Pot 1 Z=19 Rmt= 1.846 Rnm= 1.878
# # Pot 2 Z=23 Rmt= 1.099 Rnm= 1.313
# # Pot 3 Z=29 Rmt= 1.266 Rnm= 1.339
# # Pot 4 Z= 8 Rmt= 0.970 Rnm= 1.098
# # Gam_ch=1.729E+00 H-L exch Vi= 0.000E+00 Vr= 0.000E+00
# # Mu=-8.851E+00eV kf=2.212E+00 Vint=-1.695E+01eV Rs_int= 1.640
# FMS rfms= 9.0000
# # PATH  Rmax=-1.000,  Keep_limit= 0.00, Heap_limit 0.00  Pwcrit= 2.50%
#  S02=0.950  Temp=   0.00  Debye_temp=   0.00  Global_sig2= 0.00000
#  Energy zero shift, vr, vi    0.00000E+00   0.00000E+00
#  Curved wave amplitude ratio filter   4.000%
#     file         sig2 tot  cw amp ratio   deg  nlegs   reff  inp sig2
#     0/   0 paths used
#  xsedge+ 50, used to normalize mu           2.4724E-04
#  -----------------------------------------------------------------------
#  omega    e    k    mu    mu0     chi     @#
    8984.027    -12.661  -1.000  3.39300E-02  4.97345E-02 -1.58045E-02
    8984.326    -12.362  -0.960  3.55395E-02  5.32309E-02 -1.76915E-02
    8984.612    -12.075  -0.920  3.72573E-02  5.71068E-02 -1.98495E-02
    8984.887    -11.801  -0.880  3.90942E-02  6.14171E-02 -2.23229E-02
    8985.149    -11.539  -0.840  4.10624E-02  6.62260E-02 -2.51636E-02
    8985.399    -11.289  -0.800  4.31756E-02  7.16074E-02 -2.84318E-02
    8985.636    -11.051  -0.760  4.54488E-02  7.76465E-02 -3.21976E-02
    8985.862    -10.826  -0.720  4.78984E-02  8.44389E-02 -3.65405E-02
    8986.075    -10.612  -0.680  5.05416E-02  9.20902E-02 -4.15486E-02
    8986.276    -10.411  -0.640  5.33956E-02  1.00711E-01 -4.73158E-02
    8986.465    -10.222  -0.600  5.64760E-02  1.10411E-01 -5.39355E-02
    8986.642    -10.045  -0.560  5.97944E-02  1.21283E-01 -6.14886E-02
    8986.807     -9.881  -0.520  6.33548E-02  1.33380E-01 -7.00257E-02
    8986.959     -9.728  -0.480  6.71489E-02  1.46690E-01 -7.95412E-02
    8987.099     -9.588  -0.440  7.11505E-02  1.61095E-01 -8.99450E-02
    8987.227     -9.460  -0.400  7.53107E-02  1.76348E-01 -1.01037E-01
    8987.343     -9.344  -0.360  7.95552E-02  1.92058E-01 -1.12503E-01
    8987.447     -9.241  -0.320  8.37860E-02  2.07718E-01 -1.23932E-01
    8987.538     -9.149  -0.280  8.78880E-02  2.22766E-01 -1.34878E-01
    8987.618     -9.070  -0.240  9.17394E-02  2.36660E-01 -1.44920E-01
    8987.685     -9.003  -0.200  9.52218E-02  2.48943E-01 -1.53721E-01
    8987.739     -8.948  -0.160  9.82288E-02  2.59281E-01 -1.61053E-01
    8987.782     -8.906  -0.120  1.00671E-01  2.67458E-01 -1.66787E-01
    8987.813     -8.875  -0.080  1.02480E-01  2.73352E-01 -1.70872E-01
    8987.837     -8.851   0.000  1.03992E-01  2.78090E-01 -1.74098E-01
    8987.892     -8.796   0.120  1.07424E-01  2.88796E-01 -1.81372E-01
    8987.935     -8.753   0.160  1.10115E-01  2.97108E-01 -1.86993E-01
    8987.989     -8.698   0.200  1.13638E-01  3.07738E-01 -1.94100E-01
    8988.056     -8.631   0.240  1.18011E-01  3.20533E-01 -2.02522E-01
    8988.136     -8.552   0.280  1.23318E-01  3.35273E-01 -2.11955E-01
    8988.227     -8.461   0.320  1.29562E-01  3.51603E-01 -2.22041E-01
    8988.331     -8.357   0.360  1.36609E-01  3.69040E-01 -2.32431E-01
    8988.447     -8.241   0.400  1.44353E-01  3.87133E-01 -2.42780E-01
    8988.575     -8.113   0.440  1.52509E-01  4.05450E-01 -2.52941E-01
    8988.715     -7.973   0.480  1.60741E-01  4.23636E-01 -2.62895E-01
    8988.867     -7.820   0.520  1.68876E-01  4.41482E-01 -2.72606E-01
    8989.032     -7.656   0.560  1.76964E-01  4.58889E-01 -2.81925E-01
    8989.209     -7.479   0.600  1.85166E-01  4.75807E-01 -2.90642E-01
    8989.398     -7.290   0.640  1.93573E-01  4.92308E-01 -2.98735E-01
    8989.599     -7.089   0.680  2.01699E-01  5.08428E-01 -3.06729E-01
    8989.812     -6.876   0.720  2.08865E-01  5.24277E-01 -3.15413E-01
    8990.038     -6.650   0.760  2.14665E-01  5.39904E-01 -3.25239E-01
    8990.275     -6.412   0.800  2.19842E-01  5.55389E-01 -3.35547E-01
    8990.525     -6.162   0.840  2.26307E-01  5.70758E-01 -3.44451E-01
    8990.787     -5.900   0.880  2.36612E-01  5.86089E-01 -3.49478E-01
    8991.062     -5.626   0.920  2.52678E-01  6.01387E-01 -3.48709E-01
    8991.348     -5.339   0.960  2.74777E-01  6.16647E-01 -3.41870E-01
    8991.647     -5.041   1.000  3.01288E-01  6.31914E-01 -3.30626E-01
    8991.958     -4.730   1.040  3.29305E-01  6.47165E-01 -3.17860E-01
    8992.281     -4.407   1.080  3.56524E-01  6.62389E-01 -3.05865E-01
    8992.616     -4.071   1.120  3.82703E-01  6.77572E-01 -2.94869E-01
    8992.964     -3.724   1.160  4.09670E-01  6.92696E-01 -2.83025E-01
    8993.323     -3.364   1.200  4.41017E-01  7.07716E-01 -2.66699E-01
    8993.695     -2.992   1.240  4.81007E-01  7.22625E-01 -2.41618E-01
    8994.079     -2.608   1.280  5.32068E-01  7.37394E-01 -2.05326E-01
    8994.476     -2.212   1.320  5.91190E-01  7.51975E-01 -1.60785E-01
    8994.884     -1.804   1.360  6.49034E-01  7.66334E-01 -1.17300E-01
    8995.305     -1.383   1.400  7.00375E-01  7.80440E-01 -8.00644E-02
    8995.737     -0.950   1.440  7.49724E-01  7.94279E-01 -4.45549E-02
    8996.182     -0.505   1.480  7.99835E-01  8.07800E-01 -7.96530E-03
    8996.640     -0.048   1.520  8.43357E-01  8.20990E-01  2.23671E-02
    8997.109      0.421   1.560  8.74688E-01  8.33817E-01  4.08714E-02
    8997.591      0.903   1.600  8.97099E-01  8.46229E-01  5.08705E-02
    8998.084      1.397   1.640  9.12751E-01  8.58237E-01  5.45143E-02
    8998.590      1.903   1.680  9.22122E-01  8.69812E-01  5.23104E-02
    8999.108      2.421   1.720  9.29774E-01  8.80926E-01  4.88487E-02
    8999.639      2.951   1.760  9.47588E-01  8.91571E-01  5.60169E-02
    9000.181      3.494   1.800  9.92791E-01  9.01723E-01  9.10674E-02
    9000.736      4.048   1.840  1.08011E+00  9.11376E-01  1.68733E-01
    9001.303      4.615   1.880  1.21071E+00  9.20549E-01  2.90156E-01
    9001.882      5.194   1.920  1.36960E+00  9.29201E-01  4.40402E-01
    9002.473      5.786   1.960  1.52605E+00  9.37350E-01  5.88703E-01
    9003.077      6.389   2.000  1.62711E+00  9.44978E-01  6.82134E-01
    9003.693      7.005   2.040  1.62826E+00  9.52127E-01  6.76134E-01
    9004.321      7.633   2.080  1.53675E+00  9.58763E-01  5.77992E-01
    9004.961      8.273   2.120  1.39338E+00  9.64927E-01  4.28456E-01
    9005.613      8.925   2.160  1.24386E+00  9.70605E-01  2.73255E-01
    9006.277      9.590   2.200  1.11960E+00  9.75825E-01  1.43776E-01
    9006.954     10.266   2.240  1.02896E+00  9.80573E-01  4.83830E-02
    9007.643     10.955   2.280  9.71914E-01  9.84896E-01 -1.29823E-02
    9008.344     11.656   2.320  9.46094E-01  9.88802E-01 -4.27085E-02
    9009.057     12.369   2.360  9.41617E-01  9.92301E-01 -5.06847E-02
    9009.783     13.095   2.400  9.47474E-01  9.95403E-01 -4.79280E-02
    9010.520     13.832   2.440  9.57721E-01  9.98133E-01 -4.04120E-02
    9011.270     14.582   2.480  9.69760E-01  1.00052E+00 -3.07642E-02
    9012.032     15.344   2.520  9.80609E-01  1.00259E+00 -2.19782E-02
    9012.806     16.118   2.560  9.86987E-01  1.00433E+00 -1.73426E-02
    9013.593     16.905   2.600  9.89236E-01  1.00578E+00 -1.65451E-02
    9014.391     17.703   2.640  9.91983E-01  1.00695E+00 -1.49687E-02
    9015.202     18.514   2.680  9.95328E-01  1.00787E+00 -1.25420E-02
    9016.025     19.337   2.720  9.99218E-01  1.00855E+00 -9.32970E-03
    9016.860     20.172   2.760  1.00212E+00  1.00901E+00 -6.89378E-03
    9017.707     21.020   2.800  1.00207E+00  1.00927E+00 -7.20296E-03
    9018.567     21.879   2.840  9.97752E-01  1.00934E+00 -1.15903E-02
    9019.439     22.751   2.880  9.88531E-01  1.00927E+00 -2.07350E-02
    9020.322     23.635   2.920  9.74319E-01  1.00903E+00 -3.47123E-02
    9021.219     24.531   2.960  9.55926E-01  1.00865E+00 -5.27220E-02
    9022.127     25.439   3.000  9.34977E-01  1.00816E+00 -7.31862E-02
    9023.047     26.360   3.040  9.13395E-01  1.00756E+00 -9.41689E-02
    9023.980     27.292   3.080  8.93247E-01  1.00688E+00 -1.13632E-01
    9024.925     28.237   3.120  8.76168E-01  1.00613E+00 -1.29965E-01
    9025.882     29.194   3.160  8.63228E-01  1.00529E+00 -1.42064E-01
    9026.851     30.164   3.200  8.54990E-01  1.00440E+00 -1.49413E-01
    9027.833     31.145   3.240  8.51827E-01  1.00349E+00 -1.51663E-01
    9028.826     32.139   3.280  8.53289E-01  1.00252E+00 -1.49232E-01
    9029.832     33.145   3.320  8.59045E-01  1.00154E+00 -1.42494E-01
    9030.850     34.163   3.360  8.68554E-01  1.00055E+00 -1.31995E-01
    9031.880     35.193   3.400  8.81057E-01  9.99558E-01 -1.18501E-01
    9032.923     36.235   3.440  8.95706E-01  9.98565E-01 -1.02859E-01
    9033.977     37.290   3.480  9.11802E-01  9.97575E-01 -8.57732E-02
    9035.044     38.357   3.520  9.28730E-01  9.96592E-01 -6.78617E-02
    9036.123     39.436   3.560  9.45875E-01  9.95639E-01 -4.97635E-02
    9037.214     40.527   3.600  9.62808E-01  9.94720E-01 -3.19127E-02
    9038.318     41.630   3.640  9.79180E-01  9.93838E-01 -1.46576E-02
    9039.433     42.746   3.680  9.94697E-01  9.92972E-01  1.72495E-03
    9040.561     43.873   3.720  1.00924E+00  9.92166E-01  1.70778E-02
    9041.701     45.013   3.760  1.02269E+00  9.91403E-01  3.12884E-02
    9042.853     46.166   3.800  1.03489E+00  9.90682E-01  4.42087E-02
    9044.018     47.330   3.840  1.04565E+00  9.90003E-01  5.56481E-02
    9045.194     48.506   3.880  1.05477E+00  9.89370E-01  6.53949E-02
    9046.383     49.695   3.920  1.06205E+00  9.88805E-01  7.32423E-02
    9047.584     50.896   3.960  1.06739E+00  9.88308E-01  7.90777E-02
    9048.797     52.109   4.000  1.07091E+00  9.87838E-01  8.30747E-02
    9050.022     53.334   4.040  1.07288E+00  9.87456E-01  8.54245E-02
    9051.260     54.572   4.080  1.07327E+00  9.87101E-01  8.61689E-02
    9052.509     55.822   4.120  1.07200E+00  9.86813E-01  8.51903E-02
    9053.771     57.083   4.160  1.06896E+00  9.86572E-01  8.23850E-02
    9055.045     58.357   4.200  1.06417E+00  9.86400E-01  7.77738E-02
    9056.331     59.644   4.240  1.05787E+00  9.86276E-01  7.15947E-02
    9057.630     60.942   4.280  1.05054E+00  9.86220E-01  6.43247E-02
    9058.940     62.253   4.320  1.04263E+00  9.86208E-01  5.64248E-02
    9060.263     63.576   4.360  1.03449E+00  9.86240E-01  4.82493E-02
    9061.598     64.911   4.400  1.02637E+00  9.86316E-01  4.00491E-02
    9062.946     66.258   4.440  1.01847E+00  9.86454E-01  3.20172E-02
    9064.305     67.617   4.480  1.01095E+00  9.86614E-01  2.43380E-02
    9065.677     68.989   4.520  1.00411E+00  9.86834E-01  1.72757E-02
    9067.060     70.373   4.560  9.98209E-01  9.87072E-01  1.11363E-02
    9068.456     71.769   4.600  9.93445E-01  9.87370E-01  6.07557E-03
    9069.864     73.177   4.640  9.89742E-01  9.87682E-01  2.05992E-03
    9071.285     74.597   4.680  9.86938E-01  9.88028E-01 -1.09076E-03
    9072.717     76.030   4.720  9.84784E-01  9.88409E-01 -3.62494E-03
    9074.162     77.474   4.760  9.83013E-01  9.88801E-01 -5.78809E-03
    9075.619     78.931   4.800  9.81371E-01  9.89224E-01 -7.85288E-03
    9077.088     80.401   4.840  9.79572E-01  9.89676E-01 -1.01041E-02
    9078.570     81.882   4.880  9.77403E-01  9.90111E-01 -1.27084E-02
    9080.063     83.375   4.920  9.74958E-01  9.90572E-01 -1.56149E-02
    9081.569     84.881   4.960  9.72480E-01  9.91038E-01 -1.85583E-02
    9083.087     86.399   5.000  9.70376E-01  9.91526E-01 -2.11497E-02
    9084.617     87.929   5.040  9.68834E-01  9.91993E-01 -2.31585E-02
    9086.159     89.471   5.080  9.67927E-01  9.92455E-01 -2.45280E-02
    9087.713     91.026   5.120  9.67520E-01  9.92914E-01 -2.53940E-02
    9089.280     92.592   5.160  9.67369E-01  9.93369E-01 -2.60004E-02
    9090.859     94.171   5.200  9.67251E-01  9.93796E-01 -2.65449E-02
    9092.450     95.762   5.240  9.67167E-01  9.94237E-01 -2.70705E-02
    9094.053     97.366   5.280  9.67240E-01  9.94626E-01 -2.73861E-02
    9095.669     98.981   5.320  9.67703E-01  9.95004E-01 -2.73008E-02
    9097.296    100.609   5.360  9.68556E-01  9.95372E-01 -2.68160E-02
    9098.936    102.248   5.400  9.69572E-01  9.95706E-01 -2.61344E-02
    9100.588    103.900   5.440  9.70525E-01  9.96006E-01 -2.54810E-02
    9102.252    105.565   5.480  9.71210E-01  9.96292E-01 -2.50825E-02
    9103.929    107.241   5.520  9.71351E-01  9.96541E-01 -2.51907E-02
    9105.617    108.930   5.560  9.70775E-01  9.96752E-01 -2.59774E-02
    9107.318    110.630   5.600  9.69549E-01  9.96924E-01 -2.73750E-02
    9109.031    112.343   5.640  9.68050E-01  9.97055E-01 -2.90051E-02
    9110.756    114.069   5.680  9.66820E-01  9.97146E-01 -3.03261E-02
    9112.494    115.806   5.720  9.66321E-01  9.97198E-01 -3.08771E-02
    9114.243    117.555   5.760  9.66818E-01  9.97212E-01 -3.03944E-02
    9116.005    119.317   5.800  9.68409E-01  9.97210E-01 -2.88002E-02
    9117.779    121.091   5.840  9.71054E-01  9.97144E-01 -2.60899E-02
    9119.565    122.877   5.880  9.74751E-01  9.97037E-01 -2.22869E-02
    9121.363    124.676   5.920  9.79403E-01  9.96891E-01 -1.74875E-02
    9123.174    126.486   5.960  9.84815E-01  9.96702E-01 -1.18866E-02
    9124.996    128.309   6.000  9.90985E-01  9.96449E-01 -5.46389E-03
