# # comment:                                                     FEFF 9.9.1  
# # Source:
# # Structure
# # Reduced
# # space
# # abc:
# # angles:
# # sites:
# # POT  SCF 100  7.0000   0, screened core-hole, AFOLP (folp(0)= 1.150)
# # Abs   Z=29 Rmt= 1.277 Rnm= 1.335 K  shell
# # Pot 1 Z=29 Rmt= 1.354 Rnm= 1.393
# # Pot 2 Z= 8 Rmt= 0.930 Rnm= 1.057
# # Gam_ch=1.729E+00 H-L exch Vi= 0.000E+00 Vr= 0.000E+00
# # Mu=-7.933E+00eV kf=2.000E+00 Vint=-1.669E+01eV Rs_int= 1.813
# FMS rfms= 9.0000
# # PATH  Rmax=-1.000,  Keep_limit= 0.00, Heap_limit 0.00  Pwcrit= 2.50%
#  S02=0.950  Temp=   0.00  Debye_temp=   0.00  Global_sig2= 0.00000
#  Energy zero shift, vr, vi    0.00000E+00   0.00000E+00
#  Curved wave amplitude ratio filter   4.000%
#     file         sig2 tot  cw amp ratio   deg  nlegs   reff  inp sig2
#     0/   0 paths used
#  xsedge+ 50, used to normalize mu           2.4423E-04
#  -----------------------------------------------------------------------
#  omega    e    k    mu    mu0     chi     @#
    8984.501    -11.743  -1.000  4.62309E-02  5.77620E-02 -1.15311E-02
    8984.799    -11.444  -0.960  4.93099E-02  6.20778E-02 -1.27679E-02
    8985.086    -11.157  -0.920  5.27158E-02  6.68826E-02 -1.41668E-02
    8985.360    -10.883  -0.880  5.64966E-02  7.22493E-02 -1.57527E-02
    8985.622    -10.621  -0.840  6.07080E-02  7.82623E-02 -1.75543E-02
    8985.872    -10.371  -0.800  6.54147E-02  8.50198E-02 -1.96051E-02
    8986.110    -10.133  -0.760  7.06909E-02  9.26345E-02 -2.19435E-02
    8986.335     -9.908  -0.720  7.66204E-02  1.01234E-01 -2.46131E-02
    8986.549     -9.694  -0.680  8.32954E-02  1.10957E-01 -2.76620E-02
    8986.750     -9.493  -0.640  9.08132E-02  1.21954E-01 -3.11411E-02
    8986.939     -9.304  -0.600  9.92694E-02  1.34370E-01 -3.51005E-02
    8987.116     -9.128  -0.560  1.08746E-01  1.48329E-01 -3.95832E-02
    8987.280     -8.963  -0.520  1.19291E-01  1.63905E-01 -4.46147E-02
    8987.433     -8.811  -0.480  1.30895E-01  1.81085E-01 -5.01894E-02
    8987.573     -8.670  -0.440  1.43462E-01  1.99715E-01 -5.62539E-02
    8987.701     -8.542  -0.400  1.56778E-01  2.19472E-01 -6.26941E-02
    8987.817     -8.426  -0.360  1.70510E-01  2.39841E-01 -6.93315E-02
    8987.920     -8.323  -0.320  1.84221E-01  2.60157E-01 -7.59362E-02
    8988.012     -8.231  -0.280  1.97424E-01  2.79681E-01 -8.22564E-02
    8988.091     -8.152  -0.240  2.09645E-01  2.97701E-01 -8.80558E-02
    8988.158     -8.085  -0.200  2.20479E-01  3.13623E-01 -9.31436E-02
    8988.213     -8.030  -0.160  2.29625E-01  3.27013E-01 -9.73881E-02
    8988.256     -7.988  -0.120  2.36883E-01  3.37596E-01 -1.00713E-01
    8988.286     -7.957  -0.080  2.42134E-01  3.45218E-01 -1.03084E-01
    8988.311     -7.933   0.000  2.46384E-01  3.51340E-01 -1.04956E-01
    8988.365     -7.878   0.120  2.55875E-01  3.65129E-01 -1.09254E-01
    8988.408     -7.835   0.160  2.63278E-01  3.75860E-01 -1.12583E-01
    8988.463     -7.780   0.200  2.72735E-01  3.89542E-01 -1.16807E-01
    8988.530     -7.713   0.240  2.84147E-01  4.05983E-01 -1.21836E-01
    8988.609     -7.634   0.280  2.97321E-01  4.24847E-01 -1.27526E-01
    8988.701     -7.543   0.320  3.11943E-01  4.45623E-01 -1.33680E-01
    8988.804     -7.439   0.360  3.27641E-01  4.67723E-01 -1.40081E-01
    8988.920     -7.323   0.400  3.43903E-01  4.90437E-01 -1.46533E-01
    8989.048     -7.195   0.440  3.60325E-01  5.13215E-01 -1.52890E-01
    8989.188     -7.055   0.480  3.76477E-01  5.35557E-01 -1.59080E-01
    8989.341     -6.902   0.520  3.92034E-01  5.57170E-01 -1.65135E-01
    8989.505     -6.738   0.560  4.06711E-01  5.77876E-01 -1.71165E-01
    8989.682     -6.561   0.600  4.20312E-01  5.97657E-01 -1.77345E-01
    8989.871     -6.372   0.640  4.32608E-01  6.16533E-01 -1.83926E-01
    8990.072     -6.171   0.680  4.43405E-01  6.34628E-01 -1.91223E-01
    8990.286     -5.958   0.720  4.52382E-01  6.51997E-01 -1.99615E-01
    8990.511     -5.732   0.760  4.59281E-01  6.68756E-01 -2.09474E-01
    8990.749     -5.494   0.800  4.63970E-01  6.84970E-01 -2.20999E-01
    8990.999     -5.244   0.840  4.66604E-01  7.00731E-01 -2.34127E-01
    8991.261     -4.982   0.880  4.67724E-01  7.16055E-01 -2.48331E-01
    8991.535     -4.708   0.920  4.68402E-01  7.31023E-01 -2.62621E-01
    8991.822     -4.421   0.960  4.70093E-01  7.45624E-01 -2.75531E-01
    8992.120     -4.123   1.000  4.74522E-01  7.59894E-01 -2.85372E-01
    8992.431     -3.812   1.040  4.83167E-01  7.73819E-01 -2.90653E-01
    8992.754     -3.489   1.080  4.96706E-01  7.87400E-01 -2.90694E-01
    8993.090     -3.153   1.120  5.14934E-01  8.00611E-01 -2.85677E-01
    8993.437     -2.806   1.160  5.37499E-01  8.13482E-01 -2.75983E-01
    8993.797     -2.446   1.200  5.64338E-01  8.25955E-01 -2.61617E-01
    8994.169     -2.074   1.240  5.95253E-01  8.38034E-01 -2.42780E-01
    8994.553     -1.690   1.280  6.28494E-01  8.49698E-01 -2.21204E-01
    8994.949     -1.294   1.320  6.60810E-01  8.60927E-01 -2.00117E-01
    8995.357     -0.886   1.360  6.89520E-01  8.71700E-01 -1.82180E-01
    8995.778     -0.465   1.400  7.14338E-01  8.82015E-01 -1.67677E-01
    8996.211     -0.032   1.440  7.36926E-01  8.91851E-01 -1.54925E-01
    8996.656      0.413   1.480  7.59849E-01  9.01187E-01 -1.41338E-01
    8997.113      0.870   1.520  7.86422E-01  9.10046E-01 -1.23624E-01
    8997.582      1.339   1.560  8.20352E-01  9.18407E-01 -9.80549E-02
    8998.064      1.821   1.600  8.64406E-01  9.26271E-01 -6.18651E-02
    8998.558      2.315   1.640  9.18251E-01  9.33643E-01 -1.53918E-02
    8999.064      2.821   1.680  9.77175E-01  9.40527E-01  3.66477E-02
    8999.582      3.339   1.720  1.03269E+00  9.46927E-01  8.57627E-02
    9000.112      3.869   1.760  1.07617E+00  9.52830E-01  1.23342E-01
    9000.655      4.412   1.800  1.10453E+00  9.58282E-01  1.46249E-01
    9001.210      4.966   1.840  1.12072E+00  9.63273E-01  1.57447E-01
    9001.777      5.533   1.880  1.12849E+00  9.67851E-01  1.60640E-01
    9002.356      6.112   1.920  1.12955E+00  9.71985E-01  1.57565E-01
    9002.947      6.704   1.960  1.12542E+00  9.75724E-01  1.49693E-01
    9003.550      7.307   2.000  1.11814E+00  9.79080E-01  1.39064E-01
    9004.166      7.923   2.040  1.10976E+00  9.82063E-01  1.27701E-01
    9004.794      8.551   2.080  1.10314E+00  9.84725E-01  1.18413E-01
    9005.434      9.191   2.120  1.10325E+00  9.87035E-01  1.16211E-01
    9006.086      9.843   2.160  1.11478E+00  9.89066E-01  1.25718E-01
    9006.751     10.508   2.200  1.13484E+00  9.90809E-01  1.44031E-01
    9007.427     11.184   2.240  1.15027E+00  9.92294E-01  1.57974E-01
    9008.116     11.873   2.280  1.14739E+00  9.93531E-01  1.53856E-01
    9008.817     12.574   2.320  1.12843E+00  9.94552E-01  1.33877E-01
    9009.531     13.287   2.360  1.11068E+00  9.95368E-01  1.15316E-01
    9010.256     14.013   2.400  1.10360E+00  9.96006E-01  1.07598E-01
    9010.994     14.750   2.440  1.09744E+00  9.96478E-01  1.00958E-01
    9011.743     15.500   2.480  1.08704E+00  9.96793E-01  9.02433E-02
    9012.505     16.262   2.520  1.06955E+00  9.97000E-01  7.25514E-02
    9013.280     17.036   2.560  1.04771E+00  9.97089E-01  5.06238E-02
    9014.066     17.823   2.600  1.02548E+00  9.97089E-01  2.83880E-02
    9014.865     18.621   2.640  1.00587E+00  9.97003E-01  8.87068E-03
    9015.675     19.432   2.680  9.90832E-01  9.96861E-01 -6.02870E-03
    9016.498     20.255   2.720  9.80472E-01  9.96649E-01 -1.61779E-02
    9017.333     21.090   2.760  9.74195E-01  9.96394E-01 -2.21994E-02
    9018.181     21.938   2.800  9.70574E-01  9.96121E-01 -2.55473E-02
    9019.040     22.797   2.840  9.68481E-01  9.95815E-01 -2.73341E-02
    9019.912     23.669   2.880  9.67295E-01  9.95502E-01 -2.82067E-02
    9020.796     24.553   2.920  9.66705E-01  9.95185E-01 -2.84799E-02
    9021.692     25.449   2.960  9.66515E-01  9.94869E-01 -2.83537E-02
    9022.600     26.357   3.000  9.66812E-01  9.94558E-01 -2.77456E-02
    9023.521     27.278   3.040  9.67860E-01  9.94277E-01 -2.64160E-02
    9024.454     28.210   3.080  9.69723E-01  9.94028E-01 -2.43051E-02
    9025.398     29.155   3.120  9.72522E-01  9.93815E-01 -2.12927E-02
    9026.355     30.112   3.160  9.76022E-01  9.93618E-01 -1.75961E-02
    9027.325     31.082   3.200  9.79861E-01  9.93480E-01 -1.36198E-02
    9028.306     32.063   3.240  9.83464E-01  9.93361E-01 -9.89756E-03
    9029.300     33.057   3.280  9.86353E-01  9.93306E-01 -6.95294E-03
    9030.306     34.062   3.320  9.88176E-01  9.93296E-01 -5.11949E-03
    9031.324     35.080   3.360  9.88839E-01  9.93329E-01 -4.49018E-03
    9032.354     36.111   3.400  9.88387E-01  9.93427E-01 -5.04014E-03
    9033.396     37.153   3.440  9.86962E-01  9.93571E-01 -6.60941E-03
    9034.451     38.208   3.480  9.84838E-01  9.93759E-01 -8.92109E-03
    9035.518     39.275   3.520  9.82296E-01  9.93992E-01 -1.16962E-02
    9036.597     40.353   3.560  9.79504E-01  9.94292E-01 -1.47877E-02
    9037.688     41.445   3.600  9.76423E-01  9.94635E-01 -1.82122E-02
    9038.791     42.548   3.640  9.72862E-01  9.95021E-01 -2.21595E-02
    9039.907     43.664   3.680  9.68723E-01  9.95451E-01 -2.67278E-02
    9041.035     44.791   3.720  9.64193E-01  9.95944E-01 -3.17513E-02
    9042.175     45.931   3.760  9.59866E-01  9.96457E-01 -3.65903E-02
    9043.327     47.083   3.800  9.56685E-01  9.97029E-01 -4.03445E-02
    9044.491     48.248   3.840  9.55314E-01  9.97620E-01 -4.23054E-02
    9045.668     49.424   3.880  9.55934E-01  9.98248E-01 -4.23142E-02
    9046.856     50.613   3.920  9.58122E-01  9.98932E-01 -4.08093E-02
    9048.057     51.814   3.960  9.61122E-01  9.99607E-01 -3.84853E-02
    9049.270     53.027   4.000  9.64373E-01  1.00034E+00 -3.59634E-02
    9050.496     54.252   4.040  9.67404E-01  1.00108E+00 -3.36719E-02
    9051.733     55.490   4.080  9.69937E-01  1.00182E+00 -3.18842E-02
    9052.983     56.739   4.120  9.71851E-01  1.00259E+00 -3.07423E-02
    9054.245     58.001   4.160  9.73192E-01  1.00337E+00 -3.01772E-02
    9055.519     59.275   4.200  9.74267E-01  1.00415E+00 -2.98826E-02
    9056.805     60.562   4.240  9.75645E-01  1.00495E+00 -2.93055E-02
    9058.103     61.860   4.280  9.77988E-01  1.00573E+00 -2.77390E-02
    9059.414     63.171   4.320  9.81955E-01  1.00650E+00 -2.45449E-02
    9060.737     64.494   4.360  9.87840E-01  1.00727E+00 -1.94264E-02
    9062.072     65.829   4.400  9.95373E-01  1.00800E+00 -1.26303E-02
    9063.419     67.176   4.440  1.00395E+00  1.00873E+00 -4.78540E-03
    9064.778     68.535   4.480  1.01294E+00  1.00945E+00  3.49576E-03
    9066.150     69.907   4.520  1.02212E+00  1.01013E+00  1.19906E-02
    9067.534     71.291   4.560  1.03173E+00  1.01078E+00  2.09510E-02
    9068.930     72.687   4.600  1.04215E+00  1.01138E+00  3.07671E-02
    9070.338     74.095   4.640  1.05335E+00  1.01198E+00  4.13704E-02
    9071.758     75.515   4.680  1.06464E+00  1.01253E+00  5.21139E-02
    9073.191     76.948   4.720  1.07512E+00  1.01304E+00  6.20780E-02
    9074.636     78.392   4.760  1.08386E+00  1.01349E+00  7.03709E-02
    9076.093     79.849   4.800  1.09033E+00  1.01391E+00  7.64153E-02
    9077.562     81.318   4.840  1.09437E+00  1.01429E+00  8.00736E-02
    9079.043     82.800   4.880  1.09594E+00  1.01461E+00  8.13363E-02
    9080.536     84.293   4.920  1.09480E+00  1.01487E+00  7.99230E-02
    9082.042     85.799   4.960  1.09063E+00  1.01509E+00  7.55390E-02
    9083.560     87.317   5.000  1.08376E+00  1.01527E+00  6.84882E-02
    9085.090     88.847   5.040  1.07489E+00  1.01538E+00  5.95113E-02
    9086.632     90.389   5.080  1.06456E+00  1.01543E+00  4.91304E-02
    9088.187     91.944   5.120  1.05301E+00  1.01545E+00  3.75650E-02
    9089.754     93.510   5.160  1.04040E+00  1.01541E+00  2.49876E-02
    9091.332     95.089   5.200  1.02691E+00  1.01531E+00  1.15924E-02
    9092.924     96.680   5.240  1.01292E+00  1.01519E+00 -2.27275E-03
    9094.527     98.284   5.280  9.98847E-01  1.01500E+00 -1.61484E-02
    9096.142     99.899   5.320  9.85350E-01  1.01473E+00 -2.93839E-02
    9097.770    101.527   5.360  9.73348E-01  1.01445E+00 -4.11040E-02
    9099.410    103.166   5.400  9.63731E-01  1.01413E+00 -5.03940E-02
    9101.062    104.818   5.440  9.57080E-01  1.01373E+00 -5.66531E-02
    9102.726    106.483   5.480  9.53453E-01  1.01330E+00 -5.98471E-02
    9104.402    108.159   5.520  9.52268E-01  1.01285E+00 -6.05819E-02
    9106.091    109.848   5.560  9.52521E-01  1.01236E+00 -5.98387E-02
    9107.792    111.548   5.600  9.53508E-01  1.01181E+00 -5.83001E-02
    9109.505    113.261   5.640  9.55135E-01  1.01124E+00 -5.61090E-02
    9111.230    114.987   5.680  9.57307E-01  1.01067E+00 -5.33594E-02
    9112.967    116.724   5.720  9.59387E-01  1.01003E+00 -5.06461E-02
    9114.717    118.473   5.760  9.60788E-01  1.00939E+00 -4.86017E-02
    9116.478    120.235   5.800  9.61810E-01  1.00874E+00 -4.69315E-02
    9118.252    122.009   5.840  9.63607E-01  1.00807E+00 -4.44585E-02
    9120.038    123.795   5.880  9.67246E-01  1.00739E+00 -4.01414E-02
    9121.837    125.594   5.920  9.73055E-01  1.00669E+00 -3.36331E-02
    9123.647    127.404   5.960  9.80791E-01  1.00600E+00 -2.52086E-02
    9125.470    129.227   6.000  9.89893E-01  1.00530E+00 -1.54113E-02
