# # comment:                                                     FEFF 9.9.1  
# # Source:
# # Structure
# # Reduced
# # space
# # abc:
# # angles:
# # sites:
# # POT  SCF 100  7.0000   0, screened core-hole, AFOLP (folp(0)= 1.150)
# # Abs   Z=29 Rmt= 1.216 Rnm= 1.324 K  shell
# # Pot 1 Z=29 Rmt= 1.262 Rnm= 1.384
# # Pot 2 Z=34 Rmt= 1.102 Rnm= 1.338
# # Pot 3 Z=17 Rmt= 1.387 Rnm= 1.573
# # Pot 4 Z= 8 Rmt= 0.994 Rnm= 1.104
# # Gam_ch=1.729E+00 H-L exch Vi= 0.000E+00 Vr= 0.000E+00
# # Mu=-6.153E+00eV kf=1.865E+00 Vint=-1.258E+01eV Rs_int= 1.945
# FMS rfms= 9.0000
# # PATH  Rmax=-1.000,  Keep_limit= 0.00, Heap_limit 0.00  Pwcrit= 2.50%
#  S02=0.950  Temp=   0.00  Debye_temp=   0.00  Global_sig2= 0.00000
#  Energy zero shift, vr, vi    0.00000E+00   0.00000E+00
#  Curved wave amplitude ratio filter   4.000%
#     file         sig2 tot  cw amp ratio   deg  nlegs   reff  inp sig2
#     0/   0 paths used
#  xsedge+ 50, used to normalize mu           2.3993E-04
#  -----------------------------------------------------------------------
#  omega    e    k    mu    mu0     chi     @#
    8983.390     -9.963  -1.000  3.81384E-02  5.90101E-02 -2.08717E-02
    8983.689     -9.664  -0.960  3.99988E-02  6.33172E-02 -2.33184E-02
    8983.976     -9.378  -0.920  4.19776E-02  6.80969E-02 -2.61193E-02
    8984.250     -9.103  -0.880  4.40842E-02  7.34173E-02 -2.93332E-02
    8984.512     -8.841  -0.840  4.63287E-02  7.93579E-02 -3.30292E-02
    8984.762     -8.591  -0.800  4.87221E-02  8.60100E-02 -3.72879E-02
    8985.000     -8.353  -0.760  5.12761E-02  9.34784E-02 -4.22023E-02
    8985.225     -8.128  -0.720  5.40028E-02  1.01881E-01 -4.78784E-02
    8985.439     -7.915  -0.680  5.69144E-02  1.11348E-01 -5.44335E-02
    8985.640     -7.713  -0.640  6.00223E-02  1.22015E-01 -6.19927E-02
    8985.829     -7.524  -0.600  6.33356E-02  1.34016E-01 -7.06802E-02
    8986.005     -7.348  -0.560  6.68589E-02  1.47464E-01 -8.06048E-02
    8986.170     -7.183  -0.520  7.05890E-02  1.62425E-01 -9.18360E-02
    8986.322     -7.031  -0.480  7.45099E-02  1.78882E-01 -1.04372E-01
    8986.463     -6.890  -0.440  7.85884E-02  1.96692E-01 -1.18103E-01
    8986.591     -6.762  -0.400  8.27694E-02  2.15548E-01 -1.32779E-01
    8986.707     -6.647  -0.360  8.69742E-02  2.34973E-01 -1.47999E-01
    8986.810     -6.543  -0.320  9.11043E-02  2.54344E-01 -1.63239E-01
    8986.902     -6.452  -0.280  9.50494E-02  2.72967E-01 -1.77918E-01
    8986.981     -6.372  -0.240  9.86989E-02  2.90174E-01 -1.91475E-01
    8987.048     -6.305  -0.200  1.01953E-01  3.05399E-01 -2.03447E-01
    8987.103     -6.250  -0.160  1.04726E-01  3.18224E-01 -2.13498E-01
    8987.145     -6.208  -0.120  1.06956E-01  3.28377E-01 -2.21421E-01
    8987.176     -6.177  -0.080  1.08594E-01  3.35700E-01 -2.27106E-01
    8987.200     -6.153   0.000  1.09962E-01  3.41589E-01 -2.31627E-01
    8987.255     -6.098   0.120  1.13099E-01  3.54887E-01 -2.41788E-01
    8987.298     -6.055   0.160  1.15487E-01  3.65251E-01 -2.49764E-01
    8987.353     -6.000   0.200  1.18559E-01  3.78507E-01 -2.59948E-01
    8987.420     -5.933   0.240  1.22326E-01  3.94506E-01 -2.72180E-01
    8987.499     -5.854   0.280  1.26799E-01  4.12975E-01 -2.86176E-01
    8987.590     -5.763   0.320  1.31998E-01  4.33500E-01 -3.01502E-01
    8987.694     -5.659   0.360  1.37941E-01  4.55520E-01 -3.17579E-01
    8987.810     -5.543   0.400  1.44665E-01  4.78476E-01 -3.33811E-01
    8987.938     -5.415   0.440  1.52381E-01  5.01876E-01 -3.49495E-01
    8988.078     -5.275   0.480  1.61252E-01  5.25256E-01 -3.64004E-01
    8988.230     -5.123   0.520  1.71620E-01  5.48338E-01 -3.76719E-01
    8988.395     -4.958   0.560  1.83958E-01  5.71018E-01 -3.87060E-01
    8988.572     -4.781   0.600  1.98668E-01  5.93189E-01 -3.94521E-01
    8988.761     -4.592   0.640  2.16334E-01  6.14917E-01 -3.98584E-01
    8988.962     -4.391   0.680  2.37376E-01  6.36239E-01 -3.98863E-01
    8989.175     -4.178   0.720  2.61992E-01  6.57178E-01 -3.95186E-01
    8989.401     -3.952   0.760  2.89820E-01  6.77819E-01 -3.87999E-01
    8989.639     -3.714   0.800  3.19571E-01  6.98173E-01 -3.78602E-01
    8989.889     -3.464   0.840  3.49659E-01  7.18279E-01 -3.68620E-01
    8990.151     -3.202   0.880  3.79865E-01  7.38120E-01 -3.58255E-01
    8990.425     -2.928   0.920  4.12479E-01  7.57683E-01 -3.45204E-01
    8990.712     -2.642   0.960  4.51131E-01  7.76945E-01 -3.25814E-01
    8991.010     -2.343   1.000  4.98854E-01  7.95873E-01 -2.97019E-01
    8991.321     -2.032   1.040  5.56488E-01  8.14446E-01 -2.57958E-01
    8991.644     -1.709   1.080  6.20534E-01  8.32553E-01 -2.12019E-01
    8991.980     -1.374   1.120  6.82246E-01  8.50204E-01 -1.67958E-01
    8992.327     -1.026   1.160  7.29586E-01  8.67301E-01 -1.37715E-01
    8992.687     -0.666   1.200  7.50362E-01  8.83828E-01 -1.33466E-01
    8993.059     -0.295   1.240  7.35653E-01  8.99686E-01 -1.64033E-01
    8993.443      0.089   1.280  6.91960E-01  9.14879E-01 -2.22919E-01
    8993.839      0.486   1.320  6.42756E-01  9.29331E-01 -2.86575E-01
    8994.247      0.894   1.360  6.07779E-01  9.43007E-01 -3.35228E-01
    8994.668      1.315   1.400  5.93251E-01  9.55876E-01 -3.62624E-01
    8995.101      1.748   1.440  5.97912E-01  9.67930E-01 -3.70018E-01
    8995.546      2.193   1.480  6.18251E-01  9.79144E-01 -3.60893E-01
    8996.003      2.650   1.520  6.49032E-01  9.89516E-01 -3.40483E-01
    8996.472      3.119   1.560  6.83035E-01  9.99027E-01 -3.15992E-01
    8996.954      3.601   1.600  7.19123E-01  1.00768E+00 -2.88557E-01
    8997.448      4.095   1.640  7.66285E-01  1.01553E+00 -2.49240E-01
    8997.954      4.600   1.680  8.34410E-01  1.02253E+00 -1.88120E-01
    8998.472      5.119   1.720  9.27704E-01  1.02873E+00 -1.01023E-01
    8999.002      5.649   1.760  1.04246E+00  1.03417E+00  8.28684E-03
    8999.545      6.192   1.800  1.16953E+00  1.03886E+00  1.30664E-01
    9000.099      6.746   1.840  1.30183E+00  1.04284E+00  2.58991E-01
    9000.666      7.313   1.880  1.43029E+00  1.04615E+00  3.84138E-01
    9001.245      7.892   1.920  1.53756E+00  1.04883E+00  4.88732E-01
    9001.837      8.484   1.960  1.61270E+00  1.05091E+00  5.61786E-01
    9002.440      9.087   2.000  1.65306E+00  1.05242E+00  6.00645E-01
    9003.056      9.703   2.040  1.65065E+00  1.05343E+00  5.97217E-01
    9003.684     10.331   2.080  1.59822E+00  1.05395E+00  5.44270E-01
    9004.324     10.971   2.120  1.50336E+00  1.05404E+00  4.49321E-01
    9004.976     11.623   2.160  1.39263E+00  1.05374E+00  3.38886E-01
    9005.641     12.288   2.200  1.29787E+00  1.05307E+00  2.44799E-01
    9006.317     12.964   2.240  1.22930E+00  1.05210E+00  1.77205E-01
    9007.006     13.653   2.280  1.18077E+00  1.05085E+00  1.29921E-01
    9007.707     14.354   2.320  1.14838E+00  1.04933E+00  9.90507E-02
    9008.420     15.067   2.360  1.12588E+00  1.04762E+00  7.82531E-02
    9009.146     15.793   2.400  1.10907E+00  1.04571E+00  6.33629E-02
    9009.883     16.530   2.440  1.09686E+00  1.04366E+00  5.32028E-02
    9010.633     17.280   2.480  1.08858E+00  1.04146E+00  4.71200E-02
    9011.395     18.042   2.520  1.08327E+00  1.03918E+00  4.40910E-02
    9012.169     18.816   2.560  1.07952E+00  1.03681E+00  4.27103E-02
    9012.956     19.603   2.600  1.07590E+00  1.03440E+00  4.14963E-02
    9013.754     20.401   2.640  1.07150E+00  1.03196E+00  3.95388E-02
    9014.565     21.212   2.680  1.06567E+00  1.02948E+00  3.61876E-02
    9015.388     22.035   2.720  1.05809E+00  1.02703E+00  3.10579E-02
    9016.223     22.870   2.760  1.04844E+00  1.02459E+00  2.38537E-02
    9017.071     23.717   2.800  1.03630E+00  1.02219E+00  1.41172E-02
    9017.930     24.577   2.840  1.02156E+00  1.01985E+00  1.71035E-03
    9018.802     25.449   2.880  1.00438E+00  1.01756E+00 -1.31822E-02
    9019.686     26.333   2.920  9.85135E-01  1.01535E+00 -3.02140E-02
    9020.582     27.229   2.960  9.64713E-01  1.01322E+00 -4.85064E-02
    9021.490     28.137   3.000  9.44308E-01  1.01117E+00 -6.68661E-02
    9022.411     29.058   3.040  9.25037E-01  1.00922E+00 -8.41823E-02
    9023.343     29.990   3.080  9.07818E-01  1.00738E+00 -9.95626E-02
    9024.288     30.935   3.120  8.93306E-01  1.00566E+00 -1.12355E-01
    9025.245     31.892   3.160  8.81637E-01  1.00406E+00 -1.22425E-01
    9026.215     32.861   3.200  8.72558E-01  1.00258E+00 -1.30027E-01
    9027.196     33.843   3.240  8.65899E-01  1.00123E+00 -1.35332E-01
    9028.190     34.837   3.280  8.61301E-01  9.99982E-01 -1.38681E-01
    9029.195     35.842   3.320  8.58481E-01  9.98881E-01 -1.40400E-01
    9030.213     36.860   3.360  8.57263E-01  9.97930E-01 -1.40666E-01
    9031.244     37.891   3.400  8.57543E-01  9.97085E-01 -1.39542E-01
    9032.286     38.933   3.440  8.59218E-01  9.96388E-01 -1.37170E-01
    9033.341     39.988   3.480  8.62316E-01  9.95819E-01 -1.33503E-01
    9034.408     41.054   3.520  8.67189E-01  9.95377E-01 -1.28188E-01
    9035.486     42.133   3.560  8.74348E-01  9.95061E-01 -1.20713E-01
    9036.578     43.225   3.600  8.84368E-01  9.94871E-01 -1.10503E-01
    9037.681     44.328   3.640  8.97755E-01  9.94806E-01 -9.70514E-02
    9038.797     45.444   3.680  9.14538E-01  9.94885E-01 -8.03471E-02
    9039.924     46.571   3.720  9.34038E-01  9.95065E-01 -6.10267E-02
    9041.064     47.711   3.760  9.55193E-01  9.95365E-01 -4.01713E-02
    9042.216     48.863   3.800  9.76691E-01  9.95760E-01 -1.90695E-02
    9043.381     50.028   3.840  9.97223E-01  9.96295E-01  9.27838E-04
    9044.557     51.204   3.880  1.01568E+00  9.96923E-01  1.87592E-02
    9045.746     52.393   3.920  1.03156E+00  9.97639E-01  3.39244E-02
    9046.947     53.594   3.960  1.04484E+00  9.98443E-01  4.64011E-02
    9048.160     54.807   4.000  1.05589E+00  9.99354E-01  5.65333E-02
    9049.385     56.032   4.040  1.06522E+00  1.00035E+00  6.48674E-02
    9050.623     57.270   4.080  1.07324E+00  1.00140E+00  7.18370E-02
    9051.872     58.519   4.120  1.08020E+00  1.00252E+00  7.76771E-02
    9053.134     59.781   4.160  1.08618E+00  1.00373E+00  8.24549E-02
    9054.408     61.055   4.200  1.09094E+00  1.00498E+00  8.59633E-02
    9055.695     62.342   4.240  1.09407E+00  1.00629E+00  8.77749E-02
    9056.993     63.640   4.280  1.09508E+00  1.00763E+00  8.74488E-02
    9058.304     64.951   4.320  1.09395E+00  1.00900E+00  8.49443E-02
    9059.627     66.273   4.360  1.09104E+00  1.01041E+00  8.06267E-02
    9060.962     67.608   4.400  1.08695E+00  1.01186E+00  7.50906E-02
    9062.309     68.956   4.440  1.08223E+00  1.01331E+00  6.89210E-02
    9063.668     70.315   4.480  1.07715E+00  1.01477E+00  6.23797E-02
    9065.040     71.687   4.520  1.07165E+00  1.01624E+00  5.54058E-02
    9066.424     73.070   4.560  1.06564E+00  1.01769E+00  4.79428E-02
    9067.820     74.466   4.600  1.05944E+00  1.01914E+00  4.03043E-02
    9069.228     75.875   4.640  1.05382E+00  1.02055E+00  3.32663E-02
    9070.648     77.295   4.680  1.04975E+00  1.02195E+00  2.78052E-02
    9072.081     78.728   4.720  1.04789E+00  1.02331E+00  2.45792E-02
    9073.525     80.172   4.760  1.04825E+00  1.02463E+00  2.36178E-02
    9074.982     81.629   4.800  1.05026E+00  1.02591E+00  2.43554E-02
    9076.451     83.098   4.840  1.05306E+00  1.02714E+00  2.59185E-02
    9077.933     84.580   4.880  1.05575E+00  1.02832E+00  2.74276E-02
    9079.426     86.073   4.920  1.05766E+00  1.02944E+00  2.82191E-02
    9080.932     87.579   4.960  1.05835E+00  1.03049E+00  2.78539E-02
    9082.450     89.097   5.000  1.05748E+00  1.03147E+00  2.60041E-02
    9083.980     90.627   5.040  1.05481E+00  1.03237E+00  2.24409E-02
    9085.522     92.169   5.080  1.05030E+00  1.03319E+00  1.71102E-02
    9087.077     93.724   5.120  1.04413E+00  1.03395E+00  1.01825E-02
    9088.643     95.290   5.160  1.03661E+00  1.03460E+00  2.00538E-03
    9090.222     96.869   5.200  1.02826E+00  1.03519E+00 -6.93658E-03
    9091.813     98.460   5.240  1.01946E+00  1.03568E+00 -1.62128E-02
    9093.417    100.063   5.280  1.01053E+00  1.03607E+00 -2.55440E-02
    9095.032    101.679   5.320  1.00166E+00  1.03638E+00 -3.47140E-02
    9096.660    103.307   5.360  9.93186E-01  1.03660E+00 -4.34169E-02
    9098.299    104.946   5.400  9.85521E-01  1.03674E+00 -5.12199E-02
    9099.951    106.598   5.440  9.79062E-01  1.03679E+00 -5.77295E-02
    9101.616    108.263   5.480  9.73934E-01  1.03673E+00 -6.28004E-02
    9103.292    109.939   5.520  9.70081E-01  1.03661E+00 -6.65332E-02
    9104.981    111.628   5.560  9.67291E-01  1.03639E+00 -6.90977E-02
    9106.681    113.328   5.600  9.65488E-01  1.03610E+00 -7.06139E-02
    9108.394    115.041   5.640  9.64540E-01  1.03571E+00 -7.11712E-02
    9110.120    116.766   5.680  9.64442E-01  1.03527E+00 -7.08239E-02
    9111.857    118.504   5.720  9.65252E-01  1.03474E+00 -6.94916E-02
    9113.606    120.253   5.760  9.67340E-01  1.03417E+00 -6.68281E-02
    9115.368    122.015   5.800  9.71111E-01  1.03350E+00 -6.23857E-02
    9117.142    123.789   5.840  9.76877E-01  1.03280E+00 -5.59259E-02
    9118.928    125.575   5.880  9.84415E-01  1.03204E+00 -4.76269E-02
    9120.727    127.373   5.920  9.93210E-01  1.03122E+00 -3.80076E-02
    9122.537    129.184   5.960  1.00269E+00  1.03038E+00 -2.76972E-02
    9124.360    131.007   6.000  1.01255E+00  1.02944E+00 -1.68964E-02
