# # comment:                                                     FEFF 9.9.1  
# # Source:
# # Structure
# # Reduced
# # space
# # abc:
# # angles:
# # sites:
# # POT  SCF 100  7.0000   0, screened core-hole, AFOLP (folp(0)= 1.150)
# # Abs   Z=29 Rmt= 1.198 Rnm= 1.308 K  shell
# # Pot 1 Z=12 Rmt= 1.326 Rnm= 1.415
# # Pot 2 Z=29 Rmt= 1.213 Rnm= 1.279
# # Pot 3 Z= 8 Rmt= 1.030 Rnm= 1.114
# # Gam_ch=1.729E+00 H-L exch Vi= 0.000E+00 Vr= 0.000E+00
# # Mu=-9.766E+00eV kf=2.148E+00 Vint=-1.717E+01eV Rs_int= 1.689
# FMS rfms= 9.0000
# # PATH  Rmax=-1.000,  Keep_limit= 0.00, Heap_limit 0.00  Pwcrit= 2.50%
#  S02=0.950  Temp=   0.00  Debye_temp=   0.00  Global_sig2= 0.00000
#  Energy zero shift, vr, vi    0.00000E+00   0.00000E+00
#  Curved wave amplitude ratio filter   4.000%
#     file         sig2 tot  cw amp ratio   deg  nlegs   reff  inp sig2
#     0/   0 paths used
#  xsedge+ 50, used to normalize mu           2.4865E-04
#  -----------------------------------------------------------------------
#  omega    e    k    mu    mu0     chi     @#
    8983.864    -13.576  -1.000  2.85027E-02  4.76748E-02 -1.91721E-02
    8984.162    -13.277  -0.960  2.97090E-02  5.09562E-02 -2.12473E-02
    8984.449    -12.991  -0.920  3.09963E-02  5.45874E-02 -2.35910E-02
    8984.723    -12.717  -0.880  3.23758E-02  5.86184E-02 -2.62426E-02
    8984.985    -12.454  -0.840  3.38607E-02  6.31076E-02 -2.92470E-02
    8985.235    -12.205  -0.800  3.54670E-02  6.81225E-02 -3.26555E-02
    8985.473    -11.967  -0.760  3.72138E-02  7.37401E-02 -3.65262E-02
    8985.699    -11.741  -0.720  3.91238E-02  8.00474E-02 -4.09236E-02
    8985.912    -11.528  -0.680  4.12225E-02  8.71400E-02 -4.59175E-02
    8986.113    -11.327  -0.640  4.35383E-02  9.51186E-02 -5.15802E-02
    8986.302    -11.138  -0.600  4.60995E-02  1.04081E-01 -5.79819E-02
    8986.479    -10.961  -0.560  4.89307E-02  1.14112E-01 -6.51813E-02
    8986.644    -10.796  -0.520  5.20461E-02  1.25259E-01 -7.32129E-02
    8986.796    -10.644  -0.480  5.54399E-02  1.37509E-01 -8.20691E-02
    8986.936    -10.504  -0.440  5.90756E-02  1.50755E-01 -9.16795E-02
    8987.064    -10.376  -0.400  6.28773E-02  1.64770E-01 -1.01893E-01
    8987.180    -10.260  -0.360  6.67281E-02  1.79199E-01 -1.12471E-01
    8987.284    -10.156  -0.320  7.04814E-02  1.93580E-01 -1.23099E-01
    8987.375    -10.065  -0.280  7.39840E-02  2.07400E-01 -1.33416E-01
    8987.454     -9.986  -0.240  7.71037E-02  2.20162E-01 -1.43058E-01
    8987.521     -9.919  -0.200  7.97509E-02  2.31450E-01 -1.51699E-01
    8987.576     -9.864  -0.160  8.18846E-02  2.40955E-01 -1.59071E-01
    8987.619     -9.821  -0.120  8.35050E-02  2.48478E-01 -1.64973E-01
    8987.649     -9.791  -0.080  8.46350E-02  2.53903E-01 -1.69268E-01
    8987.674     -9.766   0.000  8.55253E-02  2.58266E-01 -1.72741E-01
    8987.729     -9.711   0.120  8.75297E-02  2.68105E-01 -1.80576E-01
    8987.771     -9.669   0.160  8.89390E-02  2.75773E-01 -1.86834E-01
    8987.826     -9.614   0.200  9.05682E-02  2.85574E-01 -1.95006E-01
    8987.893     -9.547   0.240  9.22902E-02  2.97417E-01 -2.05127E-01
    8987.972     -9.467   0.280  9.38649E-02  3.11050E-01 -2.17185E-01
    8988.064     -9.376   0.320  9.51148E-02  3.26201E-01 -2.31087E-01
    8988.168     -9.272   0.360  9.58391E-02  3.42438E-01 -2.46599E-01
    8988.283     -9.157   0.400  9.60052E-02  3.59362E-01 -2.63356E-01
    8988.411     -9.029   0.440  9.57087E-02  3.76589E-01 -2.80881E-01
    8988.552     -8.888   0.480  9.51677E-02  3.93783E-01 -2.98616E-01
    8988.704     -8.736   0.520  9.47463E-02  4.10796E-01 -3.16049E-01
    8988.869     -8.571   0.560  9.46851E-02  4.27480E-01 -3.32795E-01
    8989.045     -8.395   0.600  9.52969E-02  4.43871E-01 -3.48574E-01
    8989.234     -8.206   0.640  9.67075E-02  4.59970E-01 -3.63263E-01
    8989.435     -8.004   0.680  9.90580E-02  4.75849E-01 -3.76791E-01
    8989.649     -7.791   0.720  1.02499E-01  4.91567E-01 -3.89067E-01
    8989.874     -7.566   0.760  1.07219E-01  5.07200E-01 -3.99981E-01
    8990.112     -7.328   0.800  1.13432E-01  5.22781E-01 -4.09349E-01
    8990.362     -7.078   0.840  1.21569E-01  5.38387E-01 -4.16818E-01
    8990.624     -6.816   0.880  1.32043E-01  5.54008E-01 -4.21965E-01
    8990.899     -6.541   0.920  1.45500E-01  5.69700E-01 -4.24201E-01
    8991.185     -6.255   0.960  1.62621E-01  5.85474E-01 -4.22853E-01
    8991.484     -5.956   1.000  1.84575E-01  6.01287E-01 -4.16712E-01
    8991.795     -5.645   1.040  2.13718E-01  6.17170E-01 -4.03453E-01
    8992.118     -5.322   1.080  2.53559E-01  6.33073E-01 -3.79514E-01
    8992.453     -4.987   1.120  3.06973E-01  6.49015E-01 -3.42042E-01
    8992.800     -4.639   1.160  3.71600E-01  6.64930E-01 -2.93331E-01
    8993.160     -4.280   1.200  4.34887E-01  6.80794E-01 -2.45907E-01
    8993.532     -3.908   1.240  4.75766E-01  6.96595E-01 -2.20829E-01
    8993.916     -3.524   1.280  4.82872E-01  7.12283E-01 -2.29411E-01
    8994.312     -3.128   1.320  4.71594E-01  7.27823E-01 -2.56229E-01
    8994.721     -2.719   1.360  4.64541E-01  7.43179E-01 -2.78638E-01
    8995.141     -2.299   1.400  4.69224E-01  7.58297E-01 -2.89073E-01
    8995.574     -1.866   1.440  4.86972E-01  7.73162E-01 -2.86190E-01
    8996.019     -1.421   1.480  5.17845E-01  7.87716E-01 -2.69871E-01
    8996.476     -0.964   1.520  5.59152E-01  8.01947E-01 -2.42795E-01
    8996.946     -0.494   1.560  6.10230E-01  8.15798E-01 -2.05568E-01
    8997.427     -0.013   1.600  6.62508E-01  8.29256E-01 -1.66748E-01
    8997.921      0.481   1.640  6.97972E-01  8.42289E-01 -1.44318E-01
    8998.427      0.987   1.680  7.14902E-01  8.54886E-01 -1.39984E-01
    8998.945      1.505   1.720  7.25875E-01  8.66996E-01 -1.41120E-01
    8999.476      2.036   1.760  7.47231E-01  8.78611E-01 -1.31380E-01
    9000.018      2.578   1.800  7.97681E-01  8.89724E-01 -9.20423E-02
    9000.573      3.133   1.840  8.92148E-01  9.00329E-01 -8.18033E-03
    9001.140      3.700   1.880  1.04503E+00  9.10401E-01  1.34627E-01
    9001.719      4.279   1.920  1.24793E+00  9.19918E-01  3.28013E-01
    9002.310      4.870   1.960  1.42023E+00  9.28920E-01  4.91312E-01
    9002.914      5.474   2.000  1.43934E+00  9.37365E-01  5.01970E-01
    9003.529      6.089   2.040  1.33689E+00  9.45275E-01  3.91612E-01
    9004.157      6.717   2.080  1.23724E+00  9.52654E-01  2.84587E-01
    9004.797      7.357   2.120  1.16582E+00  9.59506E-01  2.06310E-01
    9005.450      8.010   2.160  1.12397E+00  9.65854E-01  1.58119E-01
    9006.114      8.674   2.200  1.12231E+00  9.71687E-01  1.50625E-01
    9006.791      9.351   2.240  1.15242E+00  9.77031E-01  1.75392E-01
    9007.480     10.040   2.280  1.19781E+00  9.81891E-01  2.15921E-01
    9008.181     10.741   2.320  1.23839E+00  9.86299E-01  2.52091E-01
    9008.894     11.454   2.360  1.25505E+00  9.90282E-01  2.64772E-01
    9009.619     12.179   2.400  1.24024E+00  9.93831E-01  2.46409E-01
    9010.357     12.917   2.440  1.20166E+00  9.96952E-01  2.04704E-01
    9011.107     13.667   2.480  1.15599E+00  9.99719E-01  1.56267E-01
    9011.869     14.429   2.520  1.11955E+00  1.00210E+00  1.17454E-01
    9012.643     15.203   2.560  1.10529E+00  1.00415E+00  1.01142E-01
    9013.429     15.989   2.600  1.11043E+00  1.00587E+00  1.04570E-01
    9014.228     16.788   2.640  1.11858E+00  1.00729E+00  1.11291E-01
    9015.039     17.599   2.680  1.11773E+00  1.00841E+00  1.09319E-01
    9015.862     18.422   2.720  1.10371E+00  1.00928E+00  9.44307E-02
    9016.697     19.257   2.760  1.07996E+00  1.00990E+00  7.00613E-02
    9017.544     20.104   2.800  1.05195E+00  1.01029E+00  4.16693E-02
    9018.404     20.964   2.840  1.02409E+00  1.01049E+00  1.36033E-02
    9019.275     21.835   2.880  9.99011E-01  1.01047E+00 -1.14592E-02
    9020.159     22.719   2.920  9.77784E-01  1.01031E+00 -3.25243E-02
    9021.055     23.615   2.960  9.61159E-01  1.00999E+00 -4.88262E-02
    9021.964     24.524   3.000  9.48934E-01  1.00951E+00 -6.05774E-02
    9022.884     25.444   3.040  9.39378E-01  1.00891E+00 -6.95344E-02
    9023.817     26.377   3.080  9.30124E-01  1.00822E+00 -7.80953E-02
    9024.762     27.322   3.120  9.19476E-01  1.00742E+00 -8.79393E-02
    9025.719     28.279   3.160  9.07050E-01  1.00653E+00 -9.94796E-02
    9026.688     29.248   3.200  8.93523E-01  1.00559E+00 -1.12067E-01
    9027.669     30.230   3.240  8.80186E-01  1.00458E+00 -1.24392E-01
    9028.663     31.223   3.280  8.68249E-01  1.00352E+00 -1.35276E-01
    9029.669     32.229   3.320  8.58842E-01  1.00245E+00 -1.43611E-01
    9030.687     33.247   3.360  8.52871E-01  1.00135E+00 -1.48476E-01
    9031.717     34.277   3.400  8.50802E-01  1.00021E+00 -1.49407E-01
    9032.760     35.320   3.440  8.52461E-01  9.99069E-01 -1.46607E-01
    9033.814     36.374   3.480  8.57464E-01  9.97948E-01 -1.40483E-01
    9034.881     37.441   3.520  8.65162E-01  9.96807E-01 -1.31645E-01
    9035.960     38.520   3.560  8.74708E-01  9.95693E-01 -1.20985E-01
    9037.051     39.611   3.600  8.85287E-01  9.94589E-01 -1.09302E-01
    9038.155     40.715   3.640  8.96246E-01  9.93537E-01 -9.72919E-02
    9039.270     41.830   3.680  9.06899E-01  9.92478E-01 -8.55791E-02
    9040.398     42.958   3.720  9.16697E-01  9.91476E-01 -7.47794E-02
    9041.538     44.098   3.760  9.25622E-01  9.90515E-01 -6.48933E-02
    9042.690     45.250   3.800  9.34345E-01  9.89595E-01 -5.52495E-02
    9043.854     46.414   3.840  9.44006E-01  9.88715E-01 -4.47095E-02
    9045.031     47.591   3.880  9.55762E-01  9.87879E-01 -3.21170E-02
    9046.219     48.780   3.920  9.70375E-01  9.87109E-01 -1.67339E-02
    9047.420     49.980   3.960  9.87688E-01  9.86384E-01  1.30473E-03
    9048.633     51.194   4.000  1.00665E+00  9.85704E-01  2.09470E-02
    9049.859     52.419   4.040  1.02559E+00  9.85091E-01  4.04951E-02
    9051.096     53.656   4.080  1.04239E+00  9.84525E-01  5.78618E-02
    9052.346     54.906   4.120  1.05504E+00  9.84006E-01  7.10353E-02
    9053.608     56.168   4.160  1.06259E+00  9.83554E-01  7.90337E-02
    9054.882     57.442   4.200  1.06527E+00  9.83150E-01  8.21188E-02
    9056.168     58.728   4.240  1.06446E+00  9.82815E-01  8.16442E-02
    9057.467     60.027   4.280  1.06197E+00  9.82527E-01  7.94393E-02
    9058.777     61.337   4.320  1.05936E+00  9.82307E-01  7.70564E-02
    9060.100     62.660   4.360  1.05749E+00  9.82132E-01  7.53626E-02
    9061.435     63.995   4.400  1.05653E+00  9.82001E-01  7.45309E-02
    9062.782     65.342   4.440  1.05612E+00  9.81913E-01  7.42020E-02
    9064.142     66.702   4.480  1.05546E+00  9.81890E-01  7.35705E-02
    9065.513     68.073   4.520  1.05357E+00  9.81887E-01  7.16882E-02
    9066.897     69.457   4.560  1.04982E+00  9.81946E-01  6.78746E-02
    9068.293     70.853   4.600  1.04406E+00  9.82048E-01  6.20156E-02
    9069.701     72.261   4.640  1.03684E+00  9.82188E-01  5.46548E-02
    9071.122     73.682   4.680  1.02902E+00  9.82366E-01  4.66492E-02
    9072.554     75.114   4.720  1.02127E+00  9.82559E-01  3.87158E-02
    9073.999     76.559   4.760  1.01404E+00  9.82809E-01  3.12335E-02
    9075.456     78.016   4.800  1.00736E+00  9.83073E-01  2.42848E-02
    9076.925     79.485   4.840  1.00114E+00  9.83368E-01  1.77738E-02
    9078.406     80.966   4.880  9.95300E-01  9.83672E-01  1.16275E-02
    9079.900     82.460   4.920  9.89953E-01  9.84005E-01  5.94732E-03
    9081.405     83.966   4.960  9.85453E-01  9.84347E-01  1.10549E-03
    9082.923     85.483   5.000  9.82485E-01  9.84715E-01 -2.23005E-03
    9084.453     87.014   5.040  9.81734E-01  9.85066E-01 -3.33243E-03
    9085.996     88.556   5.080  9.83539E-01  9.85442E-01 -1.90312E-03
    9087.550     90.110   5.120  9.87283E-01  9.85841E-01  1.44159E-03
    9089.117     91.677   5.160  9.91275E-01  9.86220E-01  5.05523E-03
    9090.696     93.256   5.200  9.93488E-01  9.86596E-01  6.89208E-03
    9092.287     94.847   5.240  9.92565E-01  9.86970E-01  5.59569E-03
    9093.890     96.450   5.280  9.88497E-01  9.87338E-01  1.15889E-03
    9095.505     98.066   5.320  9.82248E-01  9.87681E-01 -5.43303E-03
    9097.133     99.693   5.360  9.75073E-01  9.88040E-01 -1.29670E-02
    9098.773    101.333   5.400  9.67837E-01  9.88368E-01 -2.05311E-02
    9100.425    102.985   5.440  9.61102E-01  9.88665E-01 -2.75629E-02
    9102.089    104.649   5.480  9.55194E-01  9.88953E-01 -3.37584E-02
    9103.765    106.326   5.520  9.50162E-01  9.89208E-01 -3.90459E-02
    9105.454    108.014   5.560  9.45870E-01  9.89453E-01 -4.35837E-02
    9107.155    109.715   5.600  9.42155E-01  9.89666E-01 -4.75109E-02
    9108.868    111.428   5.640  9.39098E-01  9.89866E-01 -5.07686E-02
    9110.593    113.153   5.680  9.36810E-01  9.90032E-01 -5.32219E-02
    9112.330    114.890   5.720  9.35175E-01  9.90159E-01 -5.49849E-02
    9114.080    116.640   5.760  9.33904E-01  9.90249E-01 -5.63452E-02
    9115.842    118.402   5.800  9.32859E-01  9.90302E-01 -5.74428E-02
    9117.616    120.176   5.840  9.32258E-01  9.90341E-01 -5.80831E-02
    9119.402    121.962   5.880  9.32438E-01  9.90319E-01 -5.78807E-02
    9121.200    123.760   5.920  9.33902E-01  9.90284E-01 -5.63817E-02
    9123.010    125.571   5.960  9.37181E-01  9.90209E-01 -5.30284E-02
    9124.833    127.393   6.000  9.43097E-01  9.90076E-01 -4.69781E-02
