# # comment:                                                     FEFF 9.9.1  
# # Source:
# # Structure
# # Reduced
# # space
# # abc:
# # angles:
# # sites:
# # POT  SCF 100  7.0000   0, screened core-hole, AFOLP (folp(0)= 1.150)
# # Abs   Z=29 Rmt= 1.155 Rnm= 1.288 K  shell
# # Pot 1 Z=29 Rmt= 1.183 Rnm= 1.309
# # Pot 2 Z=17 Rmt= 1.375 Rnm= 1.515
# # Pot 3 Z= 8 Rmt= 0.983 Rnm= 1.104
# # Gam_ch=1.729E+00 H-L exch Vi= 0.000E+00 Vr= 0.000E+00
# # Mu=-6.131E+00eV kf=1.971E+00 Vint=-1.284E+01eV Rs_int= 1.840
# FMS rfms= 9.0000
# # PATH  Rmax=-1.000,  Keep_limit= 0.00, Heap_limit 0.00  Pwcrit= 2.50%
#  S02=0.950  Temp=   0.00  Debye_temp=   0.00  Global_sig2= 0.00000
#  Energy zero shift, vr, vi    0.00000E+00   0.00000E+00
#  Curved wave amplitude ratio filter   4.000%
#     file         sig2 tot  cw amp ratio   deg  nlegs   reff  inp sig2
#     0/   0 paths used
#  xsedge+ 50, used to normalize mu           2.3912E-04
#  -----------------------------------------------------------------------
#  omega    e    k    mu    mu0     chi     @#
    8983.445     -9.941  -1.000  3.88365E-02  6.04939E-02 -2.16575E-02
    8983.743     -9.642  -0.960  4.08319E-02  6.49274E-02 -2.40955E-02
    8984.030     -9.355  -0.920  4.29718E-02  6.98486E-02 -2.68768E-02
    8984.304     -9.081  -0.880  4.52704E-02  7.53283E-02 -3.00579E-02
    8984.566     -8.819  -0.840  4.77431E-02  8.14483E-02 -3.37052E-02
    8984.816     -8.569  -0.800  5.04073E-02  8.83034E-02 -3.78961E-02
    8985.054     -8.331  -0.760  5.32817E-02  9.60020E-02 -4.27203E-02
    8985.280     -8.106  -0.720  5.63866E-02  1.04666E-01 -4.82797E-02
    8985.493     -7.892  -0.680  5.97430E-02  1.14431E-01 -5.46877E-02
    8985.694     -7.691  -0.640  6.33714E-02  1.25436E-01 -6.20650E-02
    8985.883     -7.502  -0.600  6.72897E-02  1.37822E-01 -7.05318E-02
    8986.060     -7.325  -0.560  7.15100E-02  1.51704E-01 -8.01939E-02
    8986.224     -7.161  -0.520  7.60326E-02  1.67152E-01 -9.11196E-02
    8986.377     -7.008  -0.480  8.08392E-02  1.84149E-01 -1.03309E-01
    8986.517     -6.868  -0.440  8.58849E-02  2.02545E-01 -1.16660E-01
    8986.645     -6.740  -0.400  9.10917E-02  2.22025E-01 -1.30934E-01
    8986.761     -6.624  -0.360  9.63473E-02  2.42094E-01 -1.45746E-01
    8986.865     -6.521  -0.320  1.01512E-01  2.62106E-01 -1.60594E-01
    8986.956     -6.429  -0.280  1.06433E-01  2.81346E-01 -1.74913E-01
    8987.035     -6.350  -0.240  1.10965E-01  2.99120E-01 -1.88155E-01
    8987.102     -6.283  -0.200  1.14982E-01  3.14846E-01 -1.99864E-01
    8987.157     -6.228  -0.160  1.18386E-01  3.28091E-01 -2.09705E-01
    8987.200     -6.186  -0.120  1.21104E-01  3.38574E-01 -2.17471E-01
    8987.230     -6.155  -0.080  1.23083E-01  3.46135E-01 -2.23052E-01
    8987.255     -6.131   0.000  1.24701E-01  3.52216E-01 -2.27515E-01
    8987.310     -6.076   0.120  1.28545E-01  3.65948E-01 -2.37404E-01
    8987.352     -6.033   0.160  1.31465E-01  3.76626E-01 -2.45161E-01
    8987.407     -5.978   0.200  1.35261E-01  3.90307E-01 -2.55046E-01
    8987.474     -5.911   0.240  1.39942E-01  4.06813E-01 -2.66871E-01
    8987.553     -5.832   0.280  1.45519E-01  4.25837E-01 -2.80318E-01
    8987.645     -5.740   0.320  1.52075E-01  4.46987E-01 -2.94912E-01
    8987.748     -5.637   0.360  1.59637E-01  4.69637E-01 -3.10000E-01
    8987.864     -5.521   0.400  1.68390E-01  4.93268E-01 -3.24877E-01
    8987.992     -5.393   0.440  1.78458E-01  5.17262E-01 -3.38804E-01
    8988.133     -5.253   0.480  1.90077E-01  5.41241E-01 -3.51164E-01
    8988.285     -5.100   0.520  2.03312E-01  5.64879E-01 -3.61566E-01
    8988.450     -4.936   0.560  2.18247E-01  5.88045E-01 -3.69798E-01
    8988.626     -4.759   0.600  2.34991E-01  6.10695E-01 -3.75704E-01
    8988.815     -4.570   0.640  2.53928E-01  6.32835E-01 -3.78906E-01
    8989.016     -4.369   0.680  2.76036E-01  6.54526E-01 -3.78491E-01
    8989.230     -4.156   0.720  3.02776E-01  6.75823E-01 -3.73047E-01
    8989.455     -3.930   0.760  3.35498E-01  6.96793E-01 -3.61295E-01
    8989.693     -3.692   0.800  3.74407E-01  7.17453E-01 -3.43046E-01
    8989.943     -3.442   0.840  4.17485E-01  7.37845E-01 -3.20360E-01
    8990.205     -3.180   0.880  4.59637E-01  7.57979E-01 -2.98342E-01
    8990.479     -2.906   0.920  4.93772E-01  7.77824E-01 -2.84052E-01
    8990.766     -2.619   0.960  5.15338E-01  7.97379E-01 -2.82042E-01
    8991.065     -2.321   1.000  5.25372E-01  8.16617E-01 -2.91245E-01
    8991.376     -2.010   1.040  5.27817E-01  8.35476E-01 -3.07659E-01
    8991.699     -1.687   1.080  5.26912E-01  8.53907E-01 -3.26995E-01
    8992.034     -1.351   1.120  5.26014E-01  8.71859E-01 -3.45845E-01
    8992.381     -1.004   1.160  5.26419E-01  8.89277E-01 -3.62858E-01
    8992.741     -0.644   1.200  5.28084E-01  9.06124E-01 -3.78040E-01
    8993.113     -0.272   1.240  5.31089E-01  9.22319E-01 -3.91230E-01
    8993.497      0.112   1.280  5.37650E-01  9.37826E-01 -4.00176E-01
    8993.893      0.508   1.320  5.51756E-01  9.52608E-01 -4.00853E-01
    8994.302      0.916   1.360  5.75688E-01  9.66608E-01 -3.90920E-01
    8994.722      1.337   1.400  6.07806E-01  9.79793E-01 -3.71987E-01
    8995.155      1.770   1.440  6.42467E-01  9.92156E-01 -3.49689E-01
    8995.600      2.215   1.480  6.73894E-01  1.00365E+00 -3.29752E-01
    8996.057      2.672   1.520  7.02779E-01  1.01428E+00 -3.11503E-01
    8996.527      3.141   1.560  7.34092E-01  1.02404E+00 -2.89950E-01
    8997.008      3.623   1.600  7.71792E-01  1.03293E+00 -2.61137E-01
    8997.502      4.117   1.640  8.20237E-01  1.04093E+00 -2.20691E-01
    8998.008      4.623   1.680  8.83149E-01  1.04809E+00 -1.64939E-01
    8998.526      5.141   1.720  9.58700E-01  1.05442E+00 -9.57214E-02
    8999.057      5.671   1.760  1.03847E+00  1.05994E+00 -2.14712E-02
    8999.599      6.214   1.800  1.11204E+00  1.06466E+00  4.73728E-02
    9000.154      6.768   1.840  1.17422E+00  1.06864E+00  1.05571E-01
    9000.721      7.335   1.880  1.22817E+00  1.07193E+00  1.56242E-01
    9001.300      7.914   1.920  1.27910E+00  1.07450E+00  2.04599E-01
    9001.891      8.506   1.960  1.32779E+00  1.07644E+00  2.51351E-01
    9002.495      9.109   2.000  1.37162E+00  1.07780E+00  2.93819E-01
    9003.110      9.725   2.040  1.40648E+00  1.07858E+00  3.27895E-01
    9003.738     10.353   2.080  1.42887E+00  1.07885E+00  3.50017E-01
    9004.378     10.993   2.120  1.43783E+00  1.07865E+00  3.59180E-01
    9005.031     11.645   2.160  1.43470E+00  1.07802E+00  3.56680E-01
    9005.695     12.310   2.200  1.42100E+00  1.07699E+00  3.44003E-01
    9006.372     12.986   2.240  1.39989E+00  1.07560E+00  3.24286E-01
    9007.061     13.675   2.280  1.37948E+00  1.07390E+00  3.05575E-01
    9007.762     14.376   2.320  1.36537E+00  1.07191E+00  2.93459E-01
    9008.475     15.089   2.360  1.35007E+00  1.06969E+00  2.80382E-01
    9009.200     15.815   2.400  1.31686E+00  1.06724E+00  2.49622E-01
    9009.938     16.552   2.440  1.27503E+00  1.06463E+00  2.10402E-01
    9010.688     17.302   2.480  1.23463E+00  1.06186E+00  1.72778E-01
    9011.450     18.064   2.520  1.19843E+00  1.05896E+00  1.39471E-01
    9012.224     18.838   2.560  1.16686E+00  1.05594E+00  1.10914E-01
    9013.010     19.625   2.600  1.13984E+00  1.05290E+00  8.69448E-02
    9013.809     20.423   2.640  1.11691E+00  1.04978E+00  6.71294E-02
    9014.620     21.234   2.680  1.09706E+00  1.04662E+00  5.04304E-02
    9015.442     22.057   2.720  1.07953E+00  1.04349E+00  3.60404E-02
    9016.278     22.892   2.760  1.06368E+00  1.04035E+00  2.33309E-02
    9017.125     23.740   2.800  1.04888E+00  1.03723E+00  1.16558E-02
    9017.985     24.599   2.840  1.03498E+00  1.03414E+00  8.32541E-04
    9018.856     25.471   2.880  1.02193E+00  1.03113E+00 -9.19791E-03
    9019.740     26.355   2.920  1.00959E+00  1.02820E+00 -1.86118E-02
    9020.636     27.251   2.960  9.98003E-01  1.02534E+00 -2.73392E-02
    9021.545     28.159   3.000  9.86992E-01  1.02254E+00 -3.55479E-02
    9022.465     29.080   3.040  9.76296E-01  1.01988E+00 -4.35819E-02
    9023.398     30.012   3.080  9.65578E-01  1.01729E+00 -5.17128E-02
    9024.343     30.957   3.120  9.54819E-01  1.01484E+00 -6.00216E-02
    9025.300     31.914   3.160  9.44044E-01  1.01252E+00 -6.84779E-02
    9026.269     32.884   3.200  9.33259E-01  1.01030E+00 -7.70423E-02
    9027.250     33.865   3.240  9.22798E-01  1.00823E+00 -8.54314E-02
    9028.244     34.859   3.280  9.12763E-01  1.00629E+00 -9.35301E-02
    9029.250     35.865   3.320  9.03331E-01  1.00450E+00 -1.01173E-01
    9030.268     36.883   3.360  8.94695E-01  1.00285E+00 -1.08155E-01
    9031.298     37.913   3.400  8.87090E-01  1.00135E+00 -1.14262E-01
    9032.341     38.955   3.440  8.80665E-01  9.99987E-01 -1.19322E-01
    9033.395     40.010   3.480  8.75657E-01  9.98757E-01 -1.23100E-01
    9034.462     41.077   3.520  8.72395E-01  9.97684E-01 -1.25289E-01
    9035.541     42.156   3.560  8.70935E-01  9.96768E-01 -1.25833E-01
    9036.632     43.247   3.600  8.71332E-01  9.95986E-01 -1.24655E-01
    9037.735     44.350   3.640  8.73710E-01  9.95363E-01 -1.21653E-01
    9038.851     45.466   3.680  8.78148E-01  9.94873E-01 -1.16725E-01
    9039.979     46.593   3.720  8.84701E-01  9.94538E-01 -1.09837E-01
    9041.119     47.733   3.760  8.93381E-01  9.94334E-01 -1.00953E-01
    9042.271     48.886   3.800  9.04242E-01  9.94262E-01 -9.00209E-02
    9043.435     50.050   3.840  9.17205E-01  9.94342E-01 -7.71372E-02
    9044.612     51.226   3.880  9.31977E-01  9.94550E-01 -6.25732E-02
    9045.800     52.415   3.920  9.48093E-01  9.94885E-01 -4.67919E-02
    9047.001     53.616   3.960  9.64994E-01  9.95343E-01 -3.03481E-02
    9048.214     54.829   4.000  9.82143E-01  9.95922E-01 -1.37787E-02
    9049.440     56.054   4.040  9.99182E-01  9.96599E-01  2.58260E-03
    9050.677     57.292   4.080  1.01593E+00  9.97394E-01  1.85328E-02
    9051.927     58.542   4.120  1.03215E+00  9.98307E-01  3.38430E-02
    9053.189     59.803   4.160  1.04748E+00  9.99332E-01  4.81525E-02
    9054.463     61.077   4.200  1.06134E+00  1.00042E+00  6.09120E-02
    9055.749     62.364   4.240  1.07310E+00  1.00162E+00  7.14800E-02
    9057.048     63.662   4.280  1.08221E+00  1.00288E+00  7.93317E-02
    9058.358     64.973   4.320  1.08846E+00  1.00424E+00  8.42155E-02
    9059.681     66.296   4.360  1.09175E+00  1.00566E+00  8.60886E-02
    9061.016     67.631   4.400  1.09222E+00  1.00715E+00  8.50707E-02
    9062.363     68.978   4.440  1.09022E+00  1.00868E+00  8.15421E-02
    9063.723     70.337   4.480  1.08640E+00  1.01026E+00  7.61354E-02
    9065.094     71.709   4.520  1.08159E+00  1.01188E+00  6.97077E-02
    9066.478     73.093   4.560  1.07681E+00  1.01354E+00  6.32685E-02
    9067.874     74.489   4.600  1.07298E+00  1.01524E+00  5.77384E-02
    9069.282     75.897   4.640  1.07067E+00  1.01694E+00  5.37345E-02
    9070.702     77.317   4.680  1.07009E+00  1.01864E+00  5.14418E-02
    9072.135     78.750   4.720  1.07097E+00  1.02037E+00  5.05945E-02
    9073.580     80.194   4.760  1.07265E+00  1.02208E+00  5.05646E-02
    9075.037     81.651   4.800  1.07443E+00  1.02378E+00  5.06489E-02
    9076.506     83.121   4.840  1.07576E+00  1.02547E+00  5.02844E-02
    9077.987     84.602   4.880  1.07614E+00  1.02713E+00  4.90114E-02
    9079.481     86.095   4.920  1.07515E+00  1.02877E+00  4.63775E-02
    9080.986     87.601   4.960  1.07225E+00  1.03035E+00  4.18969E-02
    9082.504     89.119   5.000  1.06716E+00  1.03188E+00  3.52712E-02
    9084.034     90.649   5.040  1.06005E+00  1.03339E+00  2.66583E-02
    9085.577     92.191   5.080  1.05142E+00  1.03481E+00  1.66132E-02
    9087.131     93.746   5.120  1.04207E+00  1.03617E+00  5.89854E-03
    9088.698     95.312   5.160  1.03274E+00  1.03747E+00 -4.73445E-03
    9090.277     96.891   5.200  1.02407E+00  1.03867E+00 -1.46044E-02
    9091.868     98.482   5.240  1.01668E+00  1.03982E+00 -2.31372E-02
    9093.471    100.086   5.280  1.01101E+00  1.04088E+00 -2.98637E-02
    9095.086    101.701   5.320  1.00727E+00  1.04182E+00 -3.45595E-02
    9096.714    103.329   5.360  1.00536E+00  1.04271E+00 -3.73530E-02
    9098.354    104.968   5.400  1.00491E+00  1.04348E+00 -3.85639E-02
    9100.006    106.621   5.440  1.00576E+00  1.04413E+00 -3.83693E-02
    9101.670    108.285   5.480  1.00801E+00  1.04470E+00 -3.66814E-02
    9103.346    109.961   5.520  1.01171E+00  1.04517E+00 -3.34540E-02
    9105.035    111.650   5.560  1.01650E+00  1.04552E+00 -2.90271E-02
    9106.736    113.350   5.600  1.02172E+00  1.04579E+00 -2.40664E-02
    9108.449    115.063   5.640  1.02659E+00  1.04594E+00 -1.93447E-02
    9110.174    116.789   5.680  1.03048E+00  1.04599E+00 -1.55141E-02
    9111.911    118.526   5.720  1.03287E+00  1.04593E+00 -1.30634E-02
    9113.661    120.275   5.760  1.03348E+00  1.04578E+00 -1.23027E-02
    9115.423    122.037   5.800  1.03212E+00  1.04552E+00 -1.33999E-02
    9117.196    123.811   5.840  1.02884E+00  1.04516E+00 -1.63263E-02
    9118.983    125.597   5.880  1.02395E+00  1.04470E+00 -2.07557E-02
    9120.781    127.396   5.920  1.01817E+00  1.04418E+00 -2.60075E-02
    9122.591    129.206   5.960  1.01248E+00  1.04354E+00 -3.10632E-02
    9124.414    131.029   6.000  1.00804E+00  1.04273E+00 -3.46928E-02
