# # comment:                                                     FEFF 9.9.1  
# # Source:
# # Structure
# # Reduced
# # space
# # abc:
# # angles:
# # sites:
# # POT  SCF 100  7.0000   0, screened core-hole, AFOLP (folp(0)= 1.150)
# # Abs   Z=29 Rmt= 1.242 Rnm= 1.310 K  shell
# # Pot 1 Z=27 Rmt= 1.228 Rnm= 1.315
# # Pot 2 Z=29 Rmt= 1.243 Rnm= 1.311
# # Pot 3 Z= 8 Rmt= 0.996 Rnm= 1.065
# # Gam_ch=1.729E+00 H-L exch Vi= 0.000E+00 Vr= 0.000E+00
# # Mu=-1.196E+01eV kf=2.310E+00 Vint=-2.053E+01eV Rs_int= 1.570
# FMS rfms= 9.0000
# # PATH  Rmax=-1.000,  Keep_limit= 0.00, Heap_limit 0.00  Pwcrit= 2.50%
#  S02=0.950  Temp=   0.00  Debye_temp=   0.00  Global_sig2= 0.00000
#  Energy zero shift, vr, vi    0.00000E+00   0.00000E+00
#  Curved wave amplitude ratio filter   4.000%
#     file         sig2 tot  cw amp ratio   deg  nlegs   reff  inp sig2
#     0/   0 paths used
#  xsedge+ 50, used to normalize mu           2.5354E-04
#  -----------------------------------------------------------------------
#  omega    e    k    mu    mu0     chi     @#
    8984.541    -15.772  -1.000  2.85116E-02  4.18657E-02 -1.33540E-02
    8984.840    -15.474  -0.960  2.97942E-02  4.46405E-02 -1.48462E-02
    8985.127    -15.187  -0.920  3.11640E-02  4.77064E-02 -1.65424E-02
    8985.401    -14.913  -0.880  3.26301E-02  5.11053E-02 -1.84752E-02
    8985.663    -14.651  -0.840  3.42029E-02  5.48857E-02 -2.06828E-02
    8985.913    -14.401  -0.800  3.58937E-02  5.91039E-02 -2.32102E-02
    8986.151    -14.163  -0.760  3.77153E-02  6.38243E-02 -2.61090E-02
    8986.376    -13.937  -0.720  3.96813E-02  6.91196E-02 -2.94382E-02
    8986.590    -13.724  -0.680  4.18059E-02  7.50697E-02 -3.32637E-02
    8986.791    -13.523  -0.640  4.41033E-02  8.17588E-02 -3.76555E-02
    8986.980    -13.334  -0.600  4.65859E-02  8.92693E-02 -4.26834E-02
    8987.157    -13.157  -0.560  4.92631E-02  9.76713E-02 -4.84081E-02
    8987.321    -12.993  -0.520  5.21379E-02  1.07005E-01 -5.48674E-02
    8987.473    -12.840  -0.480  5.52033E-02  1.17260E-01 -6.20571E-02
    8987.614    -12.700  -0.440  5.84383E-02  1.28347E-01 -6.99087E-02
    8987.742    -12.572  -0.400  6.18037E-02  1.40075E-01 -7.82709E-02
    8987.858    -12.456  -0.360  6.52408E-02  1.52145E-01 -8.69045E-02
    8987.961    -12.353  -0.320  6.86722E-02  1.64172E-01 -9.54999E-02
    8988.053    -12.261  -0.280  7.20071E-02  1.75725E-01 -1.03718E-01
    8988.132    -12.182  -0.240  7.51489E-02  1.86390E-01 -1.11241E-01
    8988.199    -12.115  -0.200  7.80018E-02  1.95819E-01 -1.17817E-01
    8988.254    -12.060  -0.160  8.04761E-02  2.03755E-01 -1.23279E-01
    8988.296    -12.017  -0.120  8.24926E-02  2.10032E-01 -1.27540E-01
    8988.327    -11.987  -0.080  8.39893E-02  2.14557E-01 -1.30568E-01
    8988.351    -11.962   0.000  8.52539E-02  2.18195E-01 -1.32942E-01
    8988.406    -11.907   0.120  8.84023E-02  2.26406E-01 -1.38004E-01
    8988.449    -11.865   0.160  9.08055E-02  2.32794E-01 -1.41988E-01
    8988.504    -11.810   0.200  9.39571E-02  2.40962E-01 -1.47004E-01
    8988.571    -11.743   0.240  9.79200E-02  2.50808E-01 -1.52888E-01
    8988.650    -11.664   0.280  1.02775E-01  2.62147E-01 -1.59373E-01
    8988.741    -11.572   0.320  1.08623E-01  2.74713E-01 -1.66090E-01
    8988.845    -11.469   0.360  1.15572E-01  2.88169E-01 -1.72597E-01
    8988.961    -11.353   0.400  1.23693E-01  3.02155E-01 -1.78462E-01
    8989.089    -11.225   0.440  1.32947E-01  3.16351E-01 -1.83404E-01
    8989.229    -11.085   0.480  1.42971E-01  3.30477E-01 -1.87506E-01
    8989.382    -10.932   0.520  1.52969E-01  3.44415E-01 -1.91446E-01
    8989.546    -10.768   0.560  1.61443E-01  3.58076E-01 -1.96633E-01
    8989.723    -10.591   0.600  1.66525E-01  3.71436E-01 -2.04911E-01
    8989.912    -10.402   0.640  1.66890E-01  3.84558E-01 -2.17668E-01
    8990.113    -10.201   0.680  1.62824E-01  3.97489E-01 -2.34665E-01
    8990.326     -9.987   0.720  1.56518E-01  4.10303E-01 -2.53785E-01
    8990.552     -9.762   0.760  1.50872E-01  4.23092E-01 -2.72219E-01
    8990.790     -9.524   0.800  1.48011E-01  4.35885E-01 -2.87874E-01
    8991.040     -9.274   0.840  1.49028E-01  4.48741E-01 -2.99714E-01
    8991.302     -9.012   0.880  1.54318E-01  4.61729E-01 -3.07412E-01
    8991.576     -8.738   0.920  1.64106E-01  4.74852E-01 -3.10746E-01
    8991.863     -8.451   0.960  1.79068E-01  4.88163E-01 -3.09095E-01
    8992.161     -8.152   1.000  2.00785E-01  5.01649E-01 -3.00864E-01
    8992.472     -7.841   1.040  2.32071E-01  5.15349E-01 -2.83278E-01
    8992.795     -7.518   1.080  2.76006E-01  5.29238E-01 -2.53232E-01
    8993.131     -7.183   1.120  3.33864E-01  5.43346E-01 -2.09482E-01
    8993.478     -6.836   1.160  4.01260E-01  5.57661E-01 -1.56401E-01
    8993.838     -6.476   1.200  4.61694E-01  5.72163E-01 -1.10469E-01
    8994.210     -6.104   1.240  4.85654E-01  5.86834E-01 -1.01180E-01
    8994.594     -5.720   1.280  4.61203E-01  6.01669E-01 -1.40466E-01
    8994.990     -5.324   1.320  4.20838E-01  6.16641E-01 -1.95803E-01
    8995.398     -4.915   1.360  3.99990E-01  6.31725E-01 -2.31735E-01
    8995.819     -4.495   1.400  4.04483E-01  6.46912E-01 -2.42429E-01
    8996.252     -4.062   1.440  4.27680E-01  6.62150E-01 -2.34470E-01
    8996.697     -3.617   1.480  4.64513E-01  6.77428E-01 -2.12915E-01
    8997.154     -3.160   1.520  5.08484E-01  6.92692E-01 -1.84208E-01
    8997.623     -2.690   1.560  5.52152E-01  7.07949E-01 -1.55797E-01
    8998.105     -2.209   1.600  6.00724E-01  7.23124E-01 -1.22400E-01
    8998.599     -1.715   1.640  6.60695E-01  7.38221E-01 -7.75264E-02
    8999.105     -1.209   1.680  7.05639E-01  7.53185E-01 -4.75464E-02
    8999.623     -0.691   1.720  7.03796E-01  7.67979E-01 -6.41838E-02
    9000.153     -0.161   1.760  6.74671E-01  7.82568E-01 -1.07897E-01
    9000.696      0.382   1.800  6.57330E-01  7.96937E-01 -1.39607E-01
    9001.250      0.937   1.840  6.72039E-01  8.11047E-01 -1.39008E-01
    9001.817      1.504   1.880  7.26695E-01  8.24844E-01 -9.81493E-02
    9002.396      2.083   1.920  8.30412E-01  8.38314E-01 -7.90168E-03
    9002.988      2.674   1.960  9.92009E-01  8.51399E-01  1.40609E-01
    9003.591      3.278   2.000  1.19433E+00  8.64128E-01  3.30204E-01
    9004.207      3.893   2.040  1.35925E+00  8.76426E-01  4.82820E-01
    9004.835      4.521   2.080  1.38241E+00  8.88263E-01  4.94151E-01
    9005.475      5.161   2.120  1.28461E+00  8.99647E-01  3.84960E-01
    9006.127      5.814   2.160  1.19559E+00  9.10547E-01  2.85046E-01
    9006.792      6.478   2.200  1.16183E+00  9.20956E-01  2.40875E-01
    9007.468      7.155   2.240  1.15772E+00  9.30826E-01  2.26893E-01
    9008.157      7.843   2.280  1.17839E+00  9.40169E-01  2.38218E-01
    9008.858      8.544   2.320  1.23995E+00  9.48960E-01  2.90985E-01
    9009.571      9.258   2.360  1.30476E+00  9.57198E-01  3.47562E-01
    9010.297      9.983   2.400  1.31369E+00  9.64878E-01  3.48817E-01
    9011.034     10.721   2.440  1.27489E+00  9.72001E-01  3.02894E-01
    9011.784     11.471   2.480  1.21433E+00  9.78586E-01  2.35743E-01
    9012.546     12.233   2.520  1.12100E+00  9.84597E-01  1.36398E-01
    9013.320     13.007   2.560  1.00600E+00  9.90054E-01  1.59419E-02
    9014.107     13.793   2.600  9.21423E-01  9.94981E-01 -7.35574E-02
    9014.905     14.592   2.640  8.91288E-01  9.99365E-01 -1.08077E-01
    9015.716     15.402   2.680  8.94360E-01  1.00323E+00 -1.08871E-01
    9016.539     16.225   2.720  9.07850E-01  1.00661E+00 -9.87550E-02
    9017.374     17.061   2.760  9.22470E-01  1.00948E+00 -8.70069E-02
    9018.222     17.908   2.800  9.43066E-01  1.01188E+00 -6.88097E-02
    9019.081     18.767   2.840  9.63547E-01  1.01383E+00 -5.02833E-02
    9019.953     19.639   2.880  9.76204E-01  1.01537E+00 -3.91658E-02
    9020.837     20.523   2.920  9.80644E-01  1.01647E+00 -3.58213E-02
    9021.733     21.419   2.960  9.81181E-01  1.01719E+00 -3.60060E-02
    9022.641     22.327   3.000  9.81227E-01  1.01755E+00 -3.63198E-02
    9023.562     23.248   3.040  9.81819E-01  1.01756E+00 -3.57369E-02
    9024.494     24.181   3.080  9.82679E-01  1.01725E+00 -3.45672E-02
    9025.439     25.126   3.120  9.82194E-01  1.01665E+00 -3.44562E-02
    9026.396     26.083   3.160  9.78310E-01  1.01578E+00 -3.74669E-02
    9027.366     27.052   3.200  9.69949E-01  1.01464E+00 -4.46897E-02
    9028.347     28.033   3.240  9.58124E-01  1.01329E+00 -5.51635E-02
    9029.341     29.027   3.280  9.44994E-01  1.01174E+00 -6.67413E-02
    9030.346     30.033   3.320  9.32607E-01  1.00999E+00 -7.73848E-02
    9031.365     31.051   3.360  9.22214E-01  1.00809E+00 -8.58723E-02
    9032.395     32.081   3.400  9.14178E-01  1.00605E+00 -9.18756E-02
    9033.437     33.123   3.440  9.08173E-01  1.00390E+00 -9.57275E-02
    9034.492     34.178   3.480  9.03610E-01  1.00164E+00 -9.80270E-02
    9035.559     35.245   3.520  9.00118E-01  9.99292E-01 -9.91739E-02
    9036.638     36.324   3.560  8.97309E-01  9.96896E-01 -9.95866E-02
    9037.729     37.415   3.600  8.95186E-01  9.94456E-01 -9.92700E-02
    9038.832     38.518   3.640  8.94107E-01  9.91980E-01 -9.78730E-02
    9039.948     39.634   3.680  8.94577E-01  9.89474E-01 -9.48975E-02
    9041.075     40.762   3.720  8.96962E-01  9.86989E-01 -9.00269E-02
    9042.215     41.902   3.760  9.01330E-01  9.84509E-01 -8.31788E-02
    9043.367     43.054   3.800  9.07602E-01  9.82040E-01 -7.44377E-02
    9044.532     44.218   3.840  9.15646E-01  9.79629E-01 -6.39835E-02
    9045.708     45.395   3.880  9.25357E-01  9.77263E-01 -5.19062E-02
    9046.897     46.583   3.920  9.36718E-01  9.74966E-01 -3.82484E-02
    9048.098     47.784   3.960  9.49417E-01  9.72720E-01 -2.33032E-02
    9049.311     48.997   4.000  9.63270E-01  9.70551E-01 -7.28162E-03
    9050.536     50.223   4.040  9.78345E-01  9.68484E-01  9.86104E-03
    9051.774     51.460   4.080  9.94535E-01  9.66480E-01  2.80549E-02
    9053.024     52.710   4.120  1.01131E+00  9.64605E-01  4.67071E-02
    9054.285     53.972   4.160  1.02748E+00  9.62820E-01  6.46632E-02
    9055.559     55.246   4.200  1.04163E+00  9.61125E-01  8.05071E-02
    9056.846     56.532   4.240  1.05254E+00  9.59565E-01  9.29731E-02
    9058.144     57.830   4.280  1.05987E+00  9.58101E-01  1.01771E-01
    9059.455     59.141   4.320  1.06450E+00  9.56774E-01  1.07730E-01
    9060.778     60.464   4.360  1.06786E+00  9.55545E-01  1.12311E-01
    9062.113     61.799   4.400  1.07121E+00  9.54455E-01  1.16751E-01
    9063.460     63.146   4.440  1.07531E+00  9.53464E-01  1.21842E-01
    9064.819     64.506   4.480  1.08078E+00  9.52613E-01  1.28169E-01
    9066.191     65.877   4.520  1.08734E+00  9.51882E-01  1.35458E-01
    9067.575     67.261   4.560  1.09266E+00  9.51271E-01  1.41385E-01
    9068.971     68.657   4.600  1.09207E+00  9.50777E-01  1.41289E-01
    9070.379     70.065   4.640  1.08058E+00  9.50402E-01  1.30177E-01
    9071.799     71.485   4.680  1.05618E+00  9.50145E-01  1.06033E-01
    9073.232     72.918   4.720  1.02147E+00  9.50002E-01  7.14648E-02
    9074.676     74.363   4.760  9.82026E-01  9.49974E-01  3.20528E-02
    9076.133     75.820   4.800  9.43298E-01  9.50037E-01 -6.73917E-03
    9077.602     77.289   4.840  9.08802E-01  9.50211E-01 -4.14085E-02
    9079.084     78.770   4.880  8.80299E-01  9.50494E-01 -7.01951E-02
    9080.577     80.264   4.920  8.58491E-01  9.50865E-01 -9.23732E-02
    9082.083     81.769   4.960  8.43515E-01  9.51318E-01 -1.07803E-01
    9083.601     83.287   5.000  8.35026E-01  9.51875E-01 -1.16849E-01
    9085.131     84.817   5.040  8.32259E-01  9.52512E-01 -1.20253E-01
    9086.673     86.360   5.080  8.34647E-01  9.53201E-01 -1.18555E-01
    9088.228     87.914   5.120  8.42340E-01  9.53963E-01 -1.11623E-01
    9089.794     89.481   5.160  8.56173E-01  9.54796E-01 -9.86235E-02
    9091.373     91.060   5.200  8.76946E-01  9.55675E-01 -7.87287E-02
    9092.964     92.651   5.240  9.04162E-01  9.56595E-01 -5.24328E-02
    9094.568     94.254   5.280  9.34982E-01  9.57556E-01 -2.25741E-02
    9096.183     95.869   5.320  9.64620E-01  9.58575E-01  6.04487E-03
    9097.811     97.497   5.360  9.88417E-01  9.59585E-01  2.88316E-02
    9099.450     99.137   5.400  1.00444E+00  9.60645E-01  4.37964E-02
    9101.102    100.789   5.440  1.01341E+00  9.61689E-01  5.17195E-02
    9102.767    102.453   5.480  1.01701E+00  9.62758E-01  5.42561E-02
    9104.443    104.129   5.520  1.01624E+00  9.63826E-01  5.24117E-02
    9106.132    105.818   5.560  1.01146E+00  9.64867E-01  4.65923E-02
    9107.832    107.519   5.600  1.00324E+00  9.65923E-01  3.73186E-02
    9109.545    109.232   5.640  9.92360E-01  9.66925E-01  2.54343E-02
    9111.271    110.957   5.680  9.79657E-01  9.67911E-01  1.17455E-02
    9113.008    112.694   5.720  9.65870E-01  9.68859E-01 -2.98890E-03
    9114.757    114.444   5.760  9.52150E-01  9.69742E-01 -1.75920E-02
    9116.519    116.206   5.800  9.40058E-01  9.70602E-01 -3.05438E-02
    9118.293    117.979   5.840  9.30658E-01  9.71394E-01 -4.07353E-02
    9120.079    119.766   5.880  9.23963E-01  9.72133E-01 -4.81700E-02
    9121.878    121.564   5.920  9.18948E-01  9.72790E-01 -5.38421E-02
    9123.688    123.374   5.960  9.14516E-01  9.73349E-01 -5.88328E-02
    9125.511    125.197   6.000  9.10406E-01  9.73820E-01 -6.34136E-02
