# # comment:                                                     FEFF 9.9.1  
# # Source:
# # Structure
# # Reduced
# # space
# # abc:
# # angles:
# # sites:
# # POT  SCF 100  7.0000   0, screened core-hole, AFOLP (folp(0)= 1.150)
# # Abs   Z=29 Rmt= 1.278 Rnm= 1.345 K  shell
# # Pot 1 Z=29 Rmt= 1.286 Rnm= 1.351
# # Pot 2 Z=15 Rmt= 0.948 Rnm= 1.156
# # Pot 3 Z= 1 Rmt= 0.714 Rnm= 0.818
# # Pot 4 Z= 8 Rmt= 0.874 Rnm= 1.025
# # Gam_ch=1.729E+00 H-L exch Vi= 0.000E+00 Vr= 0.000E+00
# # Mu=-4.940E+00eV kf=2.486E+00 Vint=-1.705E+01eV Rs_int= 1.459
# FMS rfms= 9.0000
# # PATH  Rmax=-1.000,  Keep_limit= 0.00, Heap_limit 0.00  Pwcrit= 2.50%
#  S02=0.950  Temp=   0.00  Debye_temp=   0.00  Global_sig2= 0.00000
#  Energy zero shift, vr, vi    0.00000E+00   0.00000E+00
#  Curved wave amplitude ratio filter   4.000%
#     file         sig2 tot  cw amp ratio   deg  nlegs   reff  inp sig2
#     0/   0 paths used
#  xsedge+ 50, used to normalize mu           2.4782E-04
#  -----------------------------------------------------------------------
#  omega    e    k    mu    mu0     chi     @#
    8983.300     -8.750  -1.000  5.36169E-02  5.72605E-02 -3.64357E-03
    8983.599     -8.451  -0.960  5.73441E-02  6.15616E-02 -4.21745E-03
    8983.886     -8.165  -0.920  6.14698E-02  6.63555E-02 -4.88571E-03
    8984.160     -7.890  -0.880  6.60521E-02  7.17165E-02 -5.66437E-03
    8984.422     -7.628  -0.840  7.11586E-02  7.77309E-02 -6.57228E-03
    8984.672     -7.378  -0.800  7.68676E-02  8.44991E-02 -7.63146E-03
    8984.910     -7.141  -0.760  8.32690E-02  9.21364E-02 -8.86744E-03
    8985.135     -6.915  -0.720  9.04643E-02  1.00774E-01 -1.03093E-02
    8985.349     -6.702  -0.680  9.85652E-02  1.10555E-01 -1.19896E-02
    8985.550     -6.501  -0.640  1.07690E-01  1.21633E-01 -1.39424E-02
    8985.739     -6.312  -0.600  1.17956E-01  1.34157E-01 -1.62015E-02
    8985.916     -6.135  -0.560  1.29463E-01  1.48257E-01 -1.87943E-02
    8986.080     -5.970  -0.520  1.42277E-01  1.64011E-01 -2.17340E-02
    8986.233     -5.818  -0.480  1.56396E-01  1.81405E-01 -2.50084E-02
    8986.373     -5.678  -0.440  1.71717E-01  2.00283E-01 -2.85666E-02
    8986.501     -5.550  -0.400  1.88003E-01  2.20314E-01 -3.23111E-02
    8986.617     -5.434  -0.360  2.04874E-01  2.40973E-01 -3.60994E-02
    8986.720     -5.330  -0.320  2.21815E-01  2.61577E-01 -3.97627E-02
    8986.812     -5.239  -0.280  2.38234E-01  2.81371E-01 -4.31372E-02
    8986.891     -5.159  -0.240  2.53535E-01  2.99630E-01 -4.60958E-02
    8986.958     -5.092  -0.200  2.67186E-01  3.15751E-01 -4.85659E-02
    8987.013     -5.038  -0.160  2.78772E-01  3.29297E-01 -5.05257E-02
    8987.056     -4.995  -0.120  2.88008E-01  3.39993E-01 -5.19855E-02
    8987.086     -4.964  -0.080  2.94720E-01  3.47691E-01 -5.29709E-02
    8987.110     -4.940   0.000  3.00189E-01  3.53869E-01 -5.36804E-02
    8987.165     -4.885   0.120  3.11964E-01  3.67794E-01 -5.58296E-02
    8987.208     -4.842   0.160  3.21204E-01  3.78599E-01 -5.73949E-02
    8987.263     -4.788   0.200  3.33006E-01  3.92348E-01 -5.93423E-02
    8987.330     -4.721   0.240  3.47238E-01  4.08848E-01 -6.16099E-02
    8987.409     -4.641   0.280  3.63537E-01  4.27710E-01 -6.41732E-02
    8987.501     -4.550   0.320  3.81361E-01  4.48426E-01 -6.70650E-02
    8987.604     -4.446   0.360  3.99874E-01  4.70307E-01 -7.04332E-02
    8987.720     -4.330   0.400  4.18134E-01  4.92701E-01 -7.45671E-02
    8987.848     -4.202   0.440  4.35047E-01  5.14922E-01 -7.98754E-02
    8987.988     -4.062   0.480  4.49786E-01  5.36527E-01 -8.67411E-02
    8988.141     -3.910   0.520  4.61833E-01  5.57169E-01 -9.53357E-02
    8988.305     -3.745   0.560  4.71307E-01  5.76726E-01 -1.05418E-01
    8988.482     -3.568   0.600  4.78808E-01  5.95147E-01 -1.16338E-01
    8988.671     -3.379   0.640  4.85443E-01  6.12504E-01 -1.27061E-01
    8988.872     -3.178   0.680  4.92686E-01  6.28915E-01 -1.36230E-01
    8989.086     -2.965   0.720  5.02258E-01  6.44496E-01 -1.42238E-01
    8989.311     -2.739   0.760  5.15914E-01  6.59381E-01 -1.43467E-01
    8989.549     -2.502   0.800  5.34899E-01  6.73655E-01 -1.38756E-01
    8989.799     -2.252   0.840  5.59417E-01  6.87447E-01 -1.28030E-01
    8990.061     -1.990   0.880  5.87940E-01  7.00812E-01 -1.12871E-01
    8990.335     -1.715   0.920  6.17599E-01  7.13829E-01 -9.62294E-02
    8990.622     -1.429   0.960  6.45763E-01  7.26542E-01 -8.07797E-02
    8990.920     -1.130   1.000  6.72029E-01  7.39006E-01 -6.69767E-02
    8991.231     -0.819   1.040  6.97590E-01  7.51221E-01 -5.36308E-02
    8991.554     -0.496   1.080  7.21328E-01  7.63220E-01 -4.18926E-02
    8991.890     -0.161   1.120  7.39241E-01  7.75030E-01 -3.57888E-02
    8992.237      0.187   1.160  7.50950E-01  7.86610E-01 -3.56597E-02
    8992.597      0.546   1.200  7.61559E-01  7.98015E-01 -3.64556E-02
    8992.969      0.918   1.240  7.72551E-01  8.09195E-01 -3.66440E-02
    8993.353      1.302   1.280  7.79611E-01  8.20175E-01 -4.05637E-02
    8993.749      1.699   1.320  7.84885E-01  8.30921E-01 -4.60354E-02
    8994.157      2.107   1.360  8.00418E-01  8.41455E-01 -4.10376E-02
    8994.578      2.528   1.400  8.34941E-01  8.51717E-01 -1.67760E-02
    8995.011      2.960   1.440  8.86214E-01  8.61726E-01  2.44880E-02
    8995.456      3.405   1.480  9.46449E-01  8.71481E-01  7.49680E-02
    8995.913      3.863   1.520  1.01073E+00  8.80917E-01  1.29812E-01
    8996.382      4.332   1.560  1.07414E+00  8.90075E-01  1.84068E-01
    8996.864      4.814   1.600  1.13259E+00  8.98930E-01  2.33660E-01
    8997.358      5.307   1.640  1.18761E+00  9.07440E-01  2.80170E-01
    8997.864      5.813   1.680  1.24042E+00  9.15642E-01  3.24778E-01
    8998.382      6.331   1.720  1.28709E+00  9.23495E-01  3.63599E-01
    8998.912      6.862   1.760  1.31281E+00  9.30994E-01  3.81820E-01
    8999.455      7.404   1.800  1.30480E+00  9.38140E-01  3.66660E-01
    9000.010      7.959   1.840  1.27318E+00  9.44933E-01  3.28245E-01
    9000.576      8.526   1.880  1.23859E+00  9.51371E-01  2.87216E-01
    9001.156      9.105   1.920  1.21494E+00  9.57436E-01  2.57504E-01
    9001.747      9.696   1.960  1.20331E+00  9.63148E-01  2.40167E-01
    9002.350     10.300   2.000  1.19746E+00  9.68488E-01  2.28969E-01
    9002.966     10.916   2.040  1.18900E+00  9.73478E-01  2.15523E-01
    9003.594     11.544   2.080  1.17438E+00  9.78102E-01  1.96276E-01
    9004.234     12.184   2.120  1.15710E+00  9.82384E-01  1.74720E-01
    9004.886     12.836   2.160  1.13961E+00  9.86327E-01  1.53282E-01
    9005.551     13.500   2.200  1.12104E+00  9.89935E-01  1.31109E-01
    9006.227     14.177   2.240  1.10106E+00  9.93214E-01  1.07844E-01
    9006.916     14.866   2.280  1.08093E+00  9.96188E-01  8.47415E-02
    9007.617     15.567   2.320  1.06364E+00  9.98841E-01  6.48022E-02
    9008.331     16.280   2.360  1.05202E+00  1.00120E+00  5.08147E-02
    9009.056     17.006   2.400  1.04565E+00  1.00328E+00  4.23730E-02
    9009.794     17.743   2.440  1.04093E+00  1.00509E+00  3.58379E-02
    9010.543     18.493   2.480  1.03483E+00  1.00663E+00  2.82007E-02
    9011.305     19.255   2.520  1.02703E+00  1.00794E+00  1.90870E-02
    9012.080     20.029   2.560  1.01980E+00  1.00901E+00  1.07940E-02
    9012.866     20.816   2.600  1.01430E+00  1.00985E+00  4.45598E-03
    9013.665     21.614   2.640  1.00911E+00  1.01050E+00 -1.38889E-03
    9014.475     22.425   2.680  1.00408E+00  1.01095E+00 -6.86212E-03
    9015.298     23.248   2.720  9.98443E-01  1.01122E+00 -1.27799E-02
    9016.133     24.083   2.760  9.86132E-01  1.01131E+00 -2.51788E-02
    9016.981     24.930   2.800  9.63268E-01  1.01126E+00 -4.79925E-02
    9017.840     25.790   2.840  9.33792E-01  1.01106E+00 -7.72645E-02
    9018.712     26.662   2.880  9.07295E-01  1.01075E+00 -1.03451E-01
    9019.596     27.545   2.920  8.88869E-01  1.01029E+00 -1.21426E-01
    9020.492     28.442   2.960  8.77079E-01  1.00977E+00 -1.32690E-01
    9021.400     29.350   3.000  8.69658E-01  1.00911E+00 -1.39456E-01
    9022.321     30.270   3.040  8.65123E-01  1.00840E+00 -1.43273E-01
    9023.254     31.203   3.080  8.62254E-01  1.00762E+00 -1.45368E-01
    9024.198     32.148   3.120  8.60975E-01  1.00675E+00 -1.45779E-01
    9025.155     33.105   3.160  8.61770E-01  1.00586E+00 -1.44091E-01
    9026.125     34.074   3.200  8.64787E-01  1.00492E+00 -1.40135E-01
    9027.106     35.056   3.240  8.70179E-01  1.00393E+00 -1.33746E-01
    9028.100     36.049   3.280  8.78256E-01  1.00294E+00 -1.24681E-01
    9029.106     37.055   3.320  8.88777E-01  1.00192E+00 -1.13141E-01
    9030.124     38.073   3.360  9.01426E-01  1.00087E+00 -9.94435E-02
    9031.154     39.103   3.400  9.15861E-01  9.99841E-01 -8.39794E-02
    9032.196     40.146   3.440  9.31286E-01  9.98815E-01 -6.75287E-02
    9033.251     41.200   3.480  9.46838E-01  9.97792E-01 -5.09537E-02
    9034.318     42.267   3.520  9.61958E-01  9.96796E-01 -3.48382E-02
    9035.397     43.346   3.560  9.76286E-01  9.95810E-01 -1.95235E-02
    9036.488     44.437   3.600  9.89670E-01  9.94857E-01 -5.18615E-03
    9037.591     45.541   3.640  1.00221E+00  9.93937E-01  8.26771E-03
    9038.707     46.656   3.680  1.01402E+00  9.93033E-01  2.09893E-02
    9039.835     47.784   3.720  1.02519E+00  9.92190E-01  3.29997E-02
    9040.975     48.924   3.760  1.03562E+00  9.91387E-01  4.42373E-02
    9042.127     50.076   3.800  1.04515E+00  9.90626E-01  5.45214E-02
    9043.291     51.241   3.840  1.05338E+00  9.89906E-01  6.34721E-02
    9044.468     52.417   3.880  1.05985E+00  9.89229E-01  7.06253E-02
    9045.656     53.606   3.920  1.06414E+00  9.88617E-01  7.55264E-02
    9046.857     54.807   3.960  1.06583E+00  9.88029E-01  7.78031E-02
    9048.070     56.020   4.000  1.06482E+00  9.87528E-01  7.72962E-02
    9049.296     57.245   4.040  1.06136E+00  9.87052E-01  7.43064E-02
    9050.533     58.483   4.080  1.05603E+00  9.86643E-01  6.93909E-02
    9051.783     59.732   4.120  1.04954E+00  9.86281E-01  6.32612E-02
    9053.045     60.994   4.160  1.04265E+00  9.85987E-01  5.66651E-02
    9054.319     62.268   4.200  1.03603E+00  9.85739E-01  5.02937E-02
    9055.605     63.554   4.240  1.03021E+00  9.85558E-01  4.46569E-02
    9056.903     64.853   4.280  1.02549E+00  9.85400E-01  4.00901E-02
    9058.214     66.163   4.320  1.02204E+00  9.85307E-01  3.67312E-02
    9059.537     67.486   4.360  1.01968E+00  9.85259E-01  3.44206E-02
    9060.872     68.821   4.400  1.01805E+00  9.85276E-01  3.27728E-02
    9062.219     70.169   4.440  1.01659E+00  9.85314E-01  3.12787E-02
    9063.578     71.528   4.480  1.01483E+00  9.85415E-01  2.94187E-02
    9064.950     72.900   4.520  1.01233E+00  9.85557E-01  2.67774E-02
    9066.334     74.283   4.560  1.00893E+00  9.85738E-01  2.31891E-02
    9067.730     75.679   4.600  1.00471E+00  9.85934E-01  1.87792E-02
    9069.138     77.087   4.640  1.00005E+00  9.86189E-01  1.38579E-02
    9070.558     78.508   4.680  9.95246E-01  9.86458E-01  8.78830E-03
    9071.991     79.940   4.720  9.90605E-01  9.86762E-01  3.84367E-03
    9073.436     81.385   4.760  9.86235E-01  9.87098E-01 -8.63550E-04
    9074.893     82.842   4.800  9.82161E-01  9.87446E-01 -5.28495E-03
    9076.362     84.311   4.840  9.78423E-01  9.87822E-01 -9.39900E-03
    9077.843     85.792   4.880  9.75044E-01  9.88208E-01 -1.31634E-02
    9079.336     87.286   4.920  9.72104E-01  9.88621E-01 -1.65170E-02
    9080.842     88.792   4.960  9.69595E-01  9.89038E-01 -1.94432E-02
    9082.360     90.310   5.000  9.67498E-01  9.89457E-01 -2.19593E-02
    9083.890     91.840   5.040  9.65784E-01  9.89876E-01 -2.40919E-02
    9085.432     93.382   5.080  9.64432E-01  9.90295E-01 -2.58628E-02
    9086.987     94.936   5.120  9.63474E-01  9.90711E-01 -2.72373E-02
    9088.554     96.503   5.160  9.62964E-01  9.91126E-01 -2.81625E-02
    9090.132     98.082   5.200  9.62951E-01  9.91537E-01 -2.85858E-02
    9091.723     99.673   5.240  9.63395E-01  9.91919E-01 -2.85236E-02
    9093.327    101.276   5.280  9.64201E-01  9.92292E-01 -2.80911E-02
    9094.942    102.892   5.320  9.65155E-01  9.92659E-01 -2.75036E-02
    9096.570    104.519   5.360  9.65960E-01  9.92992E-01 -2.70324E-02
    9098.210    106.159   5.400  9.66372E-01  9.93293E-01 -2.69205E-02
    9099.862    107.811   5.440  9.66277E-01  9.93583E-01 -2.73057E-02
    9101.526    109.475   5.480  9.65744E-01  9.93861E-01 -2.81170E-02
    9103.202    111.152   5.520  9.65075E-01  9.94082E-01 -2.90066E-02
    9104.891    112.840   5.560  9.64874E-01  9.94287E-01 -2.94129E-02
    9106.592    114.541   5.600  9.65674E-01  9.94455E-01 -2.87813E-02
    9108.305    116.254   5.640  9.67761E-01  9.94584E-01 -2.68233E-02
    9110.030    117.979   5.680  9.71050E-01  9.94673E-01 -2.36232E-02
    9111.767    119.717   5.720  9.75185E-01  9.94723E-01 -1.95380E-02
    9113.517    121.466   5.760  9.79721E-01  9.94734E-01 -1.50134E-02
    9115.278    123.228   5.800  9.84248E-01  9.94707E-01 -1.04591E-02
    9117.052    125.002   5.840  9.88446E-01  9.94665E-01 -6.21864E-03
    9118.838    126.788   5.880  9.92001E-01  9.94560E-01 -2.55946E-03
    9120.637    128.586   5.920  9.94778E-01  9.94414E-01  3.64361E-04
    9122.447    130.397   5.960  9.96815E-01  9.94226E-01  2.58892E-03
    9124.270    132.219   6.000  9.98455E-01  9.94003E-01  4.45199E-03
