# # comment:                                                     FEFF 9.9.1  
# # Source:
# # Structure
# # Reduced
# # space
# # abc:
# # angles:
# # sites:
# # POT  SCF 100  7.0000   0, screened core-hole, AFOLP (folp(0)= 1.150)
# # Abs   Z=29 Rmt= 1.296 Rnm= 1.355 K  shell
# # Pot 1 Z= 3 Rmt= 1.242 Rnm= 1.386
# # Pot 2 Z=29 Rmt= 1.249 Rnm= 1.332
# # Pot 3 Z=14 Rmt= 0.995 Rnm= 1.214
# # Pot 4 Z= 8 Rmt= 0.933 Rnm= 1.082
# # Gam_ch=1.729E+00 H-L exch Vi= 0.000E+00 Vr= 0.000E+00
# # Mu=-8.450E+00eV kf=2.302E+00 Vint=-1.755E+01eV Rs_int= 1.576
# FMS rfms= 9.0000
# # PATH  Rmax=-1.000,  Keep_limit= 0.00, Heap_limit 0.00  Pwcrit= 2.50%
#  S02=0.950  Temp=   0.00  Debye_temp=   0.00  Global_sig2= 0.00000
#  Energy zero shift, vr, vi    0.00000E+00   0.00000E+00
#  Curved wave amplitude ratio filter   4.000%
#     file         sig2 tot  cw amp ratio   deg  nlegs   reff  inp sig2
#     0/   0 paths used
#  xsedge+ 50, used to normalize mu           2.5086E-04
#  -----------------------------------------------------------------------
#  omega    e    k    mu    mu0     chi     @#
    8983.567    -12.260  -1.000  2.89853E-02  4.46871E-02 -1.57018E-02
    8983.866    -11.961  -0.960  3.01336E-02  4.77454E-02 -1.76118E-02
    8984.152    -11.675  -0.920  3.13355E-02  5.11323E-02 -1.97968E-02
    8984.427    -11.400  -0.880  3.25941E-02  5.48954E-02 -2.23012E-02
    8984.689    -11.138  -0.840  3.39135E-02  5.90903E-02 -2.51769E-02
    8984.939    -10.888  -0.800  3.52977E-02  6.37814E-02 -2.84837E-02
    8985.177    -10.651  -0.760  3.67515E-02  6.90424E-02 -3.22909E-02
    8985.402    -10.425  -0.720  3.82800E-02  7.49565E-02 -3.66765E-02
    8985.615    -10.212  -0.680  3.98884E-02  8.16154E-02 -4.17270E-02
    8985.817    -10.011  -0.640  4.15820E-02  8.91157E-02 -4.75337E-02
    8986.006     -9.822  -0.600  4.33650E-02  9.75523E-02 -5.41873E-02
    8986.182     -9.645  -0.560  4.52396E-02  1.07006E-01 -6.17660E-02
    8986.347     -9.480  -0.520  4.72043E-02  1.17523E-01 -7.03190E-02
    8986.499     -9.328  -0.480  4.92513E-02  1.29093E-01 -7.98421E-02
    8986.640     -9.188  -0.440  5.13639E-02  1.41615E-01 -9.02507E-02
    8986.768     -9.060  -0.400  5.35141E-02  1.54871E-01 -1.01357E-01
    8986.883     -8.944  -0.360  5.56621E-02  1.68522E-01 -1.12860E-01
    8986.987     -8.840  -0.320  5.77582E-02  1.82128E-01 -1.24369E-01
    8987.078     -8.749  -0.280  5.97477E-02  1.95198E-01 -1.35450E-01
    8987.158     -8.669  -0.240  6.15773E-02  2.07263E-01 -1.45685E-01
    8987.225     -8.602  -0.200  6.31998E-02  2.17925E-01 -1.54726E-01
    8987.280     -8.548  -0.160  6.45776E-02  2.26897E-01 -1.62319E-01
    8987.322     -8.505  -0.120  6.56823E-02  2.33991E-01 -1.68309E-01
    8987.353     -8.474  -0.080  6.64933E-02  2.39103E-01 -1.72610E-01
    8987.377     -8.450   0.000  6.71704E-02  2.43212E-01 -1.76041E-01
    8987.432     -8.395   0.120  6.86912E-02  2.52472E-01 -1.83781E-01
    8987.475     -8.352   0.160  6.98571E-02  2.59683E-01 -1.89826E-01
    8987.530     -8.298   0.200  7.13354E-02  2.68883E-01 -1.97548E-01
    8987.597     -8.231   0.240  7.31586E-02  2.79972E-01 -2.06814E-01
    8987.676     -8.151   0.280  7.53082E-02  2.92715E-01 -2.17407E-01
    8987.767     -8.060   0.320  7.77858E-02  3.06818E-01 -2.29032E-01
    8987.871     -7.956   0.360  8.05648E-02  3.21848E-01 -2.41283E-01
    8987.987     -7.840   0.400  8.36774E-02  3.37431E-01 -2.53753E-01
    8988.115     -7.712   0.440  8.71575E-02  3.53167E-01 -2.66010E-01
    8988.255     -7.572   0.480  9.10436E-02  3.68763E-01 -2.77719E-01
    8988.407     -7.420   0.520  9.53785E-02  3.84034E-01 -2.88656E-01
    8988.572     -7.255   0.560  1.00208E-01  3.98879E-01 -2.98671E-01
    8988.749     -7.078   0.600  1.05630E-01  4.13293E-01 -3.07663E-01
    8988.938     -6.889   0.640  1.11687E-01  4.27322E-01 -3.15636E-01
    8989.139     -6.688   0.680  1.18444E-01  4.41040E-01 -3.22596E-01
    8989.352     -6.475   0.720  1.25939E-01  4.54511E-01 -3.28572E-01
    8989.578     -6.249   0.760  1.34307E-01  4.67840E-01 -3.33533E-01
    8989.816     -6.012   0.800  1.43527E-01  4.81061E-01 -3.37535E-01
    8990.065     -5.762   0.840  1.53510E-01  4.94243E-01 -3.40733E-01
    8990.328     -5.500   0.880  1.64172E-01  5.07422E-01 -3.43250E-01
    8990.602     -5.225   0.920  1.75882E-01  5.20685E-01 -3.44803E-01
    8990.888     -4.939   0.960  1.89310E-01  5.33989E-01 -3.44679E-01
    8991.187     -4.640   1.000  2.05306E-01  5.47423E-01 -3.42117E-01
    8991.498     -4.329   1.040  2.24375E-01  5.60929E-01 -3.36554E-01
    8991.821     -4.006   1.080  2.47005E-01  5.74566E-01 -3.27561E-01
    8992.156     -3.671   1.120  2.73781E-01  5.88304E-01 -3.14523E-01
    8992.504     -3.323   1.160  3.05266E-01  6.02129E-01 -2.96863E-01
    8992.864     -2.964   1.200  3.41881E-01  6.16044E-01 -2.74163E-01
    8993.235     -2.592   1.240  3.84090E-01  6.30050E-01 -2.45960E-01
    8993.619     -2.208   1.280  4.32332E-01  6.44104E-01 -2.11772E-01
    8994.016     -1.812   1.320  4.85799E-01  6.58201E-01 -1.72402E-01
    8994.424     -1.403   1.360  5.43166E-01  6.72294E-01 -1.29128E-01
    8994.845     -0.982   1.400  6.04649E-01  6.86376E-01 -8.17273E-02
    8995.278     -0.550   1.440  6.69169E-01  7.00435E-01 -3.12662E-02
    8995.723     -0.105   1.480  7.33494E-01  7.14422E-01  1.90726E-02
    8996.180      0.353   1.520  7.94307E-01  7.28325E-01  6.59823E-02
    8996.649      0.822   1.560  8.44055E-01  7.42091E-01  1.01964E-01
    8997.131      1.304   1.600  8.80973E-01  7.55710E-01  1.25263E-01
    8997.624      1.797   1.640  9.21240E-01  7.69170E-01  1.52070E-01
    8998.130      2.303   1.680  9.77843E-01  7.82415E-01  1.95428E-01
    8998.649      2.821   1.720  1.04185E+00  7.95415E-01  2.46433E-01
    8999.179      3.352   1.760  1.09796E+00  8.08176E-01  2.89783E-01
    8999.721      3.894   1.800  1.15362E+00  8.20628E-01  3.32995E-01
    9000.276      4.449   1.840  1.23101E+00  8.32799E-01  3.98207E-01
    9000.843      5.016   1.880  1.32998E+00  8.44619E-01  4.85365E-01
    9001.422      5.595   1.920  1.40843E+00  8.56096E-01  5.52332E-01
    9002.014      6.186   1.960  1.41851E+00  8.67202E-01  5.51311E-01
    9002.617      6.790   2.000  1.36086E+00  8.77909E-01  4.82951E-01
    9003.233      7.406   2.040  1.26890E+00  8.88209E-01  3.80693E-01
    9003.861      8.033   2.080  1.17491E+00  8.98094E-01  2.76814E-01
    9004.501      8.674   2.120  1.10008E+00  9.07542E-01  1.92535E-01
    9005.153      9.326   2.160  1.05117E+00  9.16564E-01  1.34607E-01
    9005.817      9.990   2.200  1.02666E+00  9.25118E-01  1.01540E-01
    9006.494     10.667   2.240  1.02242E+00  9.33222E-01  8.91953E-02
    9007.183     11.356   2.280  1.03145E+00  9.40853E-01  9.05991E-02
    9007.884     12.057   2.320  1.04586E+00  9.48031E-01  9.78267E-02
    9008.597     12.770   2.360  1.05981E+00  9.54757E-01  1.05048E-01
    9009.323     13.495   2.400  1.06868E+00  9.61012E-01  1.07671E-01
    9010.060     14.233   2.440  1.06929E+00  9.66817E-01  1.02468E-01
    9010.810     14.983   2.480  1.06241E+00  9.72176E-01  9.02289E-02
    9011.572     15.745   2.520  1.04858E+00  9.77092E-01  7.14859E-02
    9012.346     16.519   2.560  1.02582E+00  9.81571E-01  4.42489E-02
    9013.133     17.305   2.600  9.96187E-01  9.85615E-01  1.05713E-02
    9013.931     18.104   2.640  9.66765E-01  9.89253E-01 -2.24876E-02
    9014.742     18.915   2.680  9.39283E-01  9.92510E-01 -5.32273E-02
    9015.565     19.738   2.720  9.13927E-01  9.95374E-01 -8.14469E-02
    9016.400     20.573   2.760  8.91474E-01  9.97852E-01 -1.06379E-01
    9017.247     21.420   2.800  8.70669E-01  9.99992E-01 -1.29323E-01
    9018.107     22.280   2.840  8.51684E-01  1.00180E+00 -1.50118E-01
    9018.979     23.152   2.880  8.35650E-01  1.00327E+00 -1.67619E-01
    9019.863     24.035   2.920  8.23019E-01  1.00444E+00 -1.81423E-01
    9020.759     24.932   2.960  8.13562E-01  1.00533E+00 -1.91769E-01
    9021.667     25.840   3.000  8.06931E-01  1.00594E+00 -1.99012E-01
    9022.587     26.760   3.040  8.02683E-01  1.00629E+00 -2.03603E-01
    9023.520     27.693   3.080  8.00738E-01  1.00641E+00 -2.05674E-01
    9024.465     28.638   3.120  8.01753E-01  1.00633E+00 -2.04575E-01
    9025.422     29.595   3.160  8.06180E-01  1.00602E+00 -1.99841E-01
    9026.391     30.564   3.200  8.14796E-01  1.00554E+00 -1.90747E-01
    9027.373     31.546   3.240  8.28078E-01  1.00490E+00 -1.76823E-01
    9028.366     32.539   3.280  8.45883E-01  1.00410E+00 -1.58220E-01
    9029.372     33.545   3.320  8.67607E-01  1.00318E+00 -1.35569E-01
    9030.390     34.563   3.360  8.92464E-01  1.00213E+00 -1.09666E-01
    9031.421     35.593   3.400  9.19386E-01  1.00099E+00 -8.16055E-02
    9032.463     36.636   3.440  9.46769E-01  9.99745E-01 -5.29755E-02
    9033.518     37.690   3.480  9.73539E-01  9.98420E-01 -2.48808E-02
    9034.584     38.757   3.520  9.98985E-01  9.97044E-01  1.94146E-03
    9035.663     39.836   3.560  1.02256E+00  9.95620E-01  2.69441E-02
    9036.755     40.927   3.600  1.04395E+00  9.94135E-01  4.98162E-02
    9037.858     42.031   3.640  1.06305E+00  9.92637E-01  7.04120E-02
    9038.973     43.146   3.680  1.07950E+00  9.91131E-01  8.83684E-02
    9040.101     44.274   3.720  1.09278E+00  9.89621E-01  1.03160E-01
    9041.241     45.414   3.760  1.10237E+00  9.88091E-01  1.14274E-01
    9042.393     46.566   3.800  1.10795E+00  9.86607E-01  1.21344E-01
    9043.558     47.730   3.840  1.10944E+00  9.85114E-01  1.24322E-01
    9044.734     48.907   3.880  1.10747E+00  9.83673E-01  1.23800E-01
    9045.923     50.096   3.920  1.10272E+00  9.82249E-01  1.20475E-01
    9047.124     51.297   3.960  1.09586E+00  9.80884E-01  1.14977E-01
    9048.337     52.510   4.000  1.08742E+00  9.79542E-01  1.07874E-01
    9049.562     53.735   4.040  1.07793E+00  9.78266E-01  9.96676E-02
    9050.800     54.972   4.080  1.06770E+00  9.77061E-01  9.06387E-02
    9052.049     56.222   4.120  1.05682E+00  9.75906E-01  8.09119E-02
    9053.311     57.484   4.160  1.04546E+00  9.74823E-01  7.06397E-02
    9054.585     58.758   4.200  1.03381E+00  9.73814E-01  5.99986E-02
    9055.872     60.044   4.240  1.02216E+00  9.72859E-01  4.92980E-02
    9057.170     61.343   4.280  1.01101E+00  9.72002E-01  3.90073E-02
    9058.481     62.653   4.320  1.00084E+00  9.71201E-01  2.96360E-02
    9059.803     63.976   4.360  9.92028E-01  9.70478E-01  2.15493E-02
    9061.138     65.311   4.400  9.84768E-01  9.69856E-01  1.49118E-02
    9062.486     66.658   4.440  9.78889E-01  9.69291E-01  9.59833E-03
    9063.845     68.018   4.480  9.73968E-01  9.68804E-01  5.16406E-03
    9065.217     69.389   4.520  9.69431E-01  9.68418E-01  1.01305E-03
    9066.600     70.773   4.560  9.64707E-01  9.68089E-01 -3.38159E-03
    9067.996     72.169   4.600  9.59534E-01  9.67839E-01 -8.30431E-03
    9069.405     73.577   4.640  9.53921E-01  9.67688E-01 -1.37666E-02
    9070.825     74.998   4.680  9.47971E-01  9.67592E-01 -1.96211E-02
    9072.257     76.430   4.720  9.41856E-01  9.67570E-01 -2.57131E-02
    9073.702     77.875   4.760  9.35754E-01  9.67600E-01 -3.18464E-02
    9075.159     79.332   4.800  9.29955E-01  9.67727E-01 -3.77711E-02
    9076.628     80.801   4.840  9.24641E-01  9.67903E-01 -4.32627E-02
    9078.110     82.282   4.880  9.19946E-01  9.68127E-01 -4.81815E-02
    9079.603     83.776   4.920  9.15899E-01  9.68419E-01 -5.25202E-02
    9081.109     85.282   4.960  9.12465E-01  9.68759E-01 -5.62938E-02
    9082.627     86.800   5.000  9.09788E-01  9.69165E-01 -5.93770E-02
    9084.157     88.330   5.040  9.08098E-01  9.69612E-01 -6.15146E-02
    9085.699     89.872   5.080  9.07719E-01  9.70078E-01 -6.23585E-02
    9087.254     91.426   5.120  9.09024E-01  9.70603E-01 -6.15792E-02
    9088.820     92.993   5.160  9.12214E-01  9.71166E-01 -5.89522E-02
    9090.399     94.572   5.200  9.17430E-01  9.71741E-01 -5.43102E-02
    9091.990     96.163   5.240  9.24658E-01  9.72346E-01 -4.76873E-02
    9093.593     97.766   5.280  9.33536E-01  9.72957E-01 -3.94209E-02
    9095.209     99.382   5.320  9.43344E-01  9.73574E-01 -3.02306E-02
    9096.836    101.009   5.360  9.53214E-01  9.74217E-01 -2.10025E-02
    9098.476    102.649   5.400  9.62309E-01  9.74863E-01 -1.25545E-02
    9100.128    104.301   5.440  9.70063E-01  9.75511E-01 -5.44786E-03
    9101.792    105.965   5.480  9.76232E-01  9.76155E-01  7.68207E-05
    9103.469    107.642   5.520  9.80840E-01  9.76793E-01  4.04620E-03
    9105.157    109.330   5.560  9.84036E-01  9.77402E-01  6.63424E-03
    9106.858    111.031   5.600  9.86021E-01  9.77980E-01  8.04117E-03
    9108.571    112.744   5.640  9.87015E-01  9.78569E-01  8.44582E-03
    9110.296    114.469   5.680  9.87094E-01  9.79102E-01  7.99150E-03
    9112.034    116.207   5.720  9.86498E-01  9.79621E-01  6.87636E-03
    9113.783    117.956   5.760  9.85628E-01  9.80101E-01  5.52725E-03
    9115.545    119.718   5.800  9.85198E-01  9.80518E-01  4.68036E-03
    9117.319    121.492   5.840  9.86169E-01  9.80915E-01  5.25371E-03
    9119.105    123.278   5.880  9.89269E-01  9.81270E-01  7.99904E-03
    9120.903    125.076   5.920  9.94674E-01  9.81554E-01  1.31200E-02
    9122.714    126.887   5.960  1.00185E+00  9.81783E-01  2.00675E-02
    9124.537    128.709   6.000  1.00972E+00  9.81943E-01  2.77809E-02
