# # comment:                                                     FEFF 9.9.1  
# # Source:
# # Structure
# # Reduced
# # space
# # abc:
# # angles:
# # sites:
# # POT  SCF 100  7.0000   0, screened core-hole, AFOLP (folp(0)= 1.150)
# # Abs   Z=29 Rmt= 1.187 Rnm= 1.314 K  shell
# # Pot 1 Z=20 Rmt= 1.627 Rnm= 1.705
# # Pot 2 Z=29 Rmt= 1.182 Rnm= 1.308
# # Pot 3 Z= 8 Rmt= 0.998 Rnm= 1.092
# # Gam_ch=1.729E+00 H-L exch Vi= 0.000E+00 Vr= 0.000E+00
# # Mu=-9.296E+00eV kf=2.057E+00 Vint=-1.791E+01eV Rs_int= 1.763
# FMS rfms= 9.0000
# # PATH  Rmax=-1.000,  Keep_limit= 0.00, Heap_limit 0.00  Pwcrit= 2.50%
#  S02=0.950  Temp=   0.00  Debye_temp=   0.00  Global_sig2= 0.00000
#  Energy zero shift, vr, vi    0.00000E+00   0.00000E+00
#  Curved wave amplitude ratio filter   4.000%
#     file         sig2 tot  cw amp ratio   deg  nlegs   reff  inp sig2
#     0/   0 paths used
#  xsedge+ 50, used to normalize mu           2.4727E-04
#  -----------------------------------------------------------------------
#  omega    e    k    mu    mu0     chi     @#
    8984.710    -13.106  -1.000  4.26832E-02  5.28898E-02 -1.02066E-02
    8985.009    -12.808  -0.960  4.53944E-02  5.66960E-02 -1.13016E-02
    8985.295    -12.521  -0.920  4.83775E-02  6.09222E-02 -1.25447E-02
    8985.570    -12.247  -0.880  5.16696E-02  6.56300E-02 -1.39604E-02
    8985.832    -11.985  -0.840  5.53133E-02  7.08909E-02 -1.55776E-02
    8986.082    -11.735  -0.800  5.93570E-02  7.67877E-02 -1.74308E-02
    8986.319    -11.497  -0.760  6.38554E-02  8.34157E-02 -1.95604E-02
    8986.545    -11.272  -0.720  6.88689E-02  9.08823E-02 -2.20133E-02
    8986.758    -11.058  -0.680  7.44629E-02  9.93055E-02 -2.48427E-02
    8986.959    -10.857  -0.640  8.07045E-02  1.08810E-01 -2.81058E-02
    8987.148    -10.668  -0.600  8.76587E-02  1.19519E-01 -3.18602E-02
    8987.325    -10.491  -0.560  9.53804E-02  1.31536E-01 -3.61553E-02
    8987.490    -10.327  -0.520  1.03903E-01  1.44922E-01 -4.10195E-02
    8987.642    -10.174  -0.480  1.13224E-01  1.59665E-01 -4.64413E-02
    8987.782    -10.034  -0.440  1.23285E-01  1.75634E-01 -5.23487E-02
    8987.910     -9.906  -0.400  1.33959E-01  1.92551E-01 -5.85924E-02
    8988.026     -9.790  -0.360  1.45038E-01  2.09983E-01 -6.49453E-02
    8988.130     -9.687  -0.320  1.56237E-01  2.27364E-01 -7.11272E-02
    8988.221     -9.595  -0.280  1.67212E-01  2.44065E-01 -7.68527E-02
    8988.301     -9.516  -0.240  1.77596E-01  2.59482E-01 -8.18863E-02
    8988.368     -9.449  -0.200  1.87029E-01  2.73109E-01 -8.60808E-02
    8988.422     -9.394  -0.160  1.95190E-01  2.84575E-01 -8.93850E-02
    8988.465     -9.351  -0.120  2.01818E-01  2.93640E-01 -9.18216E-02
    8988.496     -9.321  -0.080  2.06719E-01  3.00172E-01 -9.34537E-02
    8988.520     -9.296   0.000  2.10793E-01  3.05422E-01 -9.46286E-02
    8988.575     -9.242   0.120  2.19785E-01  3.17270E-01 -9.74848E-02
    8988.618     -9.199   0.160  2.26921E-01  3.26469E-01 -9.95476E-02
    8988.672     -9.144   0.200  2.36284E-01  3.38219E-01 -1.01935E-01
    8988.739     -9.077   0.240  2.47947E-01  3.52367E-01 -1.04420E-01
    8988.819     -8.998   0.280  2.61915E-01  3.68636E-01 -1.06721E-01
    8988.910     -8.906   0.320  2.77977E-01  3.86600E-01 -1.08623E-01
    8989.014     -8.803   0.360  2.95729E-01  4.05757E-01 -1.10028E-01
    8989.130     -8.687   0.400  3.14433E-01  4.25568E-01 -1.11136E-01
    8989.258     -8.559   0.440  3.33170E-01  4.45544E-01 -1.12374E-01
    8989.398     -8.419   0.480  3.50973E-01  4.65265E-01 -1.14292E-01
    8989.550     -8.266   0.520  3.67125E-01  4.84510E-01 -1.17384E-01
    8989.715     -8.102   0.560  3.81040E-01  5.03167E-01 -1.22127E-01
    8989.892     -7.925   0.600  3.92004E-01  5.21165E-01 -1.29161E-01
    8990.081     -7.736   0.640  3.99517E-01  5.38598E-01 -1.39081E-01
    8990.282     -7.535   0.680  4.03580E-01  5.55495E-01 -1.51915E-01
    8990.495     -7.321   0.720  4.05063E-01  5.71977E-01 -1.66914E-01
    8990.721     -7.096   0.760  4.05074E-01  5.88123E-01 -1.83049E-01
    8990.958     -6.858   0.800  4.04572E-01  6.03983E-01 -1.99411E-01
    8991.208     -6.608   0.840  4.04740E-01  6.19635E-01 -2.14895E-01
    8991.470     -6.346   0.880  4.07124E-01  6.35124E-01 -2.28001E-01
    8991.745     -6.072   0.920  4.13106E-01  6.50461E-01 -2.37355E-01
    8992.031     -5.785   0.960  4.23301E-01  6.65707E-01 -2.42406E-01
    8992.330     -5.486   1.000  4.37193E-01  6.80833E-01 -2.43640E-01
    8992.641     -5.176   1.040  4.53554E-01  6.95838E-01 -2.42284E-01
    8992.964     -4.852   1.080  4.71091E-01  7.10737E-01 -2.39646E-01
    8993.299     -4.517   1.120  4.88125E-01  7.25517E-01 -2.37392E-01
    8993.647     -4.170   1.160  5.01971E-01  7.40124E-01 -2.38153E-01
    8994.006     -3.810   1.200  5.11035E-01  7.54575E-01 -2.43540E-01
    8994.378     -3.438   1.240  5.17464E-01  7.68806E-01 -2.51342E-01
    8994.762     -3.054   1.280  5.27171E-01  7.82832E-01 -2.55661E-01
    8995.159     -2.658   1.320  5.45771E-01  7.96583E-01 -2.50812E-01
    8995.567     -2.249   1.360  5.74969E-01  8.10052E-01 -2.35083E-01
    8995.988     -1.829   1.400  6.13552E-01  8.23208E-01 -2.09657E-01
    8996.420     -1.396   1.440  6.58562E-01  8.36022E-01 -1.77460E-01
    8996.865     -0.951   1.480  7.04494E-01  8.48464E-01 -1.43970E-01
    8997.323     -0.494   1.520  7.46559E-01  8.60525E-01 -1.13967E-01
    8997.792     -0.024   1.560  7.82364E-01  8.72155E-01 -8.97916E-02
    8998.274      0.457   1.600  8.11807E-01  8.83347E-01 -7.15404E-02
    8998.767      0.951   1.640  8.37567E-01  8.94094E-01 -5.65269E-02
    8999.273      1.457   1.680  8.64647E-01  9.04369E-01 -3.97213E-02
    8999.791      1.975   1.720  8.99692E-01  9.14168E-01 -1.44756E-02
    9000.322      2.505   1.760  9.45069E-01  9.23467E-01  2.16021E-02
    9000.864      3.048   1.800  9.97871E-01  9.32265E-01  6.56065E-02
    9001.419      3.603   1.840  1.05431E+00  9.40560E-01  1.13751E-01
    9001.986      4.170   1.880  1.10667E+00  9.48374E-01  1.58294E-01
    9002.565      4.749   1.920  1.14435E+00  9.55665E-01  1.88690E-01
    9003.156      5.340   1.960  1.16078E+00  9.62459E-01  1.98320E-01
    9003.760      5.944   2.000  1.16092E+00  9.68779E-01  1.92136E-01
    9004.376      6.559   2.040  1.16174E+00  9.74610E-01  1.87127E-01
    9005.004      7.187   2.080  1.17654E+00  9.79957E-01  1.96580E-01
    9005.644      7.827   2.120  1.20526E+00  9.84846E-01  2.20414E-01
    9006.296      8.479   2.160  1.23762E+00  9.89305E-01  2.48315E-01
    9006.960      9.144   2.200  1.26131E+00  9.93322E-01  2.67984E-01
    9007.637      9.821   2.240  1.26923E+00  9.96925E-01  2.72309E-01
    9008.326     10.509   2.280  1.26343E+00  1.00012E+00  2.63303E-01
    9009.027     11.210   2.320  1.24812E+00  1.00295E+00  2.45179E-01
    9009.740     11.924   2.360  1.22222E+00  1.00540E+00  2.16816E-01
    9010.466     12.649   2.400  1.18499E+00  1.00752E+00  1.77469E-01
    9011.203     13.387   2.440  1.14334E+00  1.00931E+00  1.34033E-01
    9011.953     14.137   2.480  1.10754E+00  1.01079E+00  9.67481E-02
    9012.715     14.899   2.520  1.08139E+00  1.01200E+00  6.93979E-02
    9013.489     15.673   2.560  1.05981E+00  1.01293E+00  4.68812E-02
    9014.276     16.459   2.600  1.04058E+00  1.01361E+00  2.69662E-02
    9015.074     17.258   2.640  1.02403E+00  1.01406E+00  9.96870E-03
    9015.885     18.068   2.680  1.01070E+00  1.01431E+00 -3.61282E-03
    9016.708     18.891   2.720  1.00065E+00  1.01435E+00 -1.37024E-02
    9017.543     19.727   2.760  9.92972E-01  1.01424E+00 -2.12672E-02
    9018.390     20.574   2.800  9.86367E-01  1.01394E+00 -2.75761E-02
    9019.250     21.433   2.840  9.80053E-01  1.01351E+00 -3.34602E-02
    9020.122     22.305   2.880  9.73706E-01  1.01296E+00 -3.92511E-02
    9021.005     23.189   2.920  9.67492E-01  1.01228E+00 -4.47907E-02
    9021.902     24.085   2.960  9.61911E-01  1.01152E+00 -4.96072E-02
    9022.810     24.993   3.000  9.57132E-01  1.01067E+00 -5.35375E-02
    9023.730     25.914   3.040  9.52885E-01  1.00974E+00 -5.68581E-02
    9024.663     26.847   3.080  9.48843E-01  1.00877E+00 -5.99221E-02
    9025.608     27.791   3.120  9.44743E-01  1.00772E+00 -6.29766E-02
    9026.565     28.749   3.160  9.40568E-01  1.00666E+00 -6.60879E-02
    9027.534     29.718   3.200  9.36437E-01  1.00556E+00 -6.91203E-02
    9028.516     30.699   3.240  9.32771E-01  1.00445E+00 -7.16751E-02
    9029.509     31.693   3.280  9.29845E-01  1.00331E+00 -7.34653E-02
    9030.515     32.699   3.320  9.27843E-01  1.00219E+00 -7.43493E-02
    9031.533     33.717   3.360  9.26802E-01  1.00106E+00 -7.42536E-02
    9032.563     34.747   3.400  9.26854E-01  9.99945E-01 -7.30911E-02
    9033.606     35.789   3.440  9.27963E-01  9.98864E-01 -7.09005E-02
    9034.660     36.844   3.480  9.30014E-01  9.97793E-01 -6.77797E-02
    9035.727     37.911   3.520  9.32866E-01  9.96756E-01 -6.38897E-02
    9036.806     38.990   3.560  9.36198E-01  9.95755E-01 -5.95567E-02
    9037.897     40.081   3.600  9.39658E-01  9.94772E-01 -5.51143E-02
    9039.001     41.184   3.640  9.43177E-01  9.93851E-01 -5.06742E-02
    9040.116     42.300   3.680  9.46760E-01  9.92975E-01 -4.62145E-02
    9041.244     43.428   3.720  9.50447E-01  9.92163E-01 -4.17168E-02
    9042.384     44.568   3.760  9.54218E-01  9.91397E-01 -3.71784E-02
    9043.536     45.720   3.800  9.58012E-01  9.90675E-01 -3.26624E-02
    9044.701     46.884   3.840  9.61716E-01  9.89999E-01 -2.82828E-02
    9045.877     48.061   3.880  9.65319E-01  9.89391E-01 -2.40719E-02
    9047.066     49.249   3.920  9.69040E-01  9.88829E-01 -1.97890E-02
    9048.267     50.450   3.960  9.73268E-01  9.88338E-01 -1.50700E-02
    9049.480     51.663   4.000  9.78267E-01  9.87894E-01 -9.62669E-03
    9050.705     52.889   4.040  9.84068E-01  9.87498E-01 -3.43058E-03
    9051.943     54.126   4.080  9.90451E-01  9.87193E-01  3.25750E-03
    9053.192     55.376   4.120  9.96980E-01  9.86915E-01  1.00655E-02
    9054.454     56.638   4.160  1.00357E+00  9.86703E-01  1.68704E-02
    9055.728     57.912   4.200  1.01036E+00  9.86538E-01  2.38251E-02
    9057.014     59.198   4.240  1.01759E+00  9.86439E-01  3.11520E-02
    9058.313     60.496   4.280  1.02530E+00  9.86366E-01  3.89386E-02
    9059.623     61.807   4.320  1.03335E+00  9.86378E-01  4.69693E-02
    9060.946     63.130   4.360  1.04105E+00  9.86412E-01  5.46334E-02
    9062.281     64.465   4.400  1.04763E+00  9.86488E-01  6.11469E-02
    9063.629     65.812   4.440  1.05248E+00  9.86625E-01  6.58519E-02
    9064.988     67.171   4.480  1.05513E+00  9.86782E-01  6.83512E-02
    9066.360     68.543   4.520  1.05548E+00  9.86999E-01  6.84851E-02
    9067.743     69.927   4.560  1.05346E+00  9.87231E-01  6.62329E-02
    9069.139     71.323   4.600  1.04905E+00  9.87499E-01  6.15517E-02
    9070.547     72.731   4.640  1.04227E+00  9.87804E-01  5.44615E-02
    9071.968     74.151   4.680  1.03338E+00  9.88142E-01  4.52426E-02
    9073.400     75.584   4.720  1.02314E+00  9.88491E-01  3.46464E-02
    9074.845     77.029   4.760  1.01271E+00  9.88869E-01  2.38456E-02
    9076.302     78.486   4.800  1.00330E+00  9.89252E-01  1.40516E-02
    9077.771     79.955   4.840  9.95628E-01  9.89643E-01  5.98506E-03
    9079.253     81.436   4.880  9.89723E-01  9.90060E-01 -3.37085E-04
    9080.746     82.930   4.920  9.85169E-01  9.90480E-01 -5.31163E-03
    9082.252     84.435   4.960  9.81665E-01  9.90902E-01 -9.23703E-03
    9083.770     85.953   5.000  9.79326E-01  9.91326E-01 -1.19995E-02
    9085.300     87.483   5.040  9.78515E-01  9.91770E-01 -1.32556E-02
    9086.842     89.026   5.080  9.79371E-01  9.92189E-01 -1.28176E-02
    9088.396     90.580   5.120  9.81761E-01  9.92580E-01 -1.08194E-02
    9089.963     92.147   5.160  9.85337E-01  9.92988E-01 -7.65133E-03
    9091.542     93.726   5.200  9.89488E-01  9.93370E-01 -3.88190E-03
    9093.133     95.317   5.240  9.93446E-01  9.93744E-01 -2.98545E-04
    9094.736     96.920   5.280  9.96379E-01  9.94111E-01  2.26798E-03
    9096.352     98.535   5.320  9.97665E-01  9.94445E-01  3.21961E-03
    9097.979    100.163   5.360  9.97152E-01  9.94745E-01  2.40690E-03
    9099.619    101.803   5.400  9.95060E-01  9.95034E-01  2.62571E-05
    9101.271    103.455   5.440  9.91646E-01  9.95289E-01 -3.64215E-03
    9102.935    105.119   5.480  9.87245E-01  9.95529E-01 -8.28387E-03
    9104.612    106.795   5.520  9.82346E-01  9.95711E-01 -1.33645E-02
    9106.300    108.484   5.560  9.77812E-01  9.95879E-01 -1.80665E-02
    9108.001    110.185   5.600  9.74497E-01  9.96011E-01 -2.15142E-02
    9109.714    111.898   5.640  9.72985E-01  9.96128E-01 -2.31426E-02
    9111.439    113.623   5.680  9.73324E-01  9.96185E-01 -2.28611E-02
    9113.177    115.360   5.720  9.75217E-01  9.96224E-01 -2.10068E-02
    9114.926    117.110   5.760  9.78013E-01  9.96203E-01 -1.81896E-02
    9116.688    118.871   5.800  9.80929E-01  9.96167E-01 -1.52382E-02
    9118.462    120.645   5.840  9.83053E-01  9.96094E-01 -1.30406E-02
    9120.248    122.431   5.880  9.83766E-01  9.95982E-01 -1.22169E-02
    9122.046    124.230   5.920  9.83019E-01  9.95835E-01 -1.28154E-02
    9123.857    126.040   5.960  9.81338E-01  9.95647E-01 -1.43088E-02
    9125.679    127.863   6.000  9.79480E-01  9.95397E-01 -1.59166E-02
