# # comment:                                                     FEFF 9.9.1  
# # Source:
# # Structure
# # Reduced
# # space
# # abc:
# # angles:
# # sites:
# # POT  SCF 100  7.0000   0, screened core-hole, AFOLP (folp(0)= 1.150)
# # Abs   Z=29 Rmt= 1.170 Rnm= 1.254 K  shell
# # Pot 1 Z=57 Rmt= 1.770 Rnm= 1.844
# # Pot 2 Z=29 Rmt= 1.170 Rnm= 1.254
# # Pot 3 Z= 8 Rmt= 1.039 Rnm= 1.087
# # Gam_ch=1.729E+00 H-L exch Vi= 0.000E+00 Vr= 0.000E+00
# # Mu=-7.876E+00eV kf=2.090E+00 Vint=-1.897E+01eV Rs_int= 1.735
# FMS rfms= 9.0000
# # PATH  Rmax=-1.000,  Keep_limit= 0.00, Heap_limit 0.00  Pwcrit= 2.50%
#  S02=0.950  Temp=   0.00  Debye_temp=   0.00  Global_sig2= 0.00000
#  Energy zero shift, vr, vi    0.00000E+00   0.00000E+00
#  Curved wave amplitude ratio filter   4.000%
#     file         sig2 tot  cw amp ratio   deg  nlegs   reff  inp sig2
#     0/   0 paths used
#  xsedge+ 50, used to normalize mu           2.4508E-04
#  -----------------------------------------------------------------------
#  omega    e    k    mu    mu0     chi     @#
    8985.336    -11.686  -1.000  4.08399E-02  5.82812E-02 -1.74413E-02
    8985.635    -11.387  -0.960  4.29926E-02  6.26695E-02 -1.96769E-02
    8985.921    -11.101  -0.920  4.53084E-02  6.75604E-02 -2.22520E-02
    8986.195    -10.827  -0.880  4.78057E-02  7.30294E-02 -2.52237E-02
    8986.458    -10.564  -0.840  5.05053E-02  7.91644E-02 -2.86591E-02
    8986.708    -10.315  -0.800  5.34313E-02  8.60675E-02 -3.26363E-02
    8986.945    -10.077  -0.760  5.66108E-02  9.38561E-02 -3.72453E-02
    8987.171     -9.851  -0.720  6.00742E-02  1.02663E-01 -4.25887E-02
    8987.384     -9.638  -0.680  6.38547E-02  1.12635E-01 -4.87799E-02
    8987.585     -9.437  -0.640  6.79861E-02  1.23926E-01 -5.59399E-02
    8987.774     -9.248  -0.600  7.25008E-02  1.36690E-01 -6.41893E-02
    8987.951     -9.071  -0.560  7.74238E-02  1.51057E-01 -7.36337E-02
    8988.116     -8.906  -0.520  8.27644E-02  1.67107E-01 -8.43427E-02
    8988.268     -8.754  -0.480  8.85056E-02  1.84824E-01 -9.63188E-02
    8988.408     -8.614  -0.440  9.45904E-02  2.04053E-01 -1.09462E-01
    8988.536     -8.486  -0.400  1.00913E-01  2.24453E-01 -1.23540E-01
    8988.652     -8.370  -0.360  1.07315E-01  2.45492E-01 -1.38177E-01
    8988.756     -8.266  -0.320  1.13601E-01  2.66476E-01 -1.52875E-01
    8988.847     -8.175  -0.280  1.19563E-01  2.86637E-01 -1.67074E-01
    8988.926     -8.096  -0.240  1.25008E-01  3.05237E-01 -1.80229E-01
    8988.993     -8.029  -0.200  1.29781E-01  3.21661E-01 -1.91880E-01
    8989.048     -7.974  -0.160  1.33777E-01  3.35465E-01 -2.01688E-01
    8989.091     -7.931  -0.120  1.36925E-01  3.46366E-01 -2.09441E-01
    8989.122     -7.901  -0.080  1.39187E-01  3.54212E-01 -2.15025E-01
    8989.146     -7.876   0.000  1.40990E-01  3.60512E-01 -2.19522E-01
    8989.201     -7.821   0.120  1.45199E-01  3.74702E-01 -2.29502E-01
    8989.243     -7.779   0.160  1.48474E-01  3.85719E-01 -2.37245E-01
    8989.298     -7.724   0.200  1.52656E-01  3.99738E-01 -2.47082E-01
    8989.365     -7.657   0.240  1.57783E-01  4.16588E-01 -2.58805E-01
    8989.445     -7.577   0.280  1.63780E-01  4.35858E-01 -2.72078E-01
    8989.536     -7.486   0.320  1.70639E-01  4.57017E-01 -2.86377E-01
    8989.640     -7.382   0.360  1.78359E-01  4.79408E-01 -3.01049E-01
    8989.755     -7.267   0.400  1.86978E-01  5.02335E-01 -3.15357E-01
    8989.884     -7.139   0.440  1.96453E-01  5.25145E-01 -3.28692E-01
    8990.024     -6.998   0.480  2.06699E-01  5.47327E-01 -3.40628E-01
    8990.176     -6.846   0.520  2.17548E-01  5.68592E-01 -3.51043E-01
    8990.341     -6.681   0.560  2.28797E-01  5.88775E-01 -3.59979E-01
    8990.517     -6.505   0.600  2.40532E-01  6.07824E-01 -3.67292E-01
    8990.706     -6.316   0.640  2.53518E-01  6.25828E-01 -3.72310E-01
    8990.908     -6.114   0.680  2.69039E-01  6.42884E-01 -3.73845E-01
    8991.121     -5.901   0.720  2.88461E-01  6.59108E-01 -3.70647E-01
    8991.347     -5.675   0.760  3.12231E-01  6.74610E-01 -3.62379E-01
    8991.584     -5.438   0.800  3.38348E-01  6.89514E-01 -3.51166E-01
    8991.834     -5.188   0.840  3.61606E-01  7.03909E-01 -3.42303E-01
    8992.096     -4.926   0.880  3.76232E-01  7.17846E-01 -3.41615E-01
    8992.371     -4.651   0.920  3.81266E-01  7.31424E-01 -3.50158E-01
    8992.657     -4.365   0.960  3.81918E-01  7.44661E-01 -3.62743E-01
    8992.956     -4.066   1.000  3.85226E-01  7.57610E-01 -3.72385E-01
    8993.267     -3.755   1.040  3.96332E-01  7.70270E-01 -3.73938E-01
    8993.590     -3.432   1.080  4.18778E-01  7.82671E-01 -3.63893E-01
    8993.925     -3.097   1.120  4.55809E-01  7.94795E-01 -3.38987E-01
    8994.273     -2.749   1.160  5.11042E-01  8.06683E-01 -2.95640E-01
    8994.632     -2.390   1.200  5.88275E-01  8.18305E-01 -2.30030E-01
    8995.004     -2.018   1.240  6.91178E-01  8.29670E-01 -1.38492E-01
    8995.388     -1.634   1.280  8.22696E-01  8.40742E-01 -1.80461E-02
    8995.784     -1.238   1.320  9.82367E-01  8.51506E-01  1.30861E-01
    8996.193     -0.829   1.360  1.14979E+00  8.62002E-01  2.87785E-01
    8996.613     -0.409   1.400  1.25275E+00  8.72149E-01  3.80596E-01
    8997.046      0.024   1.440  1.21972E+00  8.81988E-01  3.37734E-01
    8997.491      0.469   1.480  1.09834E+00  8.91476E-01  2.06859E-01
    8997.948      0.926   1.520  9.82361E-01  9.00613E-01  8.17480E-02
    8998.418      1.396   1.560  9.12200E-01  9.09395E-01  2.80526E-03
    8998.899      1.877   1.600  9.01800E-01  9.17781E-01 -1.59816E-02
    8999.393      2.371   1.640  9.62470E-01  9.25811E-01  3.66582E-02
    8999.899      2.877   1.680  1.09572E+00  9.33443E-01  1.62273E-01
    9000.417      3.395   1.720  1.27310E+00  9.40677E-01  3.32422E-01
    9000.948      3.926   1.760  1.41112E+00  9.47513E-01  4.63609E-01
    9001.490      4.468   1.800  1.42045E+00  9.53953E-01  4.66499E-01
    9002.045      5.023   1.840  1.32127E+00  9.60019E-01  3.61256E-01
    9002.612      5.590   1.880  1.19962E+00  9.65672E-01  2.33948E-01
    9003.191      6.169   1.920  1.10279E+00  9.70937E-01  1.31855E-01
    9003.782      6.760   1.960  1.04611E+00  9.75838E-01  7.02746E-02
    9004.386      7.364   2.000  1.03651E+00  9.80337E-01  5.61765E-02
    9005.002      7.979   2.040  1.07035E+00  9.84479E-01  8.58677E-02
    9005.629      8.607   2.080  1.12244E+00  9.88272E-01  1.34165E-01
    9006.269      9.247   2.120  1.18282E+00  9.91701E-01  1.91120E-01
    9006.922      9.900   2.160  1.23636E+00  9.94791E-01  2.41570E-01
    9007.586     10.564   2.200  1.25682E+00  9.97572E-01  2.59252E-01
    9008.263     11.241   2.240  1.23218E+00  1.00003E+00  2.32154E-01
    9008.952     11.930   2.280  1.17620E+00  1.00221E+00  1.73996E-01
    9009.653     12.631   2.320  1.11377E+00  1.00408E+00  1.09688E-01
    9010.366     13.344   2.360  1.06386E+00  1.00571E+00  5.81502E-02
    9011.091     14.069   2.400  1.03714E+00  1.00707E+00  3.00730E-02
    9011.829     14.807   2.440  1.03569E+00  1.00818E+00  2.75174E-02
    9012.579     15.557   2.480  1.05440E+00  1.00909E+00  4.53087E-02
    9013.341     16.319   2.520  1.07986E+00  1.00977E+00  7.00821E-02
    9014.115     17.093   2.560  1.09190E+00  1.01025E+00  8.16466E-02
    9014.901     17.879   2.600  1.09324E+00  1.01058E+00  8.26580E-02
    9015.700     18.678   2.640  1.08992E+00  1.01072E+00  7.91965E-02
    9016.511     19.489   2.680  1.08465E+00  1.01072E+00  7.39252E-02
    9017.334     20.312   2.720  1.07720E+00  1.01059E+00  6.66059E-02
    9018.169     21.147   2.760  1.06700E+00  1.01031E+00  5.66927E-02
    9019.016     21.994   2.800  1.05375E+00  1.00993E+00  4.38186E-02
    9019.876     22.854   2.840  1.03743E+00  1.00947E+00  2.79621E-02
    9020.747     23.725   2.880  1.01820E+00  1.00892E+00  9.28417E-03
    9021.631     24.609   2.920  9.96549E-01  1.00828E+00 -1.17335E-02
    9022.527     25.505   2.960  9.73629E-01  1.00758E+00 -3.39463E-02
    9023.436     26.414   3.000  9.51701E-01  1.00684E+00 -5.51396E-02
    9024.356     27.334   3.040  9.32903E-01  1.00604E+00 -7.31388E-02
    9025.289     28.267   3.080  9.18047E-01  1.00522E+00 -8.71778E-02
    9026.234     29.212   3.120  9.06882E-01  1.00437E+00 -9.74910E-02
    9027.191     30.169   3.160  8.98655E-01  1.00351E+00 -1.04858E-01
    9028.160     31.138   3.200  8.92680E-01  1.00263E+00 -1.09947E-01
    9029.142     32.120   3.240  8.88805E-01  1.00176E+00 -1.12954E-01
    9030.135     33.113   3.280  8.86836E-01  1.00089E+00 -1.14057E-01
    9031.141     34.119   3.320  8.86509E-01  1.00003E+00 -1.13525E-01
    9032.159     35.137   3.360  8.87355E-01  9.99204E-01 -1.11849E-01
    9033.189     36.167   3.400  8.88895E-01  9.98405E-01 -1.09510E-01
    9034.232     37.210   3.440  8.90584E-01  9.97621E-01 -1.07037E-01
    9035.286     38.264   3.480  8.92143E-01  9.96873E-01 -1.04731E-01
    9036.353     39.331   3.520  8.93626E-01  9.96184E-01 -1.02559E-01
    9037.432     40.410   3.560  8.95235E-01  9.95516E-01 -1.00280E-01
    9038.523     41.501   3.600  8.97395E-01  9.94889E-01 -9.74933E-02
    9039.627     42.605   3.640  9.00784E-01  9.94325E-01 -9.35418E-02
    9040.742     43.720   3.680  9.05988E-01  9.93807E-01 -8.78189E-02
    9041.870     44.848   3.720  9.13369E-01  9.93334E-01 -7.99650E-02
    9043.010     45.988   3.760  9.23011E-01  9.92928E-01 -6.99168E-02
    9044.162     47.140   3.800  9.34777E-01  9.92569E-01 -5.77918E-02
    9045.326     48.304   3.840  9.48204E-01  9.92256E-01 -4.40520E-02
    9046.503     49.481   3.880  9.62534E-01  9.92014E-01 -2.94799E-02
    9047.692     50.670   3.920  9.77020E-01  9.91819E-01 -1.47987E-02
    9048.893     51.871   3.960  9.90996E-01  9.91693E-01 -6.97098E-04
    9050.106     53.084   4.000  1.00380E+00  9.91617E-01  1.21806E-02
    9051.331     54.309   4.040  1.01478E+00  9.91609E-01  2.31694E-02
    9052.568     55.546   4.080  1.02335E+00  9.91648E-01  3.17013E-02
    9053.818     56.796   4.120  1.02923E+00  9.91734E-01  3.74991E-02
    9055.080     58.058   4.160  1.03265E+00  9.91886E-01  4.07599E-02
    9056.354     59.332   4.200  1.03420E+00  9.92084E-01  4.21133E-02
    9057.640     60.618   4.240  1.03469E+00  9.92325E-01  4.23620E-02
    9058.939     61.917   4.280  1.03496E+00  9.92610E-01  4.23462E-02
    9060.249     63.227   4.320  1.03591E+00  9.92957E-01  4.29498E-02
    9061.572     64.550   4.360  1.03823E+00  9.93326E-01  4.49025E-02
    9062.907     65.885   4.400  1.04225E+00  9.93757E-01  4.84905E-02
    9064.254     67.232   4.440  1.04784E+00  9.94227E-01  5.36164E-02
    9065.614     68.592   4.480  1.05466E+00  9.94712E-01  5.99473E-02
    9066.985     69.963   4.520  1.06229E+00  9.95232E-01  6.70576E-02
    9068.369     71.347   4.560  1.07031E+00  9.95787E-01  7.45223E-02
    9069.765     72.743   4.600  1.07828E+00  9.96376E-01  8.19002E-02
    9071.173     74.151   4.640  1.08557E+00  9.96977E-01  8.85934E-02
    9072.594     75.572   4.680  1.09141E+00  9.97605E-01  9.38004E-02
    9074.026     77.004   4.720  1.09482E+00  9.98239E-01  9.65798E-02
    9075.471     78.449   4.760  1.09477E+00  9.98876E-01  9.58903E-02
    9076.928     79.906   4.800  1.09049E+00  9.99518E-01  9.09761E-02
    9078.397     81.375   4.840  1.08191E+00  1.00018E+00  8.17230E-02
    9079.878     82.856   4.880  1.06956E+00  1.00085E+00  6.87140E-02
    9081.372     84.350   4.920  1.05451E+00  1.00149E+00  5.30195E-02
    9082.878     85.856   4.960  1.03793E+00  1.00215E+00  3.57771E-02
    9084.395     87.373   5.000  1.02084E+00  1.00279E+00  1.80503E-02
    9085.926     88.904   5.040  1.00435E+00  1.00341E+00  9.34933E-04
    9087.468     90.446   5.080  9.89621E-01  1.00403E+00 -1.44127E-02
    9089.022     92.000   5.120  9.77847E-01  1.00462E+00 -2.67738E-02
    9090.589     93.567   5.160  9.69946E-01  1.00517E+00 -3.52279E-02
    9092.168     95.146   5.200  9.66290E-01  1.00571E+00 -3.94243E-02
    9093.759     96.737   5.240  9.66422E-01  1.00622E+00 -3.97988E-02
    9095.362     98.340   5.280  9.69336E-01  1.00671E+00 -3.73767E-02
    9096.978     99.956   5.320  9.73770E-01  1.00714E+00 -3.33733E-02
    9098.605    101.583   5.360  9.78637E-01  1.00756E+00 -2.89208E-02
    9100.245    103.223   5.400  9.82893E-01  1.00793E+00 -2.50376E-02
    9101.897    104.875   5.440  9.85581E-01  1.00824E+00 -2.26600E-02
    9103.561    106.539   5.480  9.86093E-01  1.00853E+00 -2.24381E-02
    9105.238    108.216   5.520  9.84220E-01  1.00878E+00 -2.45593E-02
    9106.926    109.904   5.560  9.80156E-01  1.00896E+00 -2.88049E-02
    9108.627    111.605   5.600  9.74160E-01  1.00910E+00 -3.49392E-02
    9110.340    113.318   5.640  9.66448E-01  1.00922E+00 -4.27698E-02
    9112.065    115.043   5.680  9.57381E-01  1.00927E+00 -5.18877E-02
    9113.802    116.780   5.720  9.47837E-01  1.00925E+00 -6.14140E-02
    9115.552    118.530   5.760  9.39276E-01  1.00921E+00 -6.99358E-02
    9117.314    120.292   5.800  9.33323E-01  1.00911E+00 -7.57839E-02
    9119.088    122.066   5.840  9.31442E-01  1.00896E+00 -7.75171E-02
    9120.874    123.852   5.880  9.34353E-01  1.00877E+00 -7.44147E-02
    9122.672    125.650   5.920  9.41521E-01  1.00854E+00 -6.70138E-02
    9124.483    127.461   5.960  9.51605E-01  1.00823E+00 -5.66254E-02
    9126.305    129.283   6.000  9.63067E-01  1.00784E+00 -4.47766E-02
