# # comment:                                                     FEFF 9.9.1  
# # Source:
# # Structure
# # Reduced
# # space
# # abc:
# # angles:141.371058
# # sites:
# # POT  SCF 100  7.0000   0, screened core-hole, AFOLP (folp(0)= 1.150)
# # Abs   Z=29 Rmt= 1.272 Rnm= 1.360 K  shell
# # Pot 1 Z=29 Rmt= 1.272 Rnm= 1.360
# # Pot 2 Z=42 Rmt= 1.228 Rnm= 1.381
# # Pot 3 Z= 8 Rmt= 1.026 Rnm= 1.115
# # Gam_ch=1.729E+00 H-L exch Vi= 0.000E+00 Vr= 0.000E+00
# # Mu=-6.910E+00eV kf=2.209E+00 Vint=-1.521E+01eV Rs_int= 1.642
# FMS rfms= 9.0000
# # PATH  Rmax=-1.000,  Keep_limit= 0.00, Heap_limit 0.00  Pwcrit= 2.50%
#  S02=0.950  Temp=   0.00  Debye_temp=   0.00  Global_sig2= 0.00000
#  Energy zero shift, vr, vi    0.00000E+00   0.00000E+00
#  Curved wave amplitude ratio filter   4.000%
#     file         sig2 tot  cw amp ratio   deg  nlegs   reff  inp sig2
#     0/   0 paths used
#  xsedge+ 50, used to normalize mu           2.4569E-04
#  -----------------------------------------------------------------------
#  omega    e    k    mu    mu0     chi     @#
    8983.488    -10.720  -1.000  3.65730E-02  5.27433E-02 -1.61703E-02
    8983.787    -10.422  -0.960  3.84366E-02  5.65422E-02 -1.81056E-02
    8984.073    -10.135  -0.920  4.04482E-02  6.07605E-02 -2.03124E-02
    8984.348     -9.861  -0.880  4.26273E-02  6.54596E-02 -2.28322E-02
    8984.610     -9.599  -0.840  4.49972E-02  7.07108E-02 -2.57136E-02
    8984.860     -9.349  -0.800  4.75849E-02  7.65969E-02 -2.90120E-02
    8985.098     -9.111  -0.760  5.04222E-02  8.32128E-02 -3.27906E-02
    8985.323     -8.885  -0.720  5.35454E-02  9.06656E-02 -3.71202E-02
    8985.536     -8.672  -0.680  5.69954E-02  9.90733E-02 -4.20778E-02
    8985.738     -8.471  -0.640  6.08158E-02  1.08560E-01 -4.77444E-02
    8985.927     -8.282  -0.600  6.50496E-02  1.19248E-01 -5.41986E-02
    8986.103     -8.105  -0.560  6.97337E-02  1.31241E-01 -6.15077E-02
    8986.268     -7.941  -0.520  7.48890E-02  1.44602E-01 -6.97125E-02
    8986.420     -7.788  -0.480  8.05070E-02  1.59314E-01 -7.88070E-02
    8986.561     -7.648  -0.440  8.65343E-02  1.75250E-01 -8.87157E-02
    8986.689     -7.520  -0.400  9.28599E-02  1.92133E-01 -9.92731E-02
    8986.804     -7.404  -0.360  9.93116E-02  2.09529E-01 -1.10217E-01
    8986.908     -7.300  -0.320  1.05669E-01  2.26874E-01 -1.21205E-01
    8987.000     -7.209  -0.280  1.11694E-01  2.43542E-01 -1.31848E-01
    8987.079     -7.130  -0.240  1.17167E-01  2.58930E-01 -1.41763E-01
    8987.146     -7.063  -0.200  1.21919E-01  2.72532E-01 -1.50613E-01
    8987.201     -7.008  -0.160  1.25847E-01  2.83976E-01 -1.58130E-01
    8987.243     -6.965  -0.120  1.28903E-01  2.93026E-01 -1.64123E-01
    8987.274     -6.935  -0.080  1.31078E-01  2.99546E-01 -1.68468E-01
    8987.298     -6.910   0.000  1.32815E-01  3.04786E-01 -1.71971E-01
    8987.353     -6.855   0.120  1.36548E-01  3.16607E-01 -1.80059E-01
    8987.396     -6.813   0.160  1.39367E-01  3.25793E-01 -1.86426E-01
    8987.451     -6.758   0.200  1.42866E-01  3.37545E-01 -1.94678E-01
    8987.518     -6.691   0.240  1.46874E-01  3.51667E-01 -2.04793E-01
    8987.597     -6.612   0.280  1.51267E-01  3.67928E-01 -2.16662E-01
    8987.688     -6.520   0.320  1.55808E-01  3.85886E-01 -2.30077E-01
    8987.792     -6.417   0.360  1.60344E-01  4.05038E-01 -2.44695E-01
    8987.908     -6.301   0.400  1.64801E-01  4.24873E-01 -2.60072E-01
    8988.036     -6.173   0.440  1.69197E-01  4.44841E-01 -2.75645E-01
    8988.176     -6.032   0.480  1.73726E-01  4.64606E-01 -2.90880E-01
    8988.328     -5.880   0.520  1.78593E-01  4.83907E-01 -3.05313E-01
    8988.493     -5.715   0.560  1.83877E-01  5.02591E-01 -3.18714E-01
    8988.670     -5.539   0.600  1.89607E-01  5.20667E-01 -3.31060E-01
    8988.859     -5.350   0.640  1.95754E-01  5.38168E-01 -3.42414E-01
    8989.060     -5.149   0.680  2.02685E-01  5.55140E-01 -3.52455E-01
    8989.273     -4.935   0.720  2.11387E-01  5.71702E-01 -3.60315E-01
    8989.499     -4.710   0.760  2.22898E-01  5.87909E-01 -3.65011E-01
    8989.737     -4.472   0.800  2.37488E-01  6.03832E-01 -3.66344E-01
    8989.987     -4.222   0.840  2.53704E-01  6.19525E-01 -3.65822E-01
    8990.249     -3.960   0.880  2.68619E-01  6.35051E-01 -3.66432E-01
    8990.523     -3.686   0.920  2.79705E-01  6.50419E-01 -3.70714E-01
    8990.810     -3.399   0.960  2.87010E-01  6.65647E-01 -3.78637E-01
    8991.108     -3.100   1.000  2.92772E-01  6.80723E-01 -3.87951E-01
    8991.419     -2.789   1.040  3.00299E-01  6.95687E-01 -3.95388E-01
    8991.742     -2.466   1.080  3.13666E-01  7.10492E-01 -3.96826E-01
    8992.077     -2.131   1.120  3.37215E-01  7.25146E-01 -3.87931E-01
    8992.425     -1.784   1.160  3.73982E-01  7.39609E-01 -3.65627E-01
    8992.785     -1.424   1.200  4.25331E-01  7.53859E-01 -3.28528E-01
    8993.156     -1.052   1.240  4.90652E-01  7.67893E-01 -2.77241E-01
    8993.541     -0.668   1.280  5.62746E-01  7.81644E-01 -2.18898E-01
    8993.937     -0.272   1.320  6.31989E-01  7.95123E-01 -1.63134E-01
    8994.345      0.137   1.360  7.03915E-01  8.08263E-01 -1.04348E-01
    8994.766      0.557   1.400  7.96106E-01  8.21054E-01 -2.49483E-02
    8995.199      0.990   1.440  9.21858E-01  8.33489E-01  8.83696E-02
    8995.644      1.435   1.480  1.06735E+00  8.45516E-01  2.21836E-01
    8996.101      1.892   1.520  1.17861E+00  8.57128E-01  3.21478E-01
    8996.570      2.362   1.560  1.22673E+00  8.68318E-01  3.58409E-01
    8997.052      2.843   1.600  1.22932E+00  8.79039E-01  3.50284E-01
    8997.546      3.337   1.640  1.18382E+00  8.89287E-01  2.94531E-01
    8998.052      3.843   1.680  1.11995E+00  8.99057E-01  2.20897E-01
    8998.570      4.361   1.720  1.09519E+00  9.08346E-01  1.86844E-01
    8999.100      4.892   1.760  1.11836E+00  9.17133E-01  2.01230E-01
    8999.643      5.434   1.800  1.16157E+00  9.25418E-01  2.36154E-01
    9000.197      5.989   1.840  1.19723E+00  9.33222E-01  2.64004E-01
    9000.764      6.556   1.880  1.21564E+00  9.40529E-01  2.75112E-01
    9001.343      7.135   1.920  1.23574E+00  9.47339E-01  2.88398E-01
    9001.935      7.726   1.960  1.27704E+00  9.53681E-01  3.23354E-01
    9002.538      8.330   2.000  1.32919E+00  9.59558E-01  3.69629E-01
    9003.154      8.945   2.040  1.36751E+00  9.64978E-01  4.02528E-01
    9003.782      9.573   2.080  1.36261E+00  9.69946E-01  3.92668E-01
    9004.422     10.213   2.120  1.31446E+00  9.74490E-01  3.39974E-01
    9005.074     10.866   2.160  1.25241E+00  9.78621E-01  2.73791E-01
    9005.739     11.530   2.200  1.18780E+00  9.82345E-01  2.05457E-01
    9006.415     12.207   2.240  1.11257E+00  9.85694E-01  1.26874E-01
    9007.104     12.896   2.280  1.02554E+00  9.88696E-01  3.68415E-02
    9007.805     13.597   2.320  9.46743E-01  9.91341E-01 -4.45979E-02
    9008.518     14.310   2.360  8.97343E-01  9.93680E-01 -9.63369E-02
    9009.244     15.035   2.400  8.80470E-01  9.95701E-01 -1.15231E-01
    9009.981     15.773   2.440  8.87409E-01  9.97434E-01 -1.10025E-01
    9010.731     16.523   2.480  9.09938E-01  9.98911E-01 -8.89732E-02
    9011.493     17.285   2.520  9.46965E-01  1.00014E+00 -5.31760E-02
    9012.267     18.059   2.560  9.91534E-01  1.00116E+00 -9.62090E-03
    9013.054     18.845   2.600  1.02142E+00  1.00196E+00  1.94590E-02
    9013.852     19.644   2.640  1.02656E+00  1.00257E+00  2.39947E-02
    9014.663     20.455   2.680  1.01997E+00  1.00298E+00  1.69867E-02
    9015.486     21.277   2.720  1.00469E+00  1.00328E+00  1.40958E-03
    9016.321     22.113   2.760  9.82906E-01  1.00340E+00 -2.04912E-02
    9017.169     22.960   2.800  9.61635E-01  1.00341E+00 -4.17782E-02
    9018.028     23.820   2.840  9.45046E-01  1.00331E+00 -5.82661E-02
    9018.900     24.691   2.880  9.31961E-01  1.00312E+00 -7.11600E-02
    9019.784     25.575   2.920  9.19411E-01  1.00284E+00 -8.34332E-02
    9020.680     26.471   2.960  9.06895E-01  1.00249E+00 -9.55959E-02
    9021.588     27.380   3.000  8.96357E-01  1.00208E+00 -1.05728E-01
    9022.509     28.300   3.040  8.89257E-01  1.00161E+00 -1.12356E-01
    9023.441     29.233   3.080  8.85558E-01  1.00112E+00 -1.15562E-01
    9024.386     30.178   3.120  8.84217E-01  1.00059E+00 -1.16375E-01
    9025.343     31.135   3.160  8.84666E-01  1.00005E+00 -1.15387E-01
    9026.312     32.104   3.200  8.87083E-01  9.99487E-01 -1.12404E-01
    9027.294     33.085   3.240  8.92069E-01  9.98917E-01 -1.06848E-01
    9028.288     34.079   3.280  8.99756E-01  9.98369E-01 -9.86131E-02
    9029.293     35.085   3.320  9.09778E-01  9.97825E-01 -8.80469E-02
    9030.311     36.103   3.360  9.21593E-01  9.97288E-01 -7.56943E-02
    9031.342     37.133   3.400  9.34627E-01  9.96779E-01 -6.21525E-02
    9032.384     38.176   3.440  9.48169E-01  9.96280E-01 -4.81117E-02
    9033.439     39.230   3.480  9.61470E-01  9.95815E-01 -3.43450E-02
    9034.505     40.297   3.520  9.73652E-01  9.95388E-01 -2.17364E-02
    9035.584     41.376   3.560  9.84377E-01  9.94999E-01 -1.06212E-02
    9036.676     42.467   3.600  9.93839E-01  9.94647E-01 -8.08507E-04
    9037.779     43.570   3.640  1.00252E+00  9.94335E-01  8.18102E-03
    9038.895     44.686   3.680  1.01066E+00  9.94064E-01  1.65992E-02
    9040.022     45.814   3.720  1.01818E+00  9.93833E-01  2.43488E-02
    9041.162     46.954   3.760  1.02484E+00  9.93645E-01  3.11966E-02
    9042.314     48.106   3.800  1.03048E+00  9.93519E-01  3.69627E-02
    9043.479     49.270   3.840  1.03518E+00  9.93415E-01  4.17680E-02
    9044.655     50.447   3.880  1.03930E+00  9.93370E-01  4.59268E-02
    9045.844     51.635   3.920  1.04294E+00  9.93348E-01  4.95882E-02
    9047.045     52.836   3.960  1.04579E+00  9.93388E-01  5.24029E-02
    9048.258     54.049   4.000  1.04708E+00  9.93470E-01  5.36119E-02
    9049.483     55.275   4.040  1.04588E+00  9.93592E-01  5.22922E-02
    9050.721     56.512   4.080  1.04153E+00  9.93754E-01  4.77738E-02
    9051.970     57.762   4.120  1.03399E+00  9.93955E-01  4.00397E-02
    9053.232     59.024   4.160  1.02406E+00  9.94192E-01  2.98694E-02
    9054.506     60.298   4.200  1.01317E+00  9.94445E-01  1.87288E-02
    9055.793     61.584   4.240  1.00335E+00  9.94754E-01  8.59709E-03
    9057.091     62.883   4.280  9.96530E-01  9.95078E-01  1.45127E-03
    9058.402     64.193   4.320  9.94136E-01  9.95435E-01 -1.29879E-03
    9059.725     65.516   4.360  9.96600E-01  9.95802E-01  7.98487E-04
    9061.060     66.851   4.400  1.00338E+00  9.96222E-01  7.15711E-03
    9062.407     68.198   4.440  1.01300E+00  9.96629E-01  1.63740E-02
    9063.766     69.558   4.480  1.02364E+00  9.97063E-01  2.65813E-02
    9065.138     70.929   4.520  1.03352E+00  9.97502E-01  3.60223E-02
    9066.522     72.313   4.560  1.04163E+00  9.97967E-01  4.36609E-02
    9067.917     73.709   4.600  1.04777E+00  9.98413E-01  4.93600E-02
    9069.326     75.117   4.640  1.05257E+00  9.98881E-01  5.36931E-02
    9070.746     76.538   4.680  1.05677E+00  9.99351E-01  5.74201E-02
    9072.179     77.970   4.720  1.06065E+00  9.99819E-01  6.08288E-02
    9073.623     79.415   4.760  1.06361E+00  1.00028E+00  6.33268E-02
    9075.080     80.872   4.800  1.06434E+00  1.00072E+00  6.36171E-02
    9076.549     82.341   4.840  1.06152E+00  1.00115E+00  6.03696E-02
    9078.031     83.822   4.880  1.05433E+00  1.00158E+00  5.27533E-02
    9079.524     85.316   4.920  1.04252E+00  1.00200E+00  4.05208E-02
    9081.030     86.821   4.960  1.02629E+00  1.00238E+00  2.39070E-02
    9082.548     88.339   5.000  1.00646E+00  1.00276E+00  3.69567E-03
    9084.078     89.869   5.040  9.84440E-01  1.00310E+00 -1.86637E-02
    9085.620     91.412   5.080  9.62295E-01  1.00341E+00 -4.11160E-02
    9087.175     92.966   5.120  9.42317E-01  1.00371E+00 -6.13884E-02
    9088.741     94.533   5.160  9.26388E-01  1.00396E+00 -7.75768E-02
    9090.320     96.112   5.200  9.15638E-01  1.00419E+00 -8.85488E-02
    9091.911     97.703   5.240  9.10374E-01  1.00439E+00 -9.40195E-02
    9093.514     99.306   5.280  9.10131E-01  1.00454E+00 -9.44091E-02
    9095.130    100.921   5.320  9.13976E-01  1.00467E+00 -9.06940E-02
    9096.758    102.549   5.360  9.20763E-01  1.00476E+00 -8.40001E-02
    9098.397    104.189   5.400  9.29519E-01  1.00482E+00 -7.52981E-02
    9100.049    105.841   5.440  9.39631E-01  1.00486E+00 -6.52254E-02
    9101.714    107.505   5.480  9.50601E-01  1.00483E+00 -5.42339E-02
    9103.390    109.181   5.520  9.62254E-01  1.00479E+00 -4.25405E-02
    9105.079    110.870   5.560  9.74571E-01  1.00469E+00 -3.01208E-02
    9106.779    112.571   5.600  9.87660E-01  1.00457E+00 -1.69147E-02
    9108.492    114.284   5.640  1.00103E+00  1.00442E+00 -3.38415E-03
    9110.217    116.009   5.680  1.01354E+00  1.00422E+00  9.32083E-03
    9111.955    117.746   5.720  1.02372E+00  1.00399E+00  1.97313E-02
    9113.704    119.496   5.760  1.03041E+00  1.00372E+00  2.66960E-02
    9115.466    121.258   5.800  1.03309E+00  1.00341E+00  2.96799E-02
    9117.240    123.031   5.840  1.03172E+00  1.00309E+00  2.86363E-02
    9119.026    124.818   5.880  1.02664E+00  1.00271E+00  2.39319E-02
    9120.824    126.616   5.920  1.01883E+00  1.00235E+00  1.64720E-02
    9122.635    128.426   5.960  1.00970E+00  1.00194E+00  7.75690E-03
    9124.458    130.249   6.000  1.00104E+00  1.00150E+00 -4.64960E-04
