# # comment:                                                     FEFF 9.9.1  
# # Source:
# # Structure
# # Reduced
# # space
# # abc:
# # angles:
# # sites:
# # POT  SCF 100  7.0000   0, screened core-hole, AFOLP (folp(0)= 1.150)
# # Abs   Z=29 Rmt= 1.028 Rnm= 1.269 K  shell
# # Pot 1 Z=56 Rmt= 1.951 Rnm= 2.051
# # Pot 2 Z=29 Rmt= 1.028 Rnm= 1.269
# # Pot 3 Z= 6 Rmt= 0.604 Rnm= 0.914
# # Pot 4 Z= 8 Rmt= 0.978 Rnm= 1.132
# # Gam_ch=1.729E+00 H-L exch Vi= 0.000E+00 Vr= 0.000E+00
# # Mu=-8.354E+00eV kf=2.345E+00 Vint=-1.644E+01eV Rs_int= 1.547
# FMS rfms= 9.0000
# # PATH  Rmax=-1.000,  Keep_limit= 0.00, Heap_limit 0.00  Pwcrit= 2.50%
#  S02=0.950  Temp=   0.00  Debye_temp=   0.00  Global_sig2= 0.00000
#  Energy zero shift, vr, vi    0.00000E+00   0.00000E+00
#  Curved wave amplitude ratio filter   4.000%
#     file         sig2 tot  cw amp ratio   deg  nlegs   reff  inp sig2
#     0/   0 paths used
#  xsedge+ 50, used to normalize mu           2.5078E-04
#  -----------------------------------------------------------------------
#  omega    e    k    mu    mu0     chi     @#
    8983.632    -12.164  -1.000  3.88977E-02  4.87304E-02 -9.83268E-03
    8983.931    -11.865  -0.960  4.13211E-02  5.21132E-02 -1.07921E-02
    8984.218    -11.579  -0.920  4.39775E-02  5.58594E-02 -1.18819E-02
    8984.492    -11.304  -0.880  4.68959E-02  6.00214E-02 -1.31255E-02
    8984.754    -11.042  -0.840  5.01090E-02  6.46601E-02 -1.45511E-02
    8985.004    -10.792  -0.800  5.36535E-02  6.98462E-02 -1.61926E-02
    8985.242    -10.554  -0.760  5.75700E-02  7.56603E-02 -1.80904E-02
    8985.467    -10.329  -0.720  6.19021E-02  8.21938E-02 -2.02917E-02
    8985.681    -10.116  -0.680  6.66962E-02  8.95468E-02 -2.28507E-02
    8985.882     -9.914  -0.640  7.19984E-02  9.78250E-02 -2.58266E-02
    8986.071     -9.725  -0.600  7.78516E-02  1.07132E-01 -2.92801E-02
    8986.248     -9.549  -0.560  8.42889E-02  1.17555E-01 -3.32658E-02
    8986.412     -9.384  -0.520  9.13254E-02  1.29146E-01 -3.78202E-02
    8986.565     -9.232  -0.480  9.89465E-02  1.41891E-01 -4.29443E-02
    8986.705     -9.091  -0.440  1.07095E-01  1.55679E-01 -4.85841E-02
    8986.833     -8.963  -0.400  1.15659E-01  1.70273E-01 -5.46138E-02
    8986.949     -8.848  -0.360  1.24467E-01  1.85300E-01 -6.08329E-02
    8987.052     -8.744  -0.320  1.33295E-01  2.00279E-01 -6.69842E-02
    8987.144     -8.652  -0.280  1.41878E-01  2.14671E-01 -7.27930E-02
    8987.223     -8.573  -0.240  1.49944E-01  2.27960E-01 -7.80157E-02
    8987.290     -8.506  -0.200  1.57233E-01  2.39710E-01 -8.24769E-02
    8987.345     -8.451  -0.160  1.63518E-01  2.49601E-01 -8.60835E-02
    8987.388     -8.409  -0.120  1.68613E-01  2.57426E-01 -8.88131E-02
    8987.418     -8.378  -0.080  1.72378E-01  2.63067E-01 -9.06890E-02
    8987.442     -8.354   0.000  1.75518E-01  2.67603E-01 -9.20853E-02
    8987.497     -8.299   0.120  1.82546E-01  2.77835E-01 -9.52885E-02
    8987.540     -8.256   0.160  1.88088E-01  2.85794E-01 -9.77057E-02
    8987.595     -8.201   0.200  1.95381E-01  2.95974E-01 -1.00594E-01
    8987.662     -8.134   0.240  2.04557E-01  3.08252E-01 -1.03695E-01
    8987.741     -8.055   0.280  2.15730E-01  3.22380E-01 -1.06650E-01
    8987.833     -7.964   0.320  2.29076E-01  3.38044E-01 -1.08967E-01
    8987.936     -7.860   0.360  2.44742E-01  3.54806E-01 -1.10064E-01
    8988.052     -7.744   0.400  2.62898E-01  3.72240E-01 -1.09341E-01
    8988.180     -7.616   0.440  2.83622E-01  3.89897E-01 -1.06275E-01
    8988.320     -7.476   0.480  3.06902E-01  4.07484E-01 -1.00582E-01
    8988.473     -7.324   0.520  3.32403E-01  4.24781E-01 -9.23775E-02
    8988.637     -7.159   0.560  3.59366E-01  4.41696E-01 -8.23307E-02
    8988.814     -6.982   0.600  3.86582E-01  4.58224E-01 -7.16419E-02
    8989.003     -6.793   0.640  4.12476E-01  4.74392E-01 -6.19159E-02
    8989.204     -6.592   0.680  4.35246E-01  4.90276E-01 -5.50301E-02
    8989.418     -6.379   0.720  4.52787E-01  5.05923E-01 -5.31360E-02
    8989.643     -6.153   0.760  4.62966E-01  5.21457E-01 -5.84908E-02
    8989.881     -5.915   0.800  4.64356E-01  5.36896E-01 -7.25396E-02
    8990.131     -5.665   0.840  4.57525E-01  5.52306E-01 -9.47808E-02
    8990.393     -5.403   0.880  4.45082E-01  5.67720E-01 -1.22638E-01
    8990.667     -5.129   0.920  4.30850E-01  5.83184E-01 -1.52334E-01
    8990.954     -4.843   0.960  4.18952E-01  5.98691E-01 -1.79740E-01
    8991.252     -4.544   1.000  4.13013E-01  6.14265E-01 -2.01253E-01
    8991.563     -4.233   1.040  4.15156E-01  6.29904E-01 -2.14748E-01
    8991.886     -3.910   1.080  4.25300E-01  6.45577E-01 -2.20277E-01
    8992.222     -3.575   1.120  4.41181E-01  6.61289E-01 -2.20108E-01
    8992.569     -3.227   1.160  4.59516E-01  6.77000E-01 -2.17484E-01
    8992.929     -2.867   1.200  4.77985E-01  6.92706E-01 -2.14721E-01
    8993.301     -2.496   1.240  4.95924E-01  7.08359E-01 -2.12435E-01
    8993.685     -2.112   1.280  5.13827E-01  7.23911E-01 -2.10084E-01
    8994.081     -1.715   1.320  5.31628E-01  7.39370E-01 -2.07743E-01
    8994.489     -1.307   1.360  5.46147E-01  7.54684E-01 -2.08536E-01
    8994.910     -0.886   1.400  5.52644E-01  7.69796E-01 -2.17152E-01
    8995.343     -0.453   1.440  5.50289E-01  7.84693E-01 -2.34404E-01
    8995.788     -0.008   1.480  5.45446E-01  7.99321E-01 -2.53875E-01
    8996.245      0.449   1.520  5.47528E-01  8.13664E-01 -2.66136E-01
    8996.714      0.918   1.560  5.58754E-01  8.27688E-01 -2.68934E-01
    8997.196      1.400   1.600  5.74430E-01  8.41338E-01 -2.66908E-01
    8997.690      1.894   1.640  5.92350E-01  8.54601E-01 -2.62251E-01
    8998.196      2.400   1.680  6.13466E-01  8.67464E-01 -2.53997E-01
    8998.714      2.918   1.720  6.39024E-01  8.79856E-01 -2.40832E-01
    8999.244      3.448   1.760  6.68533E-01  8.91806E-01 -2.23272E-01
    8999.787      3.991   1.800  7.00304E-01  9.03244E-01 -2.02940E-01
    9000.342      4.545   1.840  7.37090E-01  9.14183E-01 -1.77093E-01
    9000.908      5.112   1.880  7.83980E-01  9.24617E-01 -1.40637E-01
    9001.488      5.691   1.920  8.40570E-01  9.34500E-01 -9.39300E-02
    9002.079      6.283   1.960  8.98053E-01  9.43869E-01 -4.58155E-02
    9002.682      6.886   2.000  9.41693E-01  9.52681E-01 -1.09881E-02
    9003.298      7.502   2.040  9.61644E-01  9.60936E-01  7.08275E-04
    9003.926      8.130   2.080  9.63215E-01  9.68653E-01 -5.43747E-03
    9004.566      8.770   2.120  9.59375E-01  9.75815E-01 -1.64394E-02
    9005.218      9.422   2.160  9.60192E-01  9.82444E-01 -2.22518E-02
    9005.883     10.087   2.200  9.73324E-01  9.88544E-01 -1.52199E-02
    9006.559     10.763   2.240  1.00291E+00  9.94121E-01  8.78990E-03
    9007.248     11.452   2.280  1.04543E+00  9.99200E-01  4.62272E-02
    9007.949     12.153   2.320  1.09089E+00  1.00375E+00  8.71407E-02
    9008.663     12.866   2.360  1.12539E+00  1.00783E+00  1.17563E-01
    9009.388     13.592   2.400  1.14126E+00  1.01146E+00  1.29806E-01
    9010.126     14.329   2.440  1.14714E+00  1.01462E+00  1.32519E-01
    9010.875     15.079   2.480  1.15698E+00  1.01734E+00  1.39644E-01
    9011.637     15.841   2.520  1.17337E+00  1.01965E+00  1.53723E-01
    9012.412     16.615   2.560  1.18542E+00  1.02156E+00  1.63861E-01
    9013.198     17.402   2.600  1.18377E+00  1.02310E+00  1.60670E-01
    9013.997     18.200   2.640  1.17413E+00  1.02428E+00  1.49841E-01
    9014.807     19.011   2.680  1.16582E+00  1.02512E+00  1.40706E-01
    9015.630     19.834   2.720  1.16327E+00  1.02565E+00  1.37617E-01
    9016.465     20.669   2.760  1.16220E+00  1.02590E+00  1.36305E-01
    9017.313     21.516   2.800  1.15679E+00  1.02585E+00  1.30945E-01
    9018.172     22.376   2.840  1.14820E+00  1.02557E+00  1.22635E-01
    9019.044     23.248   2.880  1.13745E+00  1.02503E+00  1.12423E-01
    9019.928     24.132   2.920  1.12528E+00  1.02430E+00  1.00974E-01
    9020.824     25.028   2.960  1.11286E+00  1.02335E+00  8.95102E-02
    9021.732     25.936   3.000  1.10129E+00  1.02223E+00  7.90580E-02
    9022.653     26.857   3.040  1.09112E+00  1.02095E+00  7.01717E-02
    9023.585     27.789   3.080  1.08233E+00  1.01951E+00  6.28128E-02
    9024.530     28.734   3.120  1.07448E+00  1.01795E+00  5.65260E-02
    9025.487     29.691   3.160  1.06702E+00  1.01627E+00  5.07427E-02
    9026.457     30.660   3.200  1.05958E+00  1.01450E+00  4.50796E-02
    9027.438     31.642   3.240  1.05200E+00  1.01265E+00  3.93522E-02
    9028.432     32.636   3.280  1.04406E+00  1.01073E+00  3.33307E-02
    9029.438     33.641   3.320  1.03552E+00  1.00875E+00  2.67663E-02
    9030.456     34.659   3.360  1.02618E+00  1.00673E+00  1.94474E-02
    9031.486     35.690   3.400  1.01592E+00  1.00467E+00  1.12431E-02
    9032.528     36.732   3.440  1.00477E+00  1.00258E+00  2.18482E-03
    9033.583     37.787   3.480  9.93018E-01  1.00049E+00 -7.46892E-03
    9034.650     38.853   3.520  9.81096E-01  9.98410E-01 -1.73135E-02
    9035.729     39.932   3.560  9.69389E-01  9.96314E-01 -2.69259E-02
    9036.820     41.024   3.600  9.58344E-01  9.94245E-01 -3.59013E-02
    9037.923     42.127   3.640  9.48398E-01  9.92185E-01 -4.37873E-02
    9039.039     43.243   3.680  9.39850E-01  9.90162E-01 -5.03115E-02
    9040.167     44.370   3.720  9.32852E-01  9.88197E-01 -5.53452E-02
    9041.306     45.510   3.760  9.27353E-01  9.86253E-01 -5.88999E-02
    9042.459     46.662   3.800  9.23258E-01  9.84371E-01 -6.11131E-02
    9043.623     47.827   3.840  9.20235E-01  9.82536E-01 -6.23008E-02
    9044.799     49.003   3.880  9.18001E-01  9.80748E-01 -6.27470E-02
    9045.988     50.192   3.920  9.16378E-01  9.79031E-01 -6.26531E-02
    9047.189     51.393   3.960  9.15178E-01  9.77390E-01 -6.22121E-02
    9048.402     52.606   4.000  9.14231E-01  9.75825E-01 -6.15933E-02
    9049.627     53.831   4.040  9.13435E-01  9.74335E-01 -6.09004E-02
    9050.865     55.069   4.080  9.12770E-01  9.72902E-01 -6.01319E-02
    9052.115     56.318   4.120  9.12359E-01  9.71569E-01 -5.92094E-02
    9053.377     57.580   4.160  9.12370E-01  9.70315E-01 -5.79453E-02
    9054.651     58.854   4.200  9.13006E-01  9.69121E-01 -5.61149E-02
    9055.937     60.141   4.240  9.14472E-01  9.68028E-01 -5.35560E-02
    9057.235     61.439   4.280  9.16838E-01  9.67018E-01 -5.01805E-02
    9058.546     62.750   4.320  9.20188E-01  9.66112E-01 -4.59238E-02
    9059.869     64.072   4.360  9.24476E-01  9.65267E-01 -4.07906E-02
    9061.204     65.407   4.400  9.29635E-01  9.64523E-01 -3.48879E-02
    9062.551     66.755   4.440  9.35447E-01  9.63840E-01 -2.83927E-02
    9063.910     68.114   4.480  9.41702E-01  9.63260E-01 -2.15579E-02
    9065.282     69.486   4.520  9.48101E-01  9.62763E-01 -1.46625E-02
    9066.666     70.869   4.560  9.54412E-01  9.62369E-01 -7.95642E-03
    9068.062     72.265   4.600  9.60327E-01  9.62034E-01 -1.70747E-03
    9069.470     73.674   4.640  9.65543E-01  9.61778E-01  3.76437E-03
    9070.890     75.094   4.680  9.69727E-01  9.61622E-01  8.10498E-03
    9072.323     76.527   4.720  9.72531E-01  9.61523E-01  1.10077E-02
    9073.768     77.971   4.760  9.73857E-01  9.61501E-01  1.23562E-02
    9075.224     79.428   4.800  9.73946E-01  9.61556E-01  1.23904E-02
    9076.694     80.897   4.840  9.73346E-01  9.61686E-01  1.16602E-02
    9078.175     82.379   4.880  9.72773E-01  9.61891E-01  1.08821E-02
    9079.668     83.872   4.920  9.72865E-01  9.62147E-01  1.07177E-02
    9081.174     85.378   4.960  9.74056E-01  9.62472E-01  1.15834E-02
    9082.692     86.896   5.000  9.76432E-01  9.62847E-01  1.35853E-02
    9084.222     88.426   5.040  9.79851E-01  9.63289E-01  1.65624E-02
    9085.764     89.968   5.080  9.83966E-01  9.63776E-01  2.01900E-02
    9087.319     91.523   5.120  9.88399E-01  9.64306E-01  2.40934E-02
    9088.886     93.089   5.160  9.92782E-01  9.64877E-01  2.79047E-02
    9090.464     94.668   5.200  9.96801E-01  9.65511E-01  3.12905E-02
    9092.055     96.259   5.240  1.00010E+00  9.66161E-01  3.39372E-02
    9093.659     97.862   5.280  1.00244E+00  9.66847E-01  3.55909E-02
    9095.274     99.478   5.320  1.00367E+00  9.67570E-01  3.60999E-02
    9096.902    101.106   5.360  1.00381E+00  9.68326E-01  3.54823E-02
    9098.542    102.745   5.400  1.00314E+00  9.69092E-01  3.40467E-02
    9100.194    104.397   5.440  1.00203E+00  9.69886E-01  3.21480E-02
    9101.858    106.062   5.480  1.00081E+00  9.70685E-01  3.01256E-02
    9103.534    107.738   5.520  9.99686E-01  9.71487E-01  2.81990E-02
    9105.223    109.427   5.560  9.98713E-01  9.72288E-01  2.64252E-02
    9106.924    111.127   5.600  9.97825E-01  9.73088E-01  2.47369E-02
    9108.637    112.840   5.640  9.96945E-01  9.73888E-01  2.30578E-02
    9110.362    114.565   5.680  9.96085E-01  9.74683E-01  2.14017E-02
    9112.099    116.303   5.720  9.95268E-01  9.75472E-01  1.97959E-02
    9113.849    118.052   5.760  9.94590E-01  9.76231E-01  1.83587E-02
    9115.610    119.814   5.800  9.94148E-01  9.76980E-01  1.71674E-02
    9117.384    121.588   5.840  9.93871E-01  9.77695E-01  1.61766E-02
    9119.170    123.374   5.880  9.93613E-01  9.78393E-01  1.52201E-02
    9120.969    125.172   5.920  9.93118E-01  9.79048E-01  1.40700E-02
    9122.779    126.983   5.960  9.92155E-01  9.79649E-01  1.25064E-02
    9124.602    128.806   6.000  9.90481E-01  9.80195E-01  1.02860E-02
