# # comment:                                                     FEFF 9.9.1  
# # Source:
# # Structure
# # Reduced
# # space
# # abc:
# # angles:
# # sites:
# # POT  SCF 100  7.0000   0, screened core-hole, AFOLP (folp(0)= 1.150)
# # Abs   Z=29 Rmt= 1.186 Rnm= 1.353 K  shell
# # Pot 1 Z=29 Rmt= 1.186 Rnm= 1.353
# # Pot 2 Z= 6 Rmt= 0.639 Rnm= 0.915
# # Pot 3 Z= 8 Rmt= 0.843 Rnm= 1.023
# # Gam_ch=1.729E+00 H-L exch Vi= 0.000E+00 Vr= 0.000E+00
# # Mu=-5.680E+00eV kf=2.638E+00 Vint=-1.723E+01eV Rs_int= 1.375
# FMS rfms= 9.0000
# # PATH  Rmax=-1.000,  Keep_limit= 0.00, Heap_limit 0.00  Pwcrit= 2.50%
#  S02=0.950  Temp=   0.00  Debye_temp=   0.00  Global_sig2= 0.00000
#  Energy zero shift, vr, vi    0.00000E+00   0.00000E+00
#  Curved wave amplitude ratio filter   4.000%
#     file         sig2 tot  cw amp ratio   deg  nlegs   reff  inp sig2
#     0/   0 paths used
#  xsedge+ 50, used to normalize mu           2.5008E-04
#  -----------------------------------------------------------------------
#  omega    e    k    mu    mu0     chi     @#
    8983.216     -9.490  -1.000  5.42205E-02  5.33400E-02  8.80493E-04
    8983.515     -9.191  -0.960  5.84929E-02  5.72592E-02  1.23374E-03
    8983.801     -8.904  -0.920  6.32893E-02  6.16212E-02  1.66802E-03
    8984.076     -8.630  -0.880  6.86917E-02  6.64922E-02  2.19944E-03
    8984.338     -8.368  -0.840  7.47961E-02  7.19492E-02  2.84690E-03
    8984.588     -8.118  -0.800  8.17140E-02  7.80817E-02  3.63231E-03
    8984.825     -7.880  -0.760  8.95731E-02  8.49923E-02  4.58077E-03
    8985.051     -7.655  -0.720  9.85180E-02  9.27975E-02  5.72048E-03
    8985.264     -7.441  -0.680  1.08708E-01  1.01626E-01  7.08236E-03
    8985.466     -7.240  -0.640  1.20311E-01  1.11612E-01  8.69905E-03
    8985.655     -7.051  -0.600  1.33494E-01  1.22890E-01  1.06030E-02
    8985.831     -6.874  -0.560  1.48399E-01  1.35575E-01  1.28237E-02
    8985.996     -6.710  -0.520  1.65118E-01  1.49735E-01  1.53828E-02
    8986.148     -6.557  -0.480  1.83645E-01  1.65356E-01  1.82884E-02
    8986.289     -6.417  -0.440  2.03829E-01  1.82301E-01  2.15281E-02
    8986.417     -6.289  -0.400  2.25334E-01  2.00272E-01  2.50618E-02
    8986.532     -6.173  -0.360  2.47618E-01  2.18800E-01  2.88178E-02
    8986.636     -6.070  -0.320  2.69970E-01  2.37277E-01  3.26930E-02
    8986.727     -5.978  -0.280  2.91585E-01  2.55027E-01  3.65587E-02
    8986.807     -5.899  -0.240  3.11674E-01  2.71402E-01  4.02719E-02
    8986.874     -5.832  -0.200  3.29552E-01  2.85863E-01  4.36887E-02
    8986.929     -5.777  -0.160  3.44694E-01  2.98018E-01  4.66765E-02
    8986.971     -5.734  -0.120  3.56741E-01  3.07617E-01  4.91233E-02
    8987.002     -5.704  -0.080  3.65468E-01  3.14528E-01  5.09401E-02
    8987.026     -5.680   0.000  3.72512E-01  3.20075E-01  5.24369E-02
    8987.081     -5.625   0.120  3.88188E-01  3.32573E-01  5.56146E-02
    8987.124     -5.582   0.160  4.00541E-01  3.42276E-01  5.82644E-02
    8987.179     -5.527   0.200  4.16470E-01  3.54647E-01  6.18232E-02
    8987.246     -5.460   0.240  4.35878E-01  3.69500E-01  6.63781E-02
    8987.325     -5.381   0.280  4.58487E-01  3.86492E-01  7.19950E-02
    8987.416     -5.289   0.320  4.83866E-01  4.05180E-01  7.86854E-02
    8987.520     -5.186   0.360  5.11346E-01  4.24992E-01  8.63544E-02
    8987.636     -5.070   0.400  5.39991E-01  4.45279E-01  9.47122E-02
    8987.764     -4.942   0.440  5.68703E-01  4.65509E-01  1.03195E-01
    8987.904     -4.802   0.480  5.96159E-01  4.85255E-01  1.10904E-01
    8988.056     -4.649   0.520  6.20876E-01  5.04208E-01  1.16668E-01
    8988.221     -4.485   0.560  6.41474E-01  5.22284E-01  1.19190E-01
    8988.398     -4.308   0.600  6.56731E-01  5.39435E-01  1.17296E-01
    8988.587     -4.119   0.640  6.65804E-01  5.55725E-01  1.10079E-01
    8988.788     -3.918   0.680  6.68070E-01  5.71239E-01  9.68316E-02
    8989.001     -3.705   0.720  6.63117E-01  5.86116E-01  7.70010E-02
    8989.227     -3.479   0.760  6.50875E-01  6.00436E-01  5.04387E-02
    8989.465     -3.241   0.800  6.32273E-01  6.14311E-01  1.79622E-02
    8989.714     -2.991   0.840  6.09621E-01  6.27815E-01 -1.81941E-02
    8989.977     -2.729   0.880  5.86463E-01  6.41034E-01 -5.45705E-02
    8990.251     -2.455   0.920  5.66570E-01  6.54036E-01 -8.74652E-02
    8990.537     -2.168   0.960  5.52603E-01  6.66818E-01 -1.14215E-01
    8990.836     -1.870   1.000  5.45457E-01  6.79467E-01 -1.34010E-01
    8991.147     -1.559   1.040  5.43960E-01  6.91959E-01 -1.47998E-01
    8991.470     -1.236   1.080  5.45700E-01  7.04361E-01 -1.58661E-01
    8991.805     -0.900   1.120  5.48040E-01  7.16616E-01 -1.68576E-01
    8992.153     -0.553   1.160  5.49727E-01  7.28781E-01 -1.79054E-01
    8992.513     -0.193   1.200  5.51455E-01  7.40826E-01 -1.89371E-01
    8992.884      0.179   1.240  5.55498E-01  7.52758E-01 -1.97260E-01
    8993.268      0.563   1.280  5.63554E-01  7.64541E-01 -2.00987E-01
    8993.665      0.959   1.320  5.74845E-01  7.76178E-01 -2.01334E-01
    8994.073      1.367   1.360  5.86580E-01  7.87668E-01 -2.01088E-01
    8994.494      1.788   1.400  5.96807E-01  7.98989E-01 -2.02182E-01
    8994.927      2.221   1.440  6.06184E-01  8.10098E-01 -2.03914E-01
    8995.372      2.666   1.480  6.16846E-01  8.21009E-01 -2.04163E-01
    8995.829      3.123   1.520  6.30748E-01  8.31701E-01 -2.00954E-01
    8996.298      3.592   1.560  6.49026E-01  8.42146E-01 -1.93121E-01
    8996.780      4.074   1.600  6.71647E-01  8.52339E-01 -1.80692E-01
    8997.273      4.568   1.640  6.96694E-01  8.62235E-01 -1.65541E-01
    8997.779      5.074   1.680  7.20446E-01  8.71869E-01 -1.51424E-01
    8998.298      5.592   1.720  7.40311E-01  8.81196E-01 -1.40885E-01
    8998.828      6.122   1.760  7.57945E-01  8.90190E-01 -1.32245E-01
    8999.370      6.665   1.800  7.77956E-01  8.98869E-01 -1.20913E-01
    8999.925      7.219   1.840  8.03647E-01  9.07208E-01 -1.03561E-01
    9000.492      7.786   1.880  8.35081E-01  9.15204E-01 -8.01237E-02
    9001.071      8.366   1.920  8.71759E-01  9.22857E-01 -5.10977E-02
    9001.663      8.957   1.960  9.13873E-01  9.30162E-01 -1.62883E-02
    9002.266      9.560   2.000  9.58490E-01  9.37078E-01  2.14119E-02
    9002.882     10.176   2.040  9.98375E-01  9.43646E-01  5.47286E-02
    9003.510     10.804   2.080  1.02835E+00  9.49867E-01  7.84861E-02
    9004.150     11.444   2.120  1.05000E+00  9.55699E-01  9.42975E-02
    9004.802     12.096   2.160  1.06885E+00  9.61186E-01  1.07661E-01
    9005.466     12.761   2.200  1.09106E+00  9.66310E-01  1.24746E-01
    9006.143     13.437   2.240  1.12140E+00  9.71091E-01  1.50304E-01
    9006.832     14.126   2.280  1.15847E+00  9.75513E-01  1.82957E-01
    9007.533     14.827   2.320  1.19488E+00  9.79581E-01  2.15300E-01
    9008.246     15.540   2.360  1.22532E+00  9.83338E-01  2.41978E-01
    9008.972     16.266   2.400  1.24844E+00  9.86749E-01  2.61693E-01
    9009.709     17.004   2.440  1.26174E+00  9.89859E-01  2.71882E-01
    9010.459     17.753   2.480  1.26113E+00  9.92674E-01  2.68460E-01
    9011.221     18.515   2.520  1.24497E+00  9.95178E-01  2.49797E-01
    9011.995     19.290   2.560  1.21802E+00  9.97395E-01  2.20623E-01
    9012.782     20.076   2.600  1.19005E+00  9.99334E-01  1.90716E-01
    9013.580     20.874   2.640  1.16860E+00  1.00102E+00  1.67581E-01
    9014.391     21.685   2.680  1.15444E+00  1.00246E+00  1.51982E-01
    9015.214     22.508   2.720  1.14141E+00  1.00368E+00  1.37725E-01
    9016.049     23.343   2.760  1.12232E+00  1.00465E+00  1.17665E-01
    9016.896     24.191   2.800  1.09479E+00  1.00543E+00  8.93568E-02
    9017.756     25.050   2.840  1.06117E+00  1.00601E+00  5.51578E-02
    9018.628     25.922   2.880  1.02742E+00  1.00640E+00  2.10183E-02
    9019.512     26.806   2.920  1.00048E+00  1.00662E+00 -6.14140E-03
    9020.408     27.702   2.960  9.85298E-01  1.00667E+00 -2.13749E-02
    9021.316     28.610   3.000  9.80275E-01  1.00659E+00 -2.63202E-02
    9022.236     29.531   3.040  9.74791E-01  1.00637E+00 -3.15761E-02
    9023.169     30.463   3.080  9.62436E-01  1.00601E+00 -4.35793E-02
    9024.114     31.408   3.120  9.46065E-01  1.00556E+00 -5.95002E-02
    9025.071     32.365   3.160  9.29743E-01  1.00498E+00 -7.52392E-02
    9026.040     33.335   3.200  9.15882E-01  1.00433E+00 -8.84500E-02
    9027.022     34.316   3.240  9.05293E-01  1.00360E+00 -9.83069E-02
    9028.015     35.310   3.280  8.98055E-01  1.00279E+00 -1.04736E-01
    9029.021     36.316   3.320  8.93807E-01  1.00191E+00 -1.08104E-01
    9030.039     37.334   3.360  8.92183E-01  1.00100E+00 -1.08821E-01
    9031.070     38.364   3.400  8.92805E-01  1.00003E+00 -1.07228E-01
    9032.112     39.406   3.440  8.95163E-01  9.99022E-01 -1.03859E-01
    9033.167     40.461   3.480  8.98892E-01  9.97995E-01 -9.91034E-02
    9034.233     41.528   3.520  9.03702E-01  9.96938E-01 -9.32360E-02
    9035.312     42.607   3.560  9.09358E-01  9.95874E-01 -8.65162E-02
    9036.404     43.698   3.600  9.15678E-01  9.94807E-01 -7.91287E-02
    9037.507     44.801   3.640  9.22604E-01  9.93737E-01 -7.11331E-02
    9038.622     45.917   3.680  9.30083E-01  9.92668E-01 -6.25852E-02
    9039.750     47.044   3.720  9.37957E-01  9.91603E-01 -5.36459E-02
    9040.890     48.184   3.760  9.46108E-01  9.90565E-01 -4.44570E-02
    9042.042     49.337   3.800  9.54366E-01  9.89536E-01 -3.51702E-02
    9043.207     50.501   3.840  9.62654E-01  9.88541E-01 -2.58860E-02
    9044.383     51.677   3.880  9.70996E-01  9.87579E-01 -1.65838E-02
    9045.572     52.866   3.920  9.79448E-01  9.86653E-01 -7.20457E-03
    9046.773     54.067   3.960  9.87929E-01  9.85742E-01  2.18733E-03
    9047.986     55.280   4.000  9.96250E-01  9.84890E-01  1.13608E-02
    9049.211     56.505   4.040  1.00397E+00  9.84055E-01  1.99133E-02
    9050.449     57.743   4.080  1.01056E+00  9.83281E-01  2.72750E-02
    9051.698     58.993   4.120  1.01544E+00  9.82529E-01  3.29077E-02
    9052.960     60.254   4.160  1.01828E+00  9.81838E-01  3.64372E-02
    9054.234     61.529   4.200  1.01890E+00  9.81192E-01  3.77039E-02
    9055.520     62.815   4.240  1.01737E+00  9.80610E-01  3.67633E-02
    9056.819     64.113   4.280  1.01398E+00  9.80049E-01  3.39351E-02
    9058.130     65.424   4.320  1.00922E+00  9.79554E-01  2.96631E-02
    9059.452     66.747   4.360  1.00358E+00  9.79104E-01  2.44762E-02
    9060.787     68.082   4.400  9.97652E-01  9.78717E-01  1.89352E-02
    9062.135     69.429   4.440  9.91872E-01  9.78352E-01  1.35198E-02
    9063.494     70.788   4.480  9.86653E-01  9.78052E-01  8.60106E-03
    9064.866     72.160   4.520  9.82255E-01  9.77796E-01  4.45834E-03
    9066.249     73.544   4.560  9.78868E-01  9.77583E-01  1.28566E-03
    9067.645     74.940   4.600  9.76625E-01  9.77432E-01 -8.07376E-04
    9069.054     76.348   4.640  9.75505E-01  9.77304E-01 -1.79814E-03
    9070.474     77.768   4.680  9.75488E-01  9.77237E-01 -1.74949E-03
    9071.906     79.201   4.720  9.76451E-01  9.77211E-01 -7.60739E-04
    9073.351     80.645   4.760  9.78297E-01  9.77223E-01  1.07343E-03
    9074.808     82.102   4.800  9.80906E-01  9.77253E-01  3.65300E-03
    9076.277     83.572   4.840  9.84167E-01  9.77340E-01  6.82729E-03
    9077.759     85.053   4.880  9.87785E-01  9.77444E-01  1.03414E-02
    9079.252     86.546   4.920  9.91476E-01  9.77605E-01  1.38707E-02
    9080.758     88.052   4.960  9.94891E-01  9.77779E-01  1.71115E-02
    9082.276     89.570   5.000  9.97863E-01  9.77965E-01  1.98984E-02
    9083.806     91.100   5.040  1.00046E+00  9.78204E-01  2.22593E-02
    9085.348     92.642   5.080  1.00279E+00  9.78453E-01  2.43397E-02
    9086.903     94.197   5.120  1.00499E+00  9.78710E-01  2.62839E-02
    9088.469     95.764   5.160  1.00706E+00  9.78994E-01  2.80667E-02
    9090.048     97.342   5.200  1.00873E+00  9.79283E-01  2.94486E-02
    9091.639     98.933   5.240  1.00964E+00  9.79575E-01  3.00648E-02
    9093.242    100.537   5.280  1.00946E+00  9.79871E-01  2.95872E-02
    9094.858    102.152   5.320  1.00806E+00  9.80191E-01  2.78701E-02
    9096.485    103.780   5.360  1.00548E+00  9.80513E-01  2.49681E-02
    9098.125    105.420   5.400  1.00195E+00  9.80812E-01  2.11336E-02
    9099.777    107.072   5.440  9.97855E-01  9.81131E-01  1.67236E-02
    9101.441    108.736   5.480  9.93535E-01  9.81449E-01  1.20863E-02
    9103.118    110.412   5.520  9.89186E-01  9.81739E-01  7.44680E-03
    9104.806    112.101   5.560  9.84898E-01  9.82021E-01  2.87740E-03
    9106.507    113.801   5.600  9.80609E-01  9.82273E-01 -1.66404E-03
    9108.220    115.514   5.640  9.76301E-01  9.82520E-01 -6.21900E-03
    9109.945    117.240   5.680  9.72050E-01  9.82759E-01 -1.07085E-02
    9111.683    118.977   5.720  9.68055E-01  9.82966E-01 -1.49105E-02
    9113.432    120.727   5.760  9.64629E-01  9.83164E-01 -1.85350E-02
    9115.194    122.488   5.800  9.61981E-01  9.83328E-01 -2.13478E-02
    9116.968    124.262   5.840  9.60213E-01  9.83457E-01 -2.32447E-02
    9118.754    126.048   5.880  9.59286E-01  9.83576E-01 -2.42893E-02
    9120.552    127.847   5.920  9.58962E-01  9.83658E-01 -2.46954E-02
    9122.363    129.657   5.960  9.58956E-01  9.83698E-01 -2.47426E-02
    9124.186    131.480   6.000  9.59019E-01  9.83683E-01 -2.46639E-02
