# # comment:                                                     FEFF 9.9.1  
# # Source:
# # Structure
# # Reduced
# # space
# # abc:
# # angles:
# # sites:
# # POT  SCF 100  7.0000   0, screened core-hole, AFOLP (folp(0)= 1.150)
# # Abs   Z=29 Rmt= 1.242 Rnm= 1.340 K  shell
# # Pot 1 Z=29 Rmt= 1.238 Rnm= 1.326
# # Pot 2 Z= 8 Rmt= 0.980 Rnm= 1.112
# # Pot 3 Z= 9 Rmt= 1.032 Rnm= 1.119
# # Gam_ch=1.729E+00 H-L exch Vi= 0.000E+00 Vr= 0.000E+00
# # Mu=-6.900E+00eV kf=2.056E+00 Vint=-1.300E+01eV Rs_int= 1.764
# FMS rfms= 9.0000
# # PATH  Rmax=-1.000,  Keep_limit= 0.00, Heap_limit 0.00  Pwcrit= 2.50%
#  S02=0.950  Temp=   0.00  Debye_temp=   0.00  Global_sig2= 0.00000
#  Energy zero shift, vr, vi    0.00000E+00   0.00000E+00
#  Curved wave amplitude ratio filter   4.000%
#     file         sig2 tot  cw amp ratio   deg  nlegs   reff  inp sig2
#     0/   0 paths used
#  xsedge+ 50, used to normalize mu           2.4251E-04
#  -----------------------------------------------------------------------
#  omega    e    k    mu    mu0     chi     @#
    8983.300    -10.710  -1.000  3.22495E-02  5.43083E-02 -2.20587E-02
    8983.599    -10.412  -0.960  3.35784E-02  5.81764E-02 -2.45980E-02
    8983.886    -10.125  -0.920  3.49780E-02  6.24618E-02 -2.74837E-02
    8984.160     -9.851  -0.880  3.64553E-02  6.72241E-02 -3.07687E-02
    8984.422     -9.589  -0.840  3.80183E-02  7.25325E-02 -3.45142E-02
    8984.672     -9.339  -0.800  3.96765E-02  7.84670E-02 -3.87906E-02
    8984.910     -9.101  -0.760  4.14411E-02  8.51189E-02 -4.36779E-02
    8985.135     -8.875  -0.720  4.33251E-02  9.25911E-02 -4.92659E-02
    8985.349     -8.662  -0.680  4.53434E-02  1.00996E-01 -5.56529E-02
    8985.550     -8.461  -0.640  4.75115E-02  1.10453E-01 -6.29418E-02
    8985.739     -8.272  -0.600  4.98449E-02  1.21078E-01 -7.12331E-02
    8985.916     -8.095  -0.560  5.23557E-02  1.32968E-01 -8.06126E-02
    8986.080     -7.931  -0.520  5.50486E-02  1.46181E-01 -9.11327E-02
    8986.233     -7.778  -0.480  5.79150E-02  1.60701E-01 -1.02786E-01
    8986.373     -7.638  -0.440  6.09255E-02  1.76401E-01 -1.15475E-01
    8986.501     -7.510  -0.400  6.40248E-02  1.93013E-01 -1.28988E-01
    8986.617     -7.394  -0.360  6.71309E-02  2.10119E-01 -1.42988E-01
    8986.720     -7.291  -0.320  7.01423E-02  2.27173E-01 -1.57031E-01
    8986.812     -7.199  -0.280  7.29534E-02  2.43570E-01 -1.70616E-01
    8986.891     -7.120  -0.240  7.54717E-02  2.58721E-01 -1.83250E-01
    8986.958     -7.053  -0.200  7.76315E-02  2.72133E-01 -1.94501E-01
    8987.013     -6.998  -0.160  7.93979E-02  2.83434E-01 -2.04036E-01
    8987.056     -6.955  -0.120  8.07602E-02  2.92384E-01 -2.11624E-01
    8987.086     -6.925  -0.080  8.17220E-02  2.98843E-01 -2.17121E-01
    8987.110     -6.900   0.000  8.24802E-02  3.04041E-01 -2.21560E-01
    8987.165     -6.846   0.120  8.42229E-02  3.15771E-01 -2.31548E-01
    8987.208     -6.803   0.160  8.55067E-02  3.24931E-01 -2.39424E-01
    8987.263     -6.748   0.200  8.70430E-02  3.36633E-01 -2.49590E-01
    8987.330     -6.681   0.240  8.88035E-02  3.50797E-01 -2.61993E-01
    8987.409     -6.602   0.280  9.06702E-02  3.67168E-01 -2.76498E-01
    8987.501     -6.510   0.320  9.25140E-02  3.85376E-01 -2.92862E-01
    8987.604     -6.407   0.360  9.42864E-02  4.04976E-01 -3.10689E-01
    8987.720     -6.291   0.400  9.59653E-02  4.25489E-01 -3.29523E-01
    8987.848     -6.163   0.440  9.76325E-02  4.46455E-01 -3.48822E-01
    8987.988     -6.023   0.480  9.94647E-02  4.67510E-01 -3.68046E-01
    8988.141     -5.870   0.520  1.01710E-01  4.88434E-01 -3.86725E-01
    8988.305     -5.706   0.560  1.04596E-01  5.09100E-01 -4.04505E-01
    8988.482     -5.529   0.600  1.08348E-01  5.29448E-01 -4.21100E-01
    8988.671     -5.340   0.640  1.13196E-01  5.49517E-01 -4.36321E-01
    8988.872     -5.139   0.680  1.19244E-01  5.69332E-01 -4.50089E-01
    8989.086     -4.925   0.720  1.26675E-01  5.88949E-01 -4.62274E-01
    8989.311     -4.700   0.760  1.35646E-01  6.08397E-01 -4.72751E-01
    8989.549     -4.462   0.800  1.46323E-01  6.27721E-01 -4.81397E-01
    8989.799     -4.212   0.840  1.58843E-01  6.46927E-01 -4.88083E-01
    8990.061     -3.950   0.880  1.73353E-01  6.65990E-01 -4.92637E-01
    8990.335     -3.676   0.920  1.90356E-01  6.84935E-01 -4.94578E-01
    8990.622     -3.389   0.960  2.10742E-01  7.03712E-01 -4.92970E-01
    8990.920     -3.090   1.000  2.35608E-01  7.22284E-01 -4.86676E-01
    8991.231     -2.780   1.040  2.65835E-01  7.40607E-01 -4.74772E-01
    8991.554     -2.456   1.080  3.01295E-01  7.58630E-01 -4.57335E-01
    8991.890     -2.121   1.120  3.40381E-01  7.76298E-01 -4.35917E-01
    8992.237     -1.774   1.160  3.81270E-01  7.93553E-01 -4.12282E-01
    8992.597     -1.414   1.200  4.24294E-01  8.10356E-01 -3.86062E-01
    8992.969     -1.042   1.240  4.70681E-01  8.26648E-01 -3.55967E-01
    8993.353     -0.658   1.280  5.18009E-01  8.42368E-01 -3.24359E-01
    8993.749     -0.262   1.320  5.59805E-01  8.57458E-01 -2.97653E-01
    8994.157      0.147   1.360  5.91598E-01  8.71923E-01 -2.80325E-01
    8994.578      0.567   1.400  6.16656E-01  8.85687E-01 -2.69031E-01
    8995.011      1.000   1.440  6.45906E-01  8.98718E-01 -2.52812E-01
    8995.456      1.445   1.480  6.91623E-01  9.11029E-01 -2.19405E-01
    8995.913      1.902   1.520  7.59712E-01  9.22573E-01 -1.62861E-01
    8996.382      2.372   1.560  8.41017E-01  9.33368E-01 -9.23507E-02
    8996.864      2.853   1.600  9.22656E-01  9.43373E-01 -2.07173E-02
    8997.358      3.347   1.640  1.01556E+00  9.52634E-01  6.29294E-02
    8997.864      3.853   1.680  1.14152E+00  9.61112E-01  1.80411E-01
    8998.382      4.371   1.720  1.30275E+00  9.68880E-01  3.33867E-01
    8998.912      4.901   1.760  1.46619E+00  9.75905E-01  4.90283E-01
    8999.455      5.444   1.800  1.58205E+00  9.82221E-01  5.99831E-01
    9000.010      5.999   1.840  1.62490E+00  9.87864E-01  6.37036E-01
    9000.576      6.566   1.880  1.60245E+00  9.92866E-01  6.09587E-01
    9001.156      7.145   1.920  1.55093E+00  9.97267E-01  5.53662E-01
    9001.747      7.736   1.960  1.50841E+00  1.00106E+00  5.07348E-01
    9002.350      8.340   2.000  1.48625E+00  1.00433E+00  4.81920E-01
    9002.966      8.955   2.040  1.46991E+00  1.00708E+00  4.62830E-01
    9003.594      9.583   2.080  1.43562E+00  1.00935E+00  4.26272E-01
    9004.234     10.223   2.120  1.37583E+00  1.01117E+00  3.64659E-01
    9004.886     10.875   2.160  1.31755E+00  1.01260E+00  3.04943E-01
    9005.551     11.540   2.200  1.28260E+00  1.01366E+00  2.68941E-01
    9006.227     12.217   2.240  1.24827E+00  1.01438E+00  2.33883E-01
    9006.916     12.905   2.280  1.18238E+00  1.01481E+00  1.67574E-01
    9007.617     13.606   2.320  1.09588E+00  1.01495E+00  8.09271E-02
    9008.331     14.320   2.360  1.02422E+00  1.01487E+00  9.35607E-03
    9009.056     15.045   2.400  9.83764E-01  1.01458E+00 -3.08127E-02
    9009.794     15.783   2.440  9.66352E-01  1.01409E+00 -4.77355E-02
    9010.543     16.533   2.480  9.66610E-01  1.01346E+00 -4.68455E-02
    9011.305     17.295   2.520  9.76860E-01  1.01267E+00 -3.58128E-02
    9012.080     18.069   2.560  9.86831E-01  1.01179E+00 -2.49634E-02
    9012.866     18.855   2.600  9.90881E-01  1.01083E+00 -1.99484E-02
    9013.665     19.654   2.640  9.88410E-01  1.00981E+00 -2.14001E-02
    9014.475     20.464   2.680  9.80808E-01  1.00872E+00 -2.79141E-02
    9015.298     21.287   2.720  9.70187E-01  1.00762E+00 -3.74308E-02
    9016.133     22.123   2.760  9.58100E-01  1.00648E+00 -4.83827E-02
    9016.981     22.970   2.800  9.45348E-01  1.00534E+00 -5.99960E-02
    9017.840     23.829   2.840  9.32605E-01  1.00423E+00 -7.16272E-02
    9018.712     24.701   2.880  9.20147E-01  1.00313E+00 -8.29839E-02
    9019.596     25.585   2.920  9.07943E-01  1.00207E+00 -9.41233E-02
    9020.492     26.481   2.960  8.96107E-01  1.00106E+00 -1.04957E-01
    9021.400     27.389   3.000  8.84840E-01  1.00009E+00 -1.15248E-01
    9022.321     28.310   3.040  8.74199E-01  9.99180E-01 -1.24981E-01
    9023.254     29.243   3.080  8.64332E-01  9.98347E-01 -1.34015E-01
    9024.198     30.188   3.120  8.55707E-01  9.97590E-01 -1.41883E-01
    9025.155     31.145   3.160  8.49092E-01  9.96891E-01 -1.47799E-01
    9026.125     32.114   3.200  8.45330E-01  9.96292E-01 -1.50962E-01
    9027.106     33.095   3.240  8.45070E-01  9.95755E-01 -1.50685E-01
    9028.100     34.089   3.280  8.48569E-01  9.95321E-01 -1.46752E-01
    9029.106     35.095   3.320  8.55731E-01  9.94951E-01 -1.39220E-01
    9030.124     36.113   3.360  8.65788E-01  9.94687E-01 -1.28899E-01
    9031.154     37.143   3.400  8.77823E-01  9.94529E-01 -1.16706E-01
    9032.196     38.185   3.440  8.90681E-01  9.94436E-01 -1.03755E-01
    9033.251     39.240   3.480  9.03418E-01  9.94449E-01 -9.10304E-02
    9034.318     40.307   3.520  9.15356E-01  9.94523E-01 -7.91669E-02
    9035.397     41.386   3.560  9.26568E-01  9.94703E-01 -6.81348E-02
    9036.488     42.477   3.600  9.37557E-01  9.94966E-01 -5.74092E-02
    9037.591     43.580   3.640  9.49012E-01  9.95310E-01 -4.62981E-02
    9038.707     44.696   3.680  9.61404E-01  9.95734E-01 -3.43303E-02
    9039.835     45.824   3.720  9.74908E-01  9.96236E-01 -2.13288E-02
    9040.975     46.964   3.760  9.89416E-01  9.96795E-01 -7.37896E-03
    9042.127     48.116   3.800  1.00469E+00  9.97449E-01  7.23825E-03
    9043.291     49.280   3.840  1.02024E+00  9.98133E-01  2.21082E-02
    9044.468     50.457   3.880  1.03577E+00  9.98908E-01  3.68607E-02
    9045.656     51.645   3.920  1.05082E+00  9.99710E-01  5.11148E-02
    9046.857     52.846   3.960  1.06493E+00  1.00058E+00  6.43514E-02
    9048.070     54.059   4.000  1.07742E+00  1.00149E+00  7.59315E-02
    9049.296     55.285   4.040  1.08781E+00  1.00244E+00  8.53685E-02
    9050.533     56.522   4.080  1.09599E+00  1.00342E+00  9.25674E-02
    9051.783     57.772   4.120  1.10222E+00  1.00442E+00  9.77930E-02
    9053.045     59.034   4.160  1.10677E+00  1.00546E+00  1.01311E-01
    9054.319     60.308   4.200  1.10960E+00  1.00652E+00  1.03079E-01
    9055.605     61.594   4.240  1.11040E+00  1.00759E+00  1.02811E-01
    9056.903     62.892   4.280  1.10882E+00  1.00865E+00  1.00161E-01
    9058.214     64.203   4.320  1.10471E+00  1.00972E+00  9.49869E-02
    9059.537     65.526   4.360  1.09830E+00  1.01079E+00  8.75061E-02
    9060.872     66.861   4.400  1.09026E+00  1.01185E+00  7.84080E-02
    9062.219     68.208   4.440  1.08161E+00  1.01288E+00  6.87342E-02
    9063.578     69.568   4.480  1.07355E+00  1.01390E+00  5.96502E-02
    9064.950     70.939   4.520  1.06707E+00  1.01491E+00  5.21612E-02
    9066.334     72.323   4.560  1.06270E+00  1.01586E+00  4.68394E-02
    9067.730     73.719   4.600  1.06036E+00  1.01679E+00  4.35738E-02
    9069.138     75.127   4.640  1.05935E+00  1.01768E+00  4.16667E-02
    9070.558     76.547   4.680  1.05863E+00  1.01853E+00  4.01036E-02
    9071.991     77.980   4.720  1.05703E+00  1.01931E+00  3.77194E-02
    9073.436     79.425   4.760  1.05337E+00  1.02007E+00  3.32990E-02
    9074.893     80.882   4.800  1.04669E+00  1.02075E+00  2.59392E-02
    9076.362     82.351   4.840  1.03700E+00  1.02139E+00  1.56073E-02
    9077.843     83.832   4.880  1.02530E+00  1.02196E+00  3.33991E-03
    9079.336     85.326   4.920  1.01316E+00  1.02247E+00 -9.30414E-03
    9080.842     86.831   4.960  1.00188E+00  1.02291E+00 -2.10278E-02
    9082.360     88.349   5.000  9.92089E-01  1.02329E+00 -3.12030E-02
    9083.890     89.879   5.040  9.83755E-01  1.02360E+00 -3.98477E-02
    9085.432     91.422   5.080  9.76539E-01  1.02386E+00 -4.73217E-02
    9086.987     92.976   5.120  9.70071E-01  1.02404E+00 -5.39700E-02
    9088.554     94.543   5.160  9.64290E-01  1.02414E+00 -5.98531E-02
    9090.132     96.122   5.200  9.59500E-01  1.02417E+00 -6.46703E-02
    9091.723     97.713   5.240  9.56248E-01  1.02417E+00 -6.79184E-02
    9093.327     99.316   5.280  9.54996E-01  1.02406E+00 -6.90683E-02
    9094.942    100.931   5.320  9.56014E-01  1.02391E+00 -6.78958E-02
    9096.570    102.559   5.360  9.59065E-01  1.02368E+00 -6.46169E-02
    9098.210    104.199   5.400  9.63673E-01  1.02340E+00 -5.97317E-02
    9099.862    105.851   5.440  9.69304E-01  1.02308E+00 -5.37733E-02
    9101.526    107.515   5.480  9.75402E-01  1.02268E+00 -4.72780E-02
    9103.202    109.191   5.520  9.81342E-01  1.02223E+00 -4.08922E-02
    9104.891    110.880   5.560  9.86442E-01  1.02172E+00 -3.52773E-02
    9106.592    112.581   5.600  9.90227E-01  1.02118E+00 -3.09575E-02
    9108.305    114.294   5.640  9.92415E-01  1.02059E+00 -2.81711E-02
    9110.030    116.019   5.680  9.93177E-01  1.01997E+00 -2.67922E-02
    9111.767    117.756   5.720  9.92881E-01  1.01929E+00 -2.64096E-02
    9113.517    119.506   5.760  9.92132E-01  1.01860E+00 -2.64674E-02
    9115.278    121.267   5.800  9.91551E-01  1.01788E+00 -2.63244E-02
    9117.052    123.041   5.840  9.91902E-01  1.01714E+00 -2.52406E-02
    9118.838    124.828   5.880  9.93909E-01  1.01636E+00 -2.24501E-02
    9120.637    126.626   5.920  9.98152E-01  1.01560E+00 -1.74496E-02
    9122.447    128.436   5.960  1.00441E+00  1.01483E+00 -1.04157E-02
    9124.270    130.259   6.000  1.01188E+00  1.01402E+00 -2.13717E-03
