# # comment:                                                     FEFF 9.9.1  
# # Source:
# # Structure
# # Reduced
# # space
# # abc:
# # angles:
# # sites:
# # POT  SCF 100  7.0000   0, screened core-hole, AFOLP (folp(0)= 1.150)
# # Abs   Z=29 Rmt= 1.198 Rnm= 1.320 K  shell
# # Pot 1 Z=20 Rmt= 1.610 Rnm= 1.685
# # Pot 2 Z=29 Rmt= 1.183 Rnm= 1.277
# # Pot 3 Z= 8 Rmt= 1.003 Rnm= 1.092
# # Gam_ch=1.729E+00 H-L exch Vi= 0.000E+00 Vr= 0.000E+00
# # Mu=-9.342E+00eV kf=2.094E+00 Vint=-1.834E+01eV Rs_int= 1.732
# FMS rfms= 9.0000
# # PATH  Rmax=-1.000,  Keep_limit= 0.00, Heap_limit 0.00  Pwcrit= 2.50%
#  S02=0.950  Temp=   0.00  Debye_temp=   0.00  Global_sig2= 0.00000
#  Energy zero shift, vr, vi    0.00000E+00   0.00000E+00
#  Curved wave amplitude ratio filter   4.000%
#     file         sig2 tot  cw amp ratio   deg  nlegs   reff  inp sig2
#     0/   0 paths used
#  xsedge+ 50, used to normalize mu           2.4749E-04
#  -----------------------------------------------------------------------
#  omega    e    k    mu    mu0     chi     @#
    8984.881    -13.152  -1.000  4.40658E-02  5.32497E-02 -9.18385E-03
    8985.180    -12.853  -0.960  4.68803E-02  5.71018E-02 -1.02215E-02
    8985.467    -12.567  -0.920  4.99734E-02  6.13812E-02 -1.14078E-02
    8985.741    -12.292  -0.880  5.33822E-02  6.61507E-02 -1.27685E-02
    8986.003    -12.030  -0.840  5.71492E-02  7.14833E-02 -1.43342E-02
    8986.253    -11.780  -0.800  6.13225E-02  7.74639E-02 -1.61414E-02
    8986.491    -11.542  -0.760  6.59564E-02  8.41897E-02 -1.82333E-02
    8986.716    -11.317  -0.720  7.11103E-02  9.17704E-02 -2.06601E-02
    8986.930    -11.104  -0.680  7.68483E-02  1.00327E-01 -2.34787E-02
    8987.131    -10.902  -0.640  8.32361E-02  1.09987E-01 -2.67512E-02
    8987.320    -10.713  -0.600  9.03364E-02  1.20877E-01 -3.05402E-02
    8987.497    -10.537  -0.560  9.82010E-02  1.33102E-01 -3.49007E-02
    8987.661    -10.372  -0.520  1.06860E-01  1.46726E-01 -3.98665E-02
    8987.814    -10.220  -0.480  1.16305E-01  1.61736E-01 -4.54311E-02
    8987.954    -10.079  -0.440  1.26473E-01  1.77999E-01 -5.15260E-02
    8988.082     -9.951  -0.400  1.37230E-01  1.95232E-01 -5.80028E-02
    8988.198     -9.836  -0.360  1.48360E-01  2.12992E-01 -6.46313E-02
    8988.301     -9.732  -0.320  1.59577E-01  2.30700E-01 -7.11228E-02
    8988.393     -9.641  -0.280  1.70537E-01  2.47714E-01 -7.71774E-02
    8988.472     -9.561  -0.240  1.80880E-01  2.63420E-01 -8.25398E-02
    8988.539     -9.494  -0.200  1.90257E-01  2.77299E-01 -8.70419E-02
    8988.594     -9.439  -0.160  1.98360E-01  2.88974E-01 -9.06136E-02
    8988.637     -9.397  -0.120  2.04939E-01  2.98203E-01 -9.32645E-02
    8988.667     -9.366  -0.080  2.09801E-01  3.04852E-01 -9.50510E-02
    8988.691     -9.342   0.000  2.13845E-01  3.10194E-01 -9.63486E-02
    8988.746     -9.287   0.120  2.22807E-01  3.22240E-01 -9.94336E-02
    8988.789     -9.244   0.160  2.29940E-01  3.31598E-01 -1.01658E-01
    8988.844     -9.189   0.200  2.39336E-01  3.43559E-01 -1.04224E-01
    8988.911     -9.122   0.240  2.51107E-01  3.57941E-01 -1.06834E-01
    8988.990     -9.043   0.280  2.65358E-01  3.74459E-01 -1.09101E-01
    8989.082     -8.952   0.320  2.82071E-01  3.92674E-01 -1.10603E-01
    8989.185     -8.848   0.360  3.01118E-01  4.12105E-01 -1.10987E-01
    8989.301     -8.732   0.400  3.22019E-01  4.32138E-01 -1.10120E-01
    8989.429     -8.604   0.440  3.44059E-01  4.52310E-01 -1.08251E-01
    8989.569     -8.464   0.480  3.66120E-01  4.72188E-01 -1.06069E-01
    8989.722     -8.312   0.520  3.86854E-01  4.91524E-01 -1.04670E-01
    8989.886     -8.147   0.560  4.04777E-01  5.10182E-01 -1.05405E-01
    8990.063     -7.970   0.600  4.18517E-01  5.28175E-01 -1.09658E-01
    8990.252     -7.781   0.640  4.27214E-01  5.45495E-01 -1.18281E-01
    8990.453     -7.580   0.680  4.31178E-01  5.62276E-01 -1.31098E-01
    8990.667     -7.367   0.720  4.31461E-01  5.78562E-01 -1.47102E-01
    8990.892     -7.141   0.760  4.29207E-01  5.94457E-01 -1.65250E-01
    8991.130     -6.903   0.800  4.25519E-01  6.10055E-01 -1.84536E-01
    8991.380     -6.654   0.840  4.22091E-01  6.25398E-01 -2.03306E-01
    8991.642     -6.391   0.880  4.21020E-01  6.40533E-01 -2.19513E-01
    8991.916     -6.117   0.920  4.23977E-01  6.55538E-01 -2.31560E-01
    8992.203     -5.831   0.960  4.31882E-01  6.70373E-01 -2.38491E-01
    8992.501     -5.532   1.000  4.45345E-01  6.85114E-01 -2.39770E-01
    8992.812     -5.221   1.040  4.64429E-01  6.99703E-01 -2.35274E-01
    8993.135     -4.898   1.080  4.88502E-01  7.14177E-01 -2.25675E-01
    8993.471     -4.563   1.120  5.15784E-01  7.28527E-01 -2.12743E-01
    8993.818     -4.215   1.160  5.44461E-01  7.42718E-01 -1.98257E-01
    8994.178     -3.855   1.200  5.74536E-01  7.56731E-01 -1.82195E-01
    8994.550     -3.484   1.240  6.06620E-01  7.70544E-01 -1.63924E-01
    8994.934     -3.100   1.280  6.41462E-01  7.84154E-01 -1.42692E-01
    8995.330     -2.703   1.320  6.79901E-01  7.97494E-01 -1.17594E-01
    8995.738     -2.295   1.360  7.19402E-01  8.10576E-01 -9.11749E-02
    8996.159     -1.874   1.400  7.55782E-01  8.23374E-01 -6.75914E-02
    8996.592     -1.441   1.440  7.86324E-01  8.35836E-01 -4.95121E-02
    8997.037     -0.996   1.480  8.10255E-01  8.47934E-01 -3.76793E-02
    8997.494     -0.539   1.520  8.26771E-01  8.59683E-01 -3.29121E-02
    8997.963     -0.070   1.560  8.35370E-01  8.71011E-01 -3.56414E-02
    8998.445      0.412   1.600  8.38092E-01  8.81952E-01 -4.38602E-02
    8998.939      0.906   1.640  8.40742E-01  8.92458E-01 -5.17160E-02
    8999.445      1.411   1.680  8.51628E-01  9.02506E-01 -5.08781E-02
    8999.963      1.930   1.720  8.75038E-01  9.12111E-01 -3.70734E-02
    9000.493      2.460   1.760  9.07873E-01  9.21250E-01 -1.33764E-02
    9001.036      3.003   1.800  9.45454E-01  9.29897E-01  1.55563E-02
    9001.591      3.557   1.840  9.87575E-01  9.38094E-01  4.94801E-02
    9002.157      4.124   1.880  1.03197E+00  9.45801E-01  8.61730E-02
    9002.737      4.703   1.920  1.07010E+00  9.53019E-01  1.17077E-01
    9003.328      5.295   1.960  1.09323E+00  9.59770E-01  1.33464E-01
    9003.931      5.898   2.000  1.10130E+00  9.66056E-01  1.35248E-01
    9004.547      6.514   2.040  1.10851E+00  9.71884E-01  1.36630E-01
    9005.175      7.142   2.080  1.12840E+00  9.77236E-01  1.51166E-01
    9005.815      7.782   2.120  1.16617E+00  9.82159E-01  1.84012E-01
    9006.467      8.434   2.160  1.21670E+00  9.86660E-01  2.30043E-01
    9007.132      9.098   2.200  1.26531E+00  9.90725E-01  2.74589E-01
    9007.808      9.775   2.240  1.29705E+00  9.94403E-01  3.02651E-01
    9008.497     10.464   2.280  1.30396E+00  9.97680E-01  3.06275E-01
    9009.198     11.165   2.320  1.28766E+00  1.00059E+00  2.87074E-01
    9009.912     11.878   2.360  1.25578E+00  1.00313E+00  2.52650E-01
    9010.637     12.604   2.400  1.21581E+00  1.00534E+00  2.10470E-01
    9011.375     13.341   2.440  1.17243E+00  1.00724E+00  1.65183E-01
    9012.124     14.091   2.480  1.12856E+00  1.00884E+00  1.19727E-01
    9012.886     14.853   2.520  1.08813E+00  1.01014E+00  7.79857E-02
    9013.661     15.627   2.560  1.05662E+00  1.01119E+00  4.54250E-02
    9014.447     16.414   2.600  1.03198E+00  1.01199E+00  1.99892E-02
    9015.246     17.212   2.640  1.01245E+00  1.01256E+00 -1.11241E-04
    9016.056     18.023   2.680  9.96824E-01  1.01291E+00 -1.60881E-02
    9016.879     18.846   2.720  9.84772E-01  1.01307E+00 -2.82931E-02
    9017.714     19.681   2.760  9.75675E-01  1.01305E+00 -3.73727E-02
    9018.562     20.528   2.800  9.68428E-01  1.01287E+00 -4.44391E-02
    9019.421     21.388   2.840  9.62200E-01  1.01255E+00 -5.03511E-02
    9020.293     22.260   2.880  9.56125E-01  1.01209E+00 -5.59631E-02
    9021.177     23.144   2.920  9.49666E-01  1.01152E+00 -6.18592E-02
    9022.073     24.040   2.960  9.42787E-01  1.01085E+00 -6.80598E-02
    9022.981     24.948   3.000  9.35822E-01  1.01008E+00 -7.42594E-02
    9023.902     25.869   3.040  9.29230E-01  1.00923E+00 -8.00049E-02
    9024.834     26.801   3.080  9.23632E-01  1.00831E+00 -8.46817E-02
    9025.779     27.746   3.120  9.19803E-01  1.00734E+00 -8.75411E-02
    9026.736     28.703   3.160  9.18251E-01  1.00635E+00 -8.81020E-02
    9027.706     29.672   3.200  9.18969E-01  1.00530E+00 -8.63343E-02
    9028.687     30.654   3.240  9.21629E-01  1.00424E+00 -8.26103E-02
    9029.681     31.648   3.280  9.25407E-01  1.00315E+00 -7.77400E-02
    9030.687     32.653   3.320  9.29593E-01  1.00207E+00 -7.24767E-02
    9031.705     33.671   3.360  9.33618E-01  1.00097E+00 -6.73535E-02
    9032.735     34.702   3.400  9.37252E-01  9.99897E-01 -6.26450E-02
    9033.777     35.744   3.440  9.40307E-01  9.98829E-01 -5.85219E-02
    9034.832     36.799   3.480  9.42783E-01  9.97790E-01 -5.50075E-02
    9035.899     37.865   3.520  9.44724E-01  9.96762E-01 -5.20377E-02
    9036.978     38.944   3.560  9.46199E-01  9.95768E-01 -4.95687E-02
    9038.069     40.036   3.600  9.47350E-01  9.94810E-01 -4.74594E-02
    9039.172     41.139   3.640  9.48556E-01  9.93890E-01 -4.53340E-02
    9040.288     42.254   3.680  9.50275E-01  9.93011E-01 -4.27362E-02
    9041.416     43.382   3.720  9.52866E-01  9.92173E-01 -3.93080E-02
    9042.555     44.522   3.760  9.56541E-01  9.91379E-01 -3.48380E-02
    9043.708     45.674   3.800  9.61361E-01  9.90650E-01 -2.92891E-02
    9044.872     46.839   3.840  9.67169E-01  9.89966E-01 -2.27965E-02
    9046.048     48.015   3.880  9.73825E-01  9.89328E-01 -1.55030E-02
    9047.237     49.204   3.920  9.81398E-01  9.88757E-01 -7.35877E-03
    9048.438     50.405   3.960  9.89935E-01  9.88231E-01  1.70411E-03
    9049.651     51.618   4.000  9.99310E-01  9.87753E-01  1.15571E-02
    9050.876     52.843   4.040  1.00912E+00  9.87342E-01  2.17744E-02
    9052.114     54.081   4.080  1.01873E+00  9.86979E-01  3.17495E-02
    9053.364     55.330   4.120  1.02760E+00  9.86683E-01  4.09130E-02
    9054.626     56.592   4.160  1.03524E+00  9.86435E-01  4.88062E-02
    9055.900     57.866   4.200  1.04109E+00  9.86232E-01  5.48587E-02
    9057.186     59.153   4.240  1.04449E+00  9.86096E-01  5.83939E-02
    9058.484     60.451   4.280  1.04501E+00  9.86004E-01  5.90041E-02
    9059.795     61.762   4.320  1.04284E+00  9.85955E-01  5.68811E-02
    9061.118     63.084   4.360  1.03874E+00  9.85948E-01  5.27871E-02
    9062.453     64.419   4.400  1.03377E+00  9.86005E-01  4.77662E-02
    9063.800     65.767   4.440  1.02880E+00  9.86083E-01  4.27119E-02
    9065.159     67.126   4.480  1.02428E+00  9.86221E-01  3.80633E-02
    9066.531     68.498   4.520  1.02019E+00  9.86376E-01  3.38155E-02
    9067.915     69.881   4.560  1.01638E+00  9.86591E-01  2.97884E-02
    9069.311     71.277   4.600  1.01265E+00  9.86820E-01  2.58301E-02
    9070.719     72.686   4.640  1.00897E+00  9.87084E-01  2.18860E-02
    9072.139     74.106   4.680  1.00526E+00  9.87360E-01  1.78973E-02
    9073.572     75.539   4.720  1.00143E+00  9.87690E-01  1.37438E-02
    9075.017     76.983   4.760  9.97379E-01  9.88030E-01  9.34886E-03
    9076.473     78.440   4.800  9.93262E-01  9.88379E-01  4.88364E-03
    9077.943     79.909   4.840  9.89579E-01  9.88755E-01  8.23952E-04
    9079.424     81.391   4.880  9.86885E-01  9.89136E-01 -2.25071E-03
    9080.917     82.884   4.920  9.85567E-01  9.89520E-01 -3.95234E-03
    9082.423     84.390   4.960  9.85662E-01  9.89907E-01 -4.24537E-03
    9083.941     85.908   5.000  9.86947E-01  9.90319E-01 -3.37210E-03
    9085.471     87.438   5.040  9.89033E-01  9.90730E-01 -1.69721E-03
    9087.013     88.980   5.080  9.91442E-01  9.91118E-01  3.24548E-04
    9088.568     90.535   5.120  9.93660E-01  9.91524E-01  2.13644E-03
    9090.135     92.101   5.160  9.95021E-01  9.91904E-01  3.11647E-03
    9091.713     93.680   5.200  9.95110E-01  9.92278E-01  2.83200E-03
    9093.304     95.271   5.240  9.93897E-01  9.92625E-01  1.27279E-03
    9094.908     96.874   5.280  9.91908E-01  9.92986E-01 -1.07785E-03
    9096.523     98.490   5.320  9.89791E-01  9.93317E-01 -3.52578E-03
    9098.151    100.117   5.360  9.88118E-01  9.93615E-01 -5.49715E-03
    9099.791    101.757   5.400  9.87186E-01  9.93902E-01 -6.71593E-03
    9101.443    103.409   5.440  9.86925E-01  9.94155E-01 -7.22963E-03
    9103.107    105.074   5.480  9.86947E-01  9.94373E-01 -7.42544E-03
    9104.783    106.750   5.520  9.86653E-01  9.94579E-01 -7.92518E-03
    9106.472    108.438   5.560  9.85564E-01  9.94750E-01 -9.18631E-03
    9108.173    110.139   5.600  9.83789E-01  9.94909E-01 -1.11202E-02
    9109.886    111.852   5.640  9.81727E-01  9.95007E-01 -1.32803E-02
    9111.611    113.577   5.680  9.79784E-01  9.95089E-01 -1.53056E-02
    9113.348    115.315   5.720  9.78064E-01  9.95136E-01 -1.70715E-02
    9115.098    117.064   5.760  9.76636E-01  9.95144E-01 -1.85082E-02
    9116.859    118.826   5.800  9.75556E-01  9.95113E-01 -1.95565E-02
    9118.633    120.600   5.840  9.74746E-01  9.95043E-01 -2.02973E-02
    9120.419    122.386   5.880  9.73981E-01  9.94937E-01 -2.09560E-02
    9122.218    124.184   5.920  9.73184E-01  9.94818E-01 -2.16344E-02
    9124.028    125.995   5.960  9.72558E-01  9.94637E-01 -2.20793E-02
    9125.851    127.818   6.000  9.72686E-01  9.94421E-01 -2.17353E-02
