# # comment:                                                     FEFF 9.9.1  
# # Source:
# # Structure
# # Reduced
# # space
# # abc:
# # angles:119.808936
# # sites:
# # POT  SCF 100  7.0000   0, screened core-hole, AFOLP (folp(0)= 1.150)
# # Abs   Z=29 Rmt= 1.340 Rnm= 1.408 K  shell
# # Pot 1 Z= 3 Rmt= 1.265 Rnm= 1.322
# # Pot 2 Z=29 Rmt= 1.340 Rnm= 1.408
# # Pot 3 Z= 6 Rmt= 0.714 Rnm= 0.925
# # Pot 4 Z= 8 Rmt= 0.871 Rnm= 1.010
# # Gam_ch=1.729E+00 H-L exch Vi= 0.000E+00 Vr= 0.000E+00
# # Mu=-6.918E+00eV kf=2.536E+00 Vint=-1.834E+01eV Rs_int= 1.430
# FMS rfms= 9.0000
# # PATH  Rmax=-1.000,  Keep_limit= 0.00, Heap_limit 0.00  Pwcrit= 2.50%
#  S02=0.950  Temp=   0.00  Debye_temp=   0.00  Global_sig2= 0.00000
#  Energy zero shift, vr, vi    0.00000E+00   0.00000E+00
#  Curved wave amplitude ratio filter   4.000%
#     file         sig2 tot  cw amp ratio   deg  nlegs   reff  inp sig2
#     0/   0 paths used
#  xsedge+ 50, used to normalize mu           2.4740E-04
#  -----------------------------------------------------------------------
#  omega    e    k    mu    mu0     chi     @#
    8983.690    -10.728  -1.000  5.51066E-02  5.28457E-02  2.26090E-03
    8983.988    -10.429  -0.960  5.92364E-02  5.66545E-02  2.58189E-03
    8984.275    -10.143  -0.920  6.38554E-02  6.08867E-02  2.96870E-03
    8984.549     -9.868  -0.880  6.90421E-02  6.56050E-02  3.43708E-03
    8984.811     -9.606  -0.840  7.48890E-02  7.08824E-02  4.00654E-03
    8985.061     -9.356  -0.800  8.15046E-02  7.68035E-02  4.70104E-03
    8985.299     -9.119  -0.760  8.90151E-02  8.34655E-02  5.54968E-03
    8985.525     -8.893  -0.720  9.75653E-02  9.09781E-02  6.58717E-03
    8985.738     -8.680  -0.680  1.07316E-01  9.94626E-02  7.85385E-03
    8985.939     -8.478  -0.640  1.18442E-01  1.09047E-01  9.39470E-03
    8986.128     -8.289  -0.600  1.31114E-01  1.19857E-01  1.12568E-02
    8986.305     -8.113  -0.560  1.45484E-01  1.32000E-01  1.34839E-02
    8986.469     -7.948  -0.520  1.61648E-01  1.45540E-01  1.61083E-02
    8986.622     -7.796  -0.480  1.79602E-01  1.60463E-01  1.91381E-02
    8986.762     -7.655  -0.440  1.99182E-01  1.76639E-01  2.25429E-02
    8986.890     -7.527  -0.400  2.20026E-01  1.93784E-01  2.62420E-02
    8987.006     -7.412  -0.360  2.41554E-01  2.11454E-01  3.01006E-02
    8987.109     -7.308  -0.320  2.63013E-01  2.29071E-01  3.39424E-02
    8987.201     -7.217  -0.280  2.83573E-01  2.45995E-01  3.75777E-02
    8987.280     -7.137  -0.240  3.02449E-01  2.61611E-01  4.08379E-02
    8987.347     -7.070  -0.200  3.19009E-01  2.75405E-01  4.36047E-02
    8987.402     -7.015  -0.160  3.32825E-01  2.87002E-01  4.58232E-02
    8987.445     -6.973  -0.120  3.43660E-01  2.96165E-01  4.74945E-02
    8987.475     -6.942  -0.080  3.51414E-01  3.02764E-01  4.86500E-02
    8987.500     -6.918   0.000  3.57598E-01  3.08064E-01  4.95341E-02
    8987.554     -6.863   0.120  3.70824E-01  3.20007E-01  5.08177E-02
    8987.597     -6.820   0.160  3.81138E-01  3.29296E-01  5.18423E-02
    8987.652     -6.765   0.200  3.94127E-01  3.41129E-01  5.29982E-02
    8987.719     -6.698   0.240  4.09458E-01  3.55334E-01  5.41240E-02
    8987.798     -6.619   0.280  4.26634E-01  3.71653E-01  5.49802E-02
    8987.890     -6.528   0.320  4.44869E-01  3.89596E-01  5.52726E-02
    8987.993     -6.424   0.360  4.63324E-01  4.08667E-01  5.46570E-02
    8988.109     -6.308   0.400  4.81038E-01  4.28281E-01  5.27570E-02
    8988.237     -6.180   0.440  4.97063E-01  4.47920E-01  4.91430E-02
    8988.377     -6.040   0.480  5.10529E-01  4.67190E-01  4.33395E-02
    8988.530     -5.888   0.520  5.20736E-01  4.85818E-01  3.49180E-02
    8988.694     -5.723   0.560  5.27474E-01  5.03690E-01  2.37837E-02
    8988.871     -5.546   0.600  5.31381E-01  5.20819E-01  1.05615E-02
    8989.060     -5.357   0.640  5.33968E-01  5.37229E-01 -3.26067E-03
    8989.261     -5.156   0.680  5.37343E-01  5.53017E-01 -1.56745E-02
    8989.475     -4.943   0.720  5.43252E-01  5.68299E-01 -2.50466E-02
    8989.700     -4.717   0.760  5.51634E-01  5.83166E-01 -3.15311E-02
    8989.938     -4.479   0.800  5.59739E-01  5.97743E-01 -3.80037E-02
    8990.188     -4.230   0.840  5.63808E-01  6.12061E-01 -4.82535E-02
    8990.450     -3.967   0.880  5.63402E-01  6.26239E-01 -6.28369E-02
    8990.724     -3.693   0.920  5.62112E-01  6.40301E-01 -7.81887E-02
    8991.011     -3.407   0.960  5.63648E-01  6.54301E-01 -9.06530E-02
    8991.310     -3.108   1.000  5.69528E-01  6.68259E-01 -9.87309E-02
    8991.620     -2.797   1.040  5.81015E-01  6.82189E-01 -1.01174E-01
    8991.944     -2.474   1.080  6.00185E-01  6.96114E-01 -9.59289E-02
    8992.279     -2.139   1.120  6.28173E-01  7.10013E-01 -8.18401E-02
    8992.626     -1.791   1.160  6.63216E-01  7.23919E-01 -6.07026E-02
    8992.986     -1.431   1.200  7.00965E-01  7.37777E-01 -3.68121E-02
    8993.358     -1.060   1.240  7.40347E-01  7.51632E-01 -1.12852E-02
    8993.742     -0.676   1.280  7.83573E-01  7.65403E-01  1.81703E-02
    8994.138     -0.279   1.320  8.27356E-01  7.79126E-01  4.82301E-02
    8994.547      0.129   1.360  8.64423E-01  7.92714E-01  7.17095E-02
    8994.967      0.550   1.400  8.91942E-01  8.06201E-01  8.57408E-02
    8995.400      0.983   1.440  9.13104E-01  8.19537E-01  9.35670E-02
    8995.845      1.428   1.480  9.37090E-01  8.32671E-01  1.04419E-01
    8996.302      1.885   1.520  9.72851E-01  8.45613E-01  1.27239E-01
    8996.772      2.354   1.560  1.01604E+00  8.58309E-01  1.57731E-01
    8997.253      2.836   1.600  1.04999E+00  8.70727E-01  1.79263E-01
    8997.747      3.329   1.640  1.06340E+00  8.82835E-01  1.80564E-01
    8998.253      3.835   1.680  1.05759E+00  8.94620E-01  1.62973E-01
    8998.771      4.354   1.720  1.04233E+00  9.06051E-01  1.36280E-01
    8999.301      4.884   1.760  1.03416E+00  9.17115E-01  1.17041E-01
    8999.844      5.426   1.800  1.03688E+00  9.27761E-01  1.09118E-01
    9000.399      5.981   1.840  1.03452E+00  9.37960E-01  9.65604E-02
    9000.966      6.548   1.880  1.02020E+00  9.47721E-01  7.24770E-02
    9001.545      7.127   1.920  1.00396E+00  9.57017E-01  4.69405E-02
    9002.136      7.719   1.960  9.99106E-01  9.65822E-01  3.32839E-02
    9002.740      8.322   2.000  1.00610E+00  9.74148E-01  3.19510E-02
    9003.355      8.938   2.040  1.01698E+00  9.81951E-01  3.50313E-02
    9003.983      9.566   2.080  1.02749E+00  9.89249E-01  3.82429E-02
    9004.623     10.206   2.120  1.03933E+00  9.96019E-01  4.33131E-02
    9005.275     10.858   2.160  1.05678E+00  1.00228E+00  5.44973E-02
    9005.940     11.522   2.200  1.08262E+00  1.00801E+00  7.46049E-02
    9006.617     12.199   2.240  1.11684E+00  1.01322E+00  1.03620E-01
    9007.305     12.888   2.280  1.15667E+00  1.01793E+00  1.38742E-01
    9008.006     13.589   2.320  1.19350E+00  1.02213E+00  1.71367E-01
    9008.720     14.302   2.360  1.21515E+00  1.02585E+00  1.89298E-01
    9009.445     15.028   2.400  1.21420E+00  1.02908E+00  1.85122E-01
    9010.183     15.765   2.440  1.19205E+00  1.03182E+00  1.60230E-01
    9010.933     16.515   2.480  1.15525E+00  1.03414E+00  1.21108E-01
    9011.695     17.277   2.520  1.11015E+00  1.03602E+00  7.41337E-02
    9012.469     18.051   2.560  1.06479E+00  1.03748E+00  2.73048E-02
    9013.255     18.838   2.600  1.02735E+00  1.03854E+00 -1.11962E-02
    9014.054     19.636   2.640  9.99697E-01  1.03923E+00 -3.95376E-02
    9014.864     20.447   2.680  9.77136E-01  1.03959E+00 -6.24500E-02
    9015.687     21.270   2.720  9.56053E-01  1.03961E+00 -8.35565E-02
    9016.523     22.105   2.760  9.37102E-01  1.03932E+00 -1.02215E-01
    9017.370     22.952   2.800  9.21162E-01  1.03874E+00 -1.17575E-01
    9018.229     23.812   2.840  9.08671E-01  1.03790E+00 -1.29232E-01
    9019.101     24.684   2.880  8.99592E-01  1.03683E+00 -1.37233E-01
    9019.985     25.568   2.920  8.95005E-01  1.03552E+00 -1.40513E-01
    9020.881     26.464   2.960  8.95296E-01  1.03405E+00 -1.38757E-01
    9021.789     27.372   3.000  8.99395E-01  1.03238E+00 -1.32984E-01
    9022.710     28.292   3.040  9.06849E-01  1.03059E+00 -1.23739E-01
    9023.643     29.225   3.080  9.16517E-01  1.02865E+00 -1.12132E-01
    9024.588     30.170   3.120  9.27579E-01  1.02660E+00 -9.90164E-02
    9025.545     31.127   3.160  9.39598E-01  1.02448E+00 -8.48772E-02
    9026.514     32.096   3.200  9.52116E-01  1.02228E+00 -7.01616E-02
    9027.495     33.078   3.240  9.64885E-01  1.02001E+00 -5.51276E-02
    9028.489     34.071   3.280  9.78020E-01  1.01773E+00 -3.97070E-02
    9029.495     35.077   3.320  9.91505E-01  1.01541E+00 -2.39039E-02
    9030.513     36.095   3.360  1.00507E+00  1.01309E+00 -8.01485E-03
    9031.543     37.126   3.400  1.01805E+00  1.01077E+00  7.28835E-03
    9032.585     38.168   3.440  1.02939E+00  1.00848E+00  2.09081E-02
    9033.640     39.223   3.480  1.03809E+00  1.00623E+00  3.18645E-02
    9034.707     40.289   3.520  1.04371E+00  1.00401E+00  3.96989E-02
    9035.786     41.368   3.560  1.04632E+00  1.00185E+00  4.44668E-02
    9036.877     42.460   3.600  1.04631E+00  9.99758E-01  4.65561E-02
    9037.980     43.563   3.640  1.04419E+00  9.97743E-01  4.64443E-02
    9039.096     44.678   3.680  1.04041E+00  9.95809E-01  4.46011E-02
    9040.224     45.806   3.720  1.03541E+00  9.93961E-01  4.14513E-02
    9041.364     46.946   3.760  1.02971E+00  9.92220E-01  3.74931E-02
    9042.516     48.098   3.800  1.02374E+00  9.90571E-01  3.31703E-02
    9043.680     49.263   3.840  1.01793E+00  9.89035E-01  2.88942E-02
    9044.857     50.439   3.880  1.01258E+00  9.87616E-01  2.49673E-02
    9046.045     51.628   3.920  1.00784E+00  9.86314E-01  2.15215E-02
    9047.246     52.829   3.960  1.00363E+00  9.85109E-01  1.85213E-02
    9048.459     54.042   4.000  9.99901E-01  9.84045E-01  1.58558E-02
    9049.685     55.267   4.040  9.96566E-01  9.83080E-01  1.34857E-02
    9050.922     56.505   4.080  9.93713E-01  9.82258E-01  1.14558E-02
    9052.172     57.754   4.120  9.91448E-01  9.81556E-01  9.89206E-03
    9053.434     59.016   4.160  9.89913E-01  9.80955E-01  8.95826E-03
    9054.708     60.290   4.200  9.89302E-01  9.80494E-01  8.80813E-03
    9055.994     61.576   4.240  9.89682E-01  9.80153E-01  9.52881E-03
    9057.292     62.875   4.280  9.91001E-01  9.79911E-01  1.10901E-02
    9058.603     64.186   4.320  9.93116E-01  9.79807E-01  1.33085E-02
    9059.926     65.508   4.360  9.95634E-01  9.79798E-01  1.58367E-02
    9061.261     66.843   4.400  9.98150E-01  9.79901E-01  1.82490E-02
    9062.608     68.191   4.440  1.00021E+00  9.80096E-01  2.01131E-02
    9063.968     69.550   4.480  1.00143E+00  9.80400E-01  2.10271E-02
    9065.339     70.922   4.520  1.00147E+00  9.80794E-01  2.06731E-02
    9066.723     72.305   4.560  1.00020E+00  9.81292E-01  1.89104E-02
    9068.119     73.701   4.600  9.97676E-01  9.81852E-01  1.58246E-02
    9069.527     75.110   4.640  9.94224E-01  9.82512E-01  1.17125E-02
    9070.947     76.530   4.680  9.90256E-01  9.83227E-01  7.02949E-03
    9072.380     77.962   4.720  9.86234E-01  9.84015E-01  2.21930E-03
    9073.825     79.407   4.760  9.82472E-01  9.84874E-01 -2.40159E-03
    9075.282     80.864   4.800  9.79080E-01  9.85756E-01 -6.67607E-03
    9076.751     82.333   4.840  9.76126E-01  9.86702E-01 -1.05762E-02
    9078.232     83.815   4.880  9.73607E-01  9.87688E-01 -1.40812E-02
    9079.726     85.308   4.920  9.71622E-01  9.88709E-01 -1.70869E-02
    9081.231     86.814   4.960  9.70333E-01  9.89738E-01 -1.94049E-02
    9082.749     88.332   5.000  9.69963E-01  9.90772E-01 -2.08090E-02
    9084.279     89.862   5.040  9.70618E-01  9.91807E-01 -2.11891E-02
    9085.822     91.404   5.080  9.72200E-01  9.92865E-01 -2.06648E-02
    9087.376     92.959   5.120  9.74306E-01  9.93898E-01 -1.95925E-02
    9088.943     94.525   5.160  9.76465E-01  9.94924E-01 -1.84593E-02
    9090.522     96.104   5.200  9.78273E-01  9.95939E-01 -1.76654E-02
    9092.113     97.695   5.240  9.79497E-01  9.96896E-01 -1.73989E-02
    9093.716     99.298   5.280  9.80210E-01  9.97836E-01 -1.76254E-02
    9095.331    100.914   5.320  9.80592E-01  9.98733E-01 -1.81411E-02
    9096.959    102.541   5.360  9.80953E-01  9.99563E-01 -1.86100E-02
    9098.599    104.181   5.400  9.81754E-01  1.00034E+00 -1.85880E-02
    9100.251    105.833   5.440  9.83431E-01  1.00105E+00 -1.76189E-02
    9101.915    107.497   5.480  9.86327E-01  1.00171E+00 -1.53799E-02
    9103.591    109.174   5.520  9.90469E-01  1.00229E+00 -1.18184E-02
    9105.280    110.862   5.560  9.95564E-01  1.00279E+00 -7.22424E-03
    9106.981    112.563   5.600  1.00099E+00  1.00321E+00 -2.22313E-03
    9108.694    114.276   5.640  1.00592E+00  1.00358E+00  2.34369E-03
    9110.419    116.001   5.680  1.00951E+00  1.00384E+00  5.67456E-03
    9112.156    117.739   5.720  1.01131E+00  1.00401E+00  7.30112E-03
    9113.906    119.488   5.760  1.01133E+00  1.00408E+00  7.24563E-03
    9115.667    121.250   5.800  1.01004E+00  1.00409E+00  5.94942E-03
    9117.441    123.024   5.840  1.00807E+00  1.00400E+00  4.07559E-03
    9119.228    124.810   5.880  1.00614E+00  1.00385E+00  2.29759E-03
    9121.026    126.608   5.920  1.00473E+00  1.00359E+00  1.13871E-03
    9122.836    128.419   5.960  1.00413E+00  1.00321E+00  9.18258E-04
    9124.659    130.242   6.000  1.00450E+00  1.00271E+00  1.78895E-03
