# # comment:                                                     FEFF 9.9.1  
# # Source:
# # Structure
# # Reduced
# # space
# # abc:
# # angles:
# # sites:
# # POT  SCF 100  7.0000   0, screened core-hole, AFOLP (folp(0)= 1.150)
# # Abs   Z=29 Rmt= 1.262 Rnm= 1.331 K  shell
# # Pot 1 Z=23 Rmt= 1.247 Rnm= 1.368
# # Pot 2 Z=29 Rmt= 1.275 Rnm= 1.335
# # Pot 3 Z=15 Rmt= 0.939 Rnm= 1.155
# # Pot 4 Z= 8 Rmt= 0.879 Rnm= 1.042
# # Gam_ch=1.729E+00 H-L exch Vi= 0.000E+00 Vr= 0.000E+00
# # Mu=-7.144E+00eV kf=2.498E+00 Vint=-1.751E+01eV Rs_int= 1.452
# FMS rfms= 9.0000
# # PATH  Rmax=-1.000,  Keep_limit= 0.00, Heap_limit 0.00  Pwcrit= 2.50%
#  S02=0.950  Temp=   0.00  Debye_temp=   0.00  Global_sig2= 0.00000
#  Energy zero shift, vr, vi    0.00000E+00   0.00000E+00
#  Curved wave amplitude ratio filter   4.000%
#     file         sig2 tot  cw amp ratio   deg  nlegs   reff  inp sig2
#     0/   0 paths used
#  xsedge+ 50, used to normalize mu           2.4983E-04
#  -----------------------------------------------------------------------
#  omega    e    k    mu    mu0     chi     @#
    8983.300    -10.954  -1.000  3.35882E-02  4.89261E-02 -1.53379E-02
    8983.599    -10.655  -0.960  3.51140E-02  5.24003E-02 -1.72863E-02
    8983.886    -10.368  -0.920  3.67300E-02  5.62579E-02 -1.95279E-02
    8984.160    -10.094  -0.880  3.84438E-02  6.05553E-02 -2.21115E-02
    8984.422     -9.832  -0.840  4.02639E-02  6.53583E-02 -2.50944E-02
    8984.672     -9.582  -0.800  4.21997E-02  7.07432E-02 -2.85435E-02
    8984.910     -9.344  -0.760  4.42618E-02  7.67975E-02 -3.25358E-02
    8985.135     -9.119  -0.720  4.64617E-02  8.36204E-02 -3.71587E-02
    8985.349     -8.905  -0.680  4.88116E-02  9.13208E-02 -4.25092E-02
    8985.550     -8.704  -0.640  5.13237E-02  1.00014E-01 -4.86903E-02
    8985.739     -8.515  -0.600  5.40088E-02  1.09813E-01 -5.58043E-02
    8985.916     -8.338  -0.560  5.68746E-02  1.20815E-01 -6.39403E-02
    8986.080     -8.174  -0.520  5.99219E-02  1.33077E-01 -7.31550E-02
    8986.233     -8.021  -0.480  6.31407E-02  1.46586E-01 -8.34456E-02
    8986.373     -7.881  -0.440  6.65049E-02  1.61224E-01 -9.47195E-02
    8986.501     -7.753  -0.400  6.99682E-02  1.76736E-01 -1.06768E-01
    8986.617     -7.637  -0.360  7.34625E-02  1.92720E-01 -1.19257E-01
    8986.720     -7.534  -0.320  7.69009E-02  2.08655E-01 -1.31754E-01
    8986.812     -7.442  -0.280  8.01864E-02  2.23964E-01 -1.43777E-01
    8986.891     -7.363  -0.240  8.32224E-02  2.38090E-01 -1.54868E-01
    8986.958     -7.296  -0.200  8.59228E-02  2.50570E-01 -1.64647E-01
    8987.013     -7.241  -0.160  8.82179E-02  2.61064E-01 -1.72846E-01
    8987.056     -7.199  -0.120  9.00554E-02  2.69356E-01 -1.79301E-01
    8987.086     -7.168  -0.080  9.13989E-02  2.75328E-01 -1.83929E-01
    8987.110     -7.144   0.000  9.25078E-02  2.80125E-01 -1.87617E-01
    8987.165     -7.089   0.120  9.50349E-02  2.90947E-01 -1.95912E-01
    8987.208     -7.046   0.160  9.69744E-02  2.99345E-01 -2.02371E-01
    8987.263     -6.991   0.200  9.94480E-02  3.10057E-01 -2.10609E-01
    8987.330     -6.924   0.240  1.02485E-01  3.22951E-01 -2.20465E-01
    8987.409     -6.845   0.280  1.06049E-01  3.37741E-01 -2.31693E-01
    8987.501     -6.753   0.320  1.10117E-01  3.54044E-01 -2.43926E-01
    8987.604     -6.650   0.360  1.14606E-01  3.71380E-01 -2.56774E-01
    8987.720     -6.534   0.400  1.19448E-01  3.89222E-01 -2.69774E-01
    8987.848     -6.406   0.440  1.24593E-01  4.07132E-01 -2.82538E-01
    8987.988     -6.266   0.480  1.29959E-01  4.24731E-01 -2.94772E-01
    8988.141     -6.113   0.520  1.35623E-01  4.41814E-01 -3.06191E-01
    8988.305     -5.949   0.560  1.41714E-01  4.58241E-01 -3.16527E-01
    8988.482     -5.772   0.600  1.48564E-01  4.74025E-01 -3.25462E-01
    8988.671     -5.583   0.640  1.56573E-01  4.89180E-01 -3.32607E-01
    8988.872     -5.382   0.680  1.66129E-01  5.03836E-01 -3.37706E-01
    8989.086     -5.169   0.720  1.77374E-01  5.18055E-01 -3.40681E-01
    8989.311     -4.943   0.760  1.90236E-01  5.31935E-01 -3.41699E-01
    8989.549     -4.705   0.800  2.04740E-01  5.45549E-01 -3.40808E-01
    8989.799     -4.455   0.840  2.21433E-01  5.58979E-01 -3.37546E-01
    8990.061     -4.193   0.880  2.41428E-01  5.72295E-01 -3.30868E-01
    8990.335     -3.919   0.920  2.65969E-01  5.85533E-01 -3.19564E-01
    8990.622     -3.632   0.960  2.95878E-01  5.98721E-01 -3.02842E-01
    8990.920     -3.334   1.000  3.30842E-01  6.11875E-01 -2.81033E-01
    8991.231     -3.023   1.040  3.69822E-01  6.25044E-01 -2.55223E-01
    8991.554     -2.700   1.080  4.11888E-01  6.38211E-01 -2.26323E-01
    8991.890     -2.364   1.120  4.56699E-01  6.51391E-01 -1.94692E-01
    8992.237     -2.017   1.160  5.03851E-01  6.64555E-01 -1.60704E-01
    8992.597     -1.657   1.200  5.50239E-01  6.77730E-01 -1.27491E-01
    8992.969     -1.285   1.240  5.90528E-01  6.90898E-01 -1.00370E-01
    8993.353     -0.901   1.280  6.21651E-01  7.04020E-01 -8.23694E-02
    8993.749     -0.505   1.320  6.43724E-01  7.17094E-01 -7.33707E-02
    8994.157     -0.097   1.360  6.63161E-01  7.30096E-01 -6.69355E-02
    8994.578      0.324   1.400  6.92567E-01  7.43019E-01 -5.04521E-02
    8995.011      0.757   1.440  7.42015E-01  7.55836E-01 -1.38208E-02
    8995.456      1.202   1.480  8.14859E-01  7.68500E-01  4.63595E-02
    8995.913      1.659   1.520  9.06123E-01  7.81002E-01  1.25121E-01
    8996.382      2.128   1.560  9.97212E-01  7.93331E-01  2.03880E-01
    8996.864      2.610   1.600  1.05693E+00  8.05459E-01  2.51468E-01
    8997.358      3.104   1.640  1.07537E+00  8.17336E-01  2.58038E-01
    8997.864      3.610   1.680  1.07107E+00  8.28992E-01  2.42079E-01
    8998.382      4.128   1.720  1.05947E+00  8.40337E-01  2.19129E-01
    8998.912      4.658   1.760  1.05737E+00  8.51404E-01  2.05962E-01
    8999.455      5.201   1.800  1.09185E+00  8.62162E-01  2.29692E-01
    9000.010      5.755   1.840  1.17154E+00  8.72587E-01  2.98953E-01
    9000.576      6.322   1.880  1.25678E+00  8.82647E-01  3.74135E-01
    9001.156      6.901   1.920  1.28979E+00  8.92356E-01  3.97431E-01
    9001.747      7.493   1.960  1.26216E+00  9.01689E-01  3.60475E-01
    9002.350      8.096   2.000  1.20452E+00  9.10621E-01  2.93895E-01
    9002.966      8.712   2.040  1.14403E+00  9.19148E-01  2.24882E-01
    9003.594      9.340   2.080  1.09443E+00  9.27286E-01  1.67147E-01
    9004.234      9.980   2.120  1.06116E+00  9.35012E-01  1.26151E-01
    9004.886     10.632   2.160  1.04411E+00  9.42304E-01  1.01802E-01
    9005.551     11.297   2.200  1.03898E+00  9.49183E-01  8.97926E-02
    9006.227     11.973   2.240  1.04021E+00  9.55646E-01  8.45600E-02
    9006.916     12.662   2.280  1.04303E+00  9.61676E-01  8.13580E-02
    9007.617     13.363   2.320  1.04869E+00  9.67316E-01  8.13739E-02
    9008.331     14.076   2.360  1.05620E+00  9.72525E-01  8.36722E-02
    9009.056     14.802   2.400  1.05409E+00  9.77327E-01  7.67666E-02
    9009.794     15.539   2.440  1.03684E+00  9.81727E-01  5.51150E-02
    9010.543     16.289   2.480  1.01846E+00  9.85749E-01  3.27136E-02
    9011.305     17.051   2.520  1.01298E+00  9.89379E-01  2.35992E-02
    9012.080     17.825   2.560  1.01961E+00  9.92662E-01  2.69517E-02
    9012.866     18.612   2.600  1.02822E+00  9.95563E-01  3.26599E-02
    9013.665     19.410   2.640  1.03174E+00  9.98128E-01  3.36085E-02
    9014.475     20.221   2.680  1.02850E+00  1.00037E+00  2.81334E-02
    9015.298     21.044   2.720  1.01822E+00  1.00226E+00  1.59577E-02
    9016.133     21.879   2.760  1.00466E+00  1.00389E+00  7.71093E-04
    9016.981     22.727   2.800  9.92080E-01  1.00520E+00 -1.31214E-02
    9017.840     23.586   2.840  9.80510E-01  1.00626E+00 -2.57489E-02
    9018.712     24.458   2.880  9.67953E-01  1.00705E+00 -3.90929E-02
    9019.596     25.342   2.920  9.56280E-01  1.00759E+00 -5.13105E-02
    9020.492     26.238   2.960  9.46123E-01  1.00792E+00 -6.17984E-02
    9021.400     27.146   3.000  9.36068E-01  1.00802E+00 -7.19568E-02
    9022.321     28.067   3.040  9.25955E-01  1.00795E+00 -8.19936E-02
    9023.254     28.999   3.080  9.15621E-01  1.00768E+00 -9.20610E-02
    9024.198     29.944   3.120  9.05376E-01  1.00727E+00 -1.01898E-01
    9025.155     30.901   3.160  8.96625E-01  1.00669E+00 -1.10063E-01
    9026.125     31.871   3.200  8.90944E-01  1.00599E+00 -1.15050E-01
    9027.106     32.852   3.240  8.88923E-01  1.00516E+00 -1.16234E-01
    9028.100     33.846   3.280  8.90615E-01  1.00423E+00 -1.13613E-01
    9029.106     34.852   3.320  8.95123E-01  1.00321E+00 -1.08087E-01
    9030.124     35.870   3.360  9.01756E-01  1.00209E+00 -1.00333E-01
    9031.154     36.900   3.400  9.10076E-01  1.00091E+00 -9.08382E-02
    9032.196     37.942   3.440  9.19509E-01  9.99690E-01 -8.01808E-02
    9033.251     38.997   3.480  9.29418E-01  9.98401E-01 -6.89829E-02
    9034.318     40.064   3.520  9.39375E-01  9.97094E-01 -5.77195E-02
    9035.397     41.143   3.560  9.48999E-01  9.95754E-01 -4.67547E-02
    9036.488     42.234   3.600  9.58065E-01  9.94405E-01 -3.63399E-02
    9037.591     43.337   3.640  9.66821E-01  9.93031E-01 -2.62098E-02
    9038.707     44.453   3.680  9.75674E-01  9.91679E-01 -1.60055E-02
    9039.835     45.580   3.720  9.84749E-01  9.90333E-01 -5.58429E-03
    9040.975     46.720   3.760  9.93838E-01  9.89016E-01  4.82103E-03
    9042.127     47.873   3.800  1.00239E+00  9.87732E-01  1.46613E-02
    9043.291     49.037   3.840  1.00962E+00  9.86462E-01  2.31551E-02
    9044.468     50.213   3.880  1.01492E+00  9.85228E-01  2.96967E-02
    9045.656     51.402   3.920  1.01800E+00  9.84036E-01  3.39653E-02
    9046.857     52.603   3.960  1.01885E+00  9.82909E-01  3.59461E-02
    9048.070     53.816   4.000  1.01780E+00  9.81826E-01  3.59786E-02
    9049.296     55.041   4.040  1.01550E+00  9.80788E-01  3.47154E-02
    9050.533     56.279   4.080  1.01274E+00  9.79820E-01  3.29247E-02
    9051.783     57.529   4.120  1.01025E+00  9.78902E-01  3.13469E-02
    9053.045     58.790   4.160  1.00866E+00  9.78055E-01  3.06031E-02
    9054.319     60.064   4.200  1.00838E+00  9.77283E-01  3.10973E-02
    9055.605     61.351   4.240  1.00954E+00  9.76565E-01  3.29761E-02
    9056.903     62.649   4.280  1.01206E+00  9.75942E-01  3.61222E-02
    9058.214     63.960   4.320  1.01554E+00  9.75373E-01  4.01624E-02
    9059.537     65.283   4.360  1.01931E+00  9.74879E-01  4.44342E-02
    9060.872     66.618   4.400  1.02249E+00  9.74438E-01  4.80565E-02
    9062.219     67.965   4.440  1.02428E+00  9.74094E-01  5.01857E-02
    9063.578     69.324   4.480  1.02406E+00  9.73803E-01  5.02537E-02
    9064.950     70.696   4.520  1.02169E+00  9.73587E-01  4.81073E-02
    9066.334     72.080   4.560  1.01746E+00  9.73445E-01  4.40103E-02
    9067.730     73.476   4.600  1.01180E+00  9.73355E-01  3.84469E-02
    9069.138     74.884   4.640  1.00529E+00  9.73338E-01  3.19544E-02
    9070.558     76.304   4.680  9.98433E-01  9.73392E-01  2.50407E-02
    9071.991     77.737   4.720  9.91640E-01  9.73496E-01  1.81440E-02
    9073.436     79.181   4.760  9.85314E-01  9.73669E-01  1.16449E-02
    9074.893     80.638   4.800  9.79766E-01  9.73887E-01  5.87881E-03
    9076.362     82.108   4.840  9.75250E-01  9.74151E-01  1.09895E-03
    9077.843     83.589   4.880  9.71920E-01  9.74479E-01 -2.55922E-03
    9079.336     85.082   4.920  9.69721E-01  9.74827E-01 -5.10556E-03
    9080.842     86.588   4.960  9.68560E-01  9.75237E-01 -6.67654E-03
    9082.360     88.106   5.000  9.68247E-01  9.75685E-01 -7.43837E-03
    9083.890     89.636   5.040  9.68593E-01  9.76147E-01 -7.55403E-03
    9085.432     91.178   5.080  9.69445E-01  9.76644E-01 -7.19839E-03
    9086.987     92.733   5.120  9.70538E-01  9.77174E-01 -6.63688E-03
    9088.554     94.299   5.160  9.71495E-01  9.77736E-01 -6.24138E-03
    9090.132     95.878   5.200  9.71868E-01  9.78282E-01 -6.41440E-03
    9091.723     97.469   5.240  9.71325E-01  9.78855E-01 -7.53031E-03
    9093.327     99.073   5.280  9.69605E-01  9.79455E-01 -9.84901E-03
    9094.942    100.688   5.320  9.66591E-01  9.80034E-01 -1.34435E-02
    9096.570    102.316   5.360  9.62508E-01  9.80634E-01 -1.81263E-02
    9098.210    103.955   5.400  9.57784E-01  9.81210E-01 -2.34263E-02
    9099.862    105.608   5.440  9.53109E-01  9.81780E-01 -2.86717E-02
    9101.526    107.272   5.480  9.49189E-01  9.82344E-01 -3.31543E-02
    9103.202    108.948   5.520  9.46567E-01  9.82878E-01 -3.63107E-02
    9104.891    110.637   5.560  9.45518E-01  9.83401E-01 -3.78829E-02
    9106.592    112.337   5.600  9.45975E-01  9.83889E-01 -3.79147E-02
    9108.305    114.050   5.640  9.47684E-01  9.84343E-01 -3.66588E-02
    9110.030    115.776   5.680  9.50392E-01  9.84781E-01 -3.43894E-02
    9111.767    117.513   5.720  9.53845E-01  9.85159E-01 -3.13148E-02
    9113.517    119.262   5.760  9.57934E-01  9.85521E-01 -2.75869E-02
    9115.278    121.024   5.800  9.62417E-01  9.85842E-01 -2.34253E-02
    9117.052    122.798   5.840  9.66938E-01  9.86099E-01 -1.91608E-02
    9118.838    124.584   5.880  9.71110E-01  9.86335E-01 -1.52251E-02
    9120.637    126.383   5.920  9.74456E-01  9.86502E-01 -1.20469E-02
    9122.447    128.193   5.960  9.76756E-01  9.86617E-01 -9.86109E-03
    9124.270    130.016   6.000  9.78128E-01  9.86660E-01 -8.53246E-03
