# # comment:                                                     FEFF 9.9.1  
# # Source:
# # Structure
# # Reduced
# # space
# # abc:
# # angles:
# # sites:
# # POT  SCF 100  7.0000   0, screened core-hole, AFOLP (folp(0)= 1.150)
# # Abs   Z=29 Rmt= 1.266 Rnm= 1.334 K  shell
# # Pot 1 Z=26 Rmt= 1.284 Rnm= 1.372
# # Pot 2 Z=29 Rmt= 1.268 Rnm= 1.337
# # Pot 3 Z= 8 Rmt= 0.999 Rnm= 1.079
# # Gam_ch=1.729E+00 H-L exch Vi= 0.000E+00 Vr= 0.000E+00
# # Mu=-1.124E+01eV kf=2.224E+00 Vint=-1.910E+01eV Rs_int= 1.631
# FMS rfms= 9.0000
# # PATH  Rmax=-1.000,  Keep_limit= 0.00, Heap_limit 0.00  Pwcrit= 2.50%
#  S02=0.950  Temp=   0.00  Debye_temp=   0.00  Global_sig2= 0.00000
#  Energy zero shift, vr, vi    0.00000E+00   0.00000E+00
#  Curved wave amplitude ratio filter   4.000%
#     file         sig2 tot  cw amp ratio   deg  nlegs   reff  inp sig2
#     0/   0 paths used
#  xsedge+ 50, used to normalize mu           2.5119E-04
#  -----------------------------------------------------------------------
#  omega    e    k    mu    mu0     chi     @#
    8984.359    -15.047  -1.000  3.09596E-02  4.45551E-02 -1.35955E-02
    8984.658    -14.749  -0.960  3.24002E-02  4.75491E-02 -1.51489E-02
    8984.944    -14.462  -0.920  3.39406E-02  5.08581E-02 -1.69174E-02
    8985.219    -14.188  -0.880  3.55919E-02  5.45272E-02 -1.89353E-02
    8985.481    -13.926  -0.840  3.73663E-02  5.86089E-02 -2.12426E-02
    8985.731    -13.676  -0.800  3.92781E-02  6.31636E-02 -2.38855E-02
    8985.968    -13.438  -0.760  4.13433E-02  6.82609E-02 -2.69175E-02
    8986.194    -13.212  -0.720  4.35797E-02  7.39788E-02 -3.03991E-02
    8986.407    -12.999  -0.680  4.60064E-02  8.04033E-02 -3.43970E-02
    8986.608    -12.798  -0.640  4.86429E-02  8.76250E-02 -3.89821E-02
    8986.797    -12.609  -0.600  5.15075E-02  9.57322E-02 -4.42247E-02
    8986.974    -12.432  -0.560  5.46136E-02  1.04800E-01 -5.01865E-02
    8987.139    -12.267  -0.520  5.79650E-02  1.14872E-01 -5.69072E-02
    8987.291    -12.115  -0.480  6.15491E-02  1.25936E-01 -6.43873E-02
    8987.431    -11.975  -0.440  6.53294E-02  1.37896E-01 -7.25667E-02
    8987.559    -11.847  -0.400  6.92394E-02  1.50546E-01 -8.13069E-02
    8987.675    -11.731  -0.360  7.31830E-02  1.63567E-01 -9.03837E-02
    8987.779    -11.627  -0.320  7.70420E-02  1.76541E-01 -9.94987E-02
    8987.870    -11.536  -0.280  8.06919E-02  1.89006E-01 -1.08314E-01
    8987.950    -11.457  -0.240  8.40198E-02  2.00515E-01 -1.16495E-01
    8988.017    -11.390  -0.200  8.69360E-02  2.10693E-01 -1.23757E-01
    8988.071    -11.335  -0.160  8.93775E-02  2.19263E-01 -1.29885E-01
    8988.114    -11.292  -0.120  9.13012E-02  2.26043E-01 -1.34742E-01
    8988.145    -11.262  -0.080  9.26785E-02  2.30932E-01 -1.38254E-01
    8988.169    -11.237   0.000  9.37585E-02  2.34864E-01 -1.41106E-01
    8988.224    -11.182   0.120  9.64995E-02  2.43738E-01 -1.47239E-01
    8988.267    -11.140   0.160  9.86240E-02  2.50645E-01 -1.52021E-01
    8988.321    -11.085   0.200  1.01376E-01  2.59483E-01 -1.58107E-01
    8988.388    -11.018   0.240  1.04756E-01  2.70141E-01 -1.65385E-01
    8988.468    -10.939   0.280  1.08794E-01  2.82440E-01 -1.73646E-01
    8988.559    -10.847   0.320  1.13497E-01  2.96062E-01 -1.82565E-01
    8988.663    -10.743   0.360  1.18997E-01  3.10690E-01 -1.91693E-01
    8988.779    -10.628   0.400  1.25447E-01  3.25926E-01 -2.00479E-01
    8988.907    -10.500   0.440  1.33063E-01  3.41422E-01 -2.08360E-01
    8989.047    -10.359   0.480  1.42077E-01  3.56893E-01 -2.14815E-01
    8989.199    -10.207   0.520  1.52564E-01  3.72189E-01 -2.19625E-01
    8989.364    -10.042   0.560  1.64140E-01  3.87215E-01 -2.23075E-01
    8989.541     -9.866   0.600  1.75756E-01  4.01967E-01 -2.26212E-01
    8989.730     -9.677   0.640  1.85679E-01  4.16509E-01 -2.30829E-01
    8989.931     -9.476   0.680  1.91852E-01  4.30847E-01 -2.38995E-01
    8990.144     -9.262   0.720  1.93023E-01  4.45099E-01 -2.52076E-01
    8990.370     -9.037   0.760  1.89936E-01  4.59318E-01 -2.69382E-01
    8990.607     -8.799   0.800  1.85702E-01  4.73555E-01 -2.87853E-01
    8990.857     -8.549   0.840  1.84155E-01  4.87867E-01 -3.03712E-01
    8991.119     -8.287   0.880  1.87870E-01  5.02284E-01 -3.14415E-01
    8991.394     -8.012   0.920  1.98092E-01  5.16846E-01 -3.18754E-01
    8991.680     -7.726   0.960  2.15868E-01  5.31564E-01 -3.15695E-01
    8991.979     -7.427   1.000  2.43176E-01  5.46441E-01 -3.03265E-01
    8992.290     -7.116   1.040  2.83476E-01  5.61492E-01 -2.78016E-01
    8992.613     -6.793   1.080  3.40542E-01  5.76709E-01 -2.36167E-01
    8992.948     -6.458   1.120  4.14094E-01  5.92079E-01 -1.77985E-01
    8993.296     -6.111   1.160  4.92072E-01  6.07560E-01 -1.15488E-01
    8993.655     -5.751   1.200  5.47038E-01  6.23191E-01 -7.61532E-02
    8994.027     -5.379   1.240  5.52394E-01  6.38886E-01 -8.64928E-02
    8994.411     -4.995   1.280  5.15708E-01  6.54658E-01 -1.38950E-01
    8994.808     -4.599   1.320  4.76317E-01  6.70454E-01 -1.94137E-01
    8995.216     -4.190   1.360  4.59289E-01  6.86243E-01 -2.26954E-01
    8995.637     -3.770   1.400  4.63633E-01  7.02011E-01 -2.38378E-01
    8996.069     -3.337   1.440  4.83641E-01  7.17704E-01 -2.34062E-01
    8996.514     -2.892   1.480  5.17481E-01  7.33286E-01 -2.15805E-01
    8996.972     -2.435   1.520  5.61593E-01  7.48720E-01 -1.87127E-01
    8997.441     -1.965   1.560  6.14482E-01  7.63968E-01 -1.49486E-01
    8997.923     -1.484   1.600  6.82822E-01  7.78994E-01 -9.61720E-02
    8998.416     -0.990   1.640  7.54797E-01  7.93762E-01 -3.89648E-02
    8998.922     -0.484   1.680  7.89422E-01  8.08235E-01 -1.88132E-02
    8999.440      0.034   1.720  7.72699E-01  8.22398E-01 -4.96992E-02
    8999.971      0.565   1.760  7.42594E-01  8.36195E-01 -9.36014E-02
    9000.513      1.107   1.800  7.40499E-01  8.49611E-01 -1.09112E-01
    9001.068      1.662   1.840  7.82151E-01  8.62593E-01 -8.04421E-02
    9001.635      2.229   1.880  8.76237E-01  8.75128E-01  1.10914E-03
    9002.214      2.808   1.920  1.03789E+00  8.87203E-01  1.50688E-01
    9002.805      3.399   1.960  1.26257E+00  8.98791E-01  3.63782E-01
    9003.409      4.003   2.000  1.46751E+00  9.09862E-01  5.57648E-01
    9004.025      4.618   2.040  1.51089E+00  9.20428E-01  5.90465E-01
    9004.653      5.246   2.080  1.38845E+00  9.30442E-01  4.58007E-01
    9005.293      5.886   2.120  1.26183E+00  9.39900E-01  3.21926E-01
    9005.945      6.539   2.160  1.20564E+00  9.48818E-01  2.56823E-01
    9006.609      7.203   2.200  1.19151E+00  9.57155E-01  2.34355E-01
    9007.286      7.880   2.240  1.20396E+00  9.64951E-01  2.39007E-01
    9007.975      8.569   2.280  1.24862E+00  9.72185E-01  2.76440E-01
    9008.676      9.270   2.320  1.29013E+00  9.78859E-01  3.11272E-01
    9009.389      9.983   2.360  1.28263E+00  9.84979E-01  2.97650E-01
    9010.115     10.708   2.400  1.23758E+00  9.90567E-01  2.47014E-01
    9010.852     11.446   2.440  1.17630E+00  9.95628E-01  1.80667E-01
    9011.602     12.196   2.480  1.08966E+00  1.00017E+00  8.94906E-02
    9012.364     12.958   2.520  9.91834E-01  1.00420E+00 -1.23642E-02
    9013.138     13.732   2.560  9.23557E-01  1.00774E+00 -8.41835E-02
    9013.924     14.518   2.600  8.91128E-01  1.01081E+00 -1.19679E-01
    9014.723     15.317   2.640  8.87958E-01  1.01343E+00 -1.25468E-01
    9015.534     16.128   2.680  8.97300E-01  1.01561E+00 -1.18308E-01
    9016.357     16.951   2.720  9.10867E-01  1.01738E+00 -1.06516E-01
    9017.192     17.786   2.760  9.27453E-01  1.01876E+00 -9.13103E-02
    9018.039     18.633   2.800  9.43117E-01  1.01978E+00 -7.66596E-02
    9018.899     19.493   2.840  9.54663E-01  1.02046E+00 -6.57932E-02
    9019.771     20.364   2.880  9.62008E-01  1.02079E+00 -5.87847E-02
    9020.654     21.248   2.920  9.67294E-01  1.02082E+00 -5.35214E-02
    9021.551     22.144   2.960  9.72341E-01  1.02058E+00 -4.82356E-02
    9022.459     23.053   3.000  9.77130E-01  1.02007E+00 -4.29380E-02
    9023.379     23.973   3.040  9.80622E-01  1.01934E+00 -3.87194E-02
    9024.312     24.906   3.080  9.81069E-01  1.01838E+00 -3.73160E-02
    9025.257     25.851   3.120  9.76819E-01  1.01723E+00 -4.04097E-02
    9026.214     26.808   3.160  9.67811E-01  1.01590E+00 -4.80933E-02
    9027.183     27.777   3.200  9.55801E-01  1.01440E+00 -5.85988E-02
    9028.165     28.758   3.240  9.43309E-01  1.01279E+00 -6.94795E-02
    9029.158     29.752   3.280  9.31843E-01  1.01106E+00 -7.92137E-02
    9030.164     30.758   3.320  9.22130E-01  1.00921E+00 -8.70822E-02
    9031.182     31.776   3.360  9.14488E-01  1.00729E+00 -9.27981E-02
    9032.212     32.806   3.400  9.09035E-01  1.00528E+00 -9.62482E-02
    9033.255     33.849   3.440  9.05811E-01  1.00324E+00 -9.74247E-02
    9034.309     34.903   3.480  9.04678E-01  1.00117E+00 -9.64924E-02
    9035.376     35.970   3.520  9.05311E-01  9.99070E-01 -9.37596E-02
    9036.455     37.049   3.560  9.07134E-01  9.96943E-01 -8.98087E-02
    9037.546     38.140   3.600  9.09921E-01  9.94834E-01 -8.49133E-02
    9038.650     39.244   3.640  9.13591E-01  9.92710E-01 -7.91191E-02
    9039.765     40.359   3.680  9.18288E-01  9.90638E-01 -7.23503E-02
    9040.893     41.487   3.720  9.24133E-01  9.88583E-01 -6.44496E-02
    9042.033     42.627   3.760  9.31477E-01  9.86587E-01 -5.51103E-02
    9043.185     43.779   3.800  9.40656E-01  9.84636E-01 -4.39805E-02
    9044.350     44.943   3.840  9.51744E-01  9.82733E-01 -3.09885E-02
    9045.526     46.120   3.880  9.64463E-01  9.80900E-01 -1.64365E-02
    9046.715     47.308   3.920  9.78284E-01  9.79141E-01 -8.57367E-04
    9047.916     48.509   3.960  9.92677E-01  9.77439E-01  1.52376E-02
    9049.129     49.722   4.000  1.00753E+00  9.75837E-01  3.16884E-02
    9050.354     50.948   4.040  1.02265E+00  9.74319E-01  4.83312E-02
    9051.592     52.185   4.080  1.03742E+00  9.72883E-01  6.45405E-02
    9052.841     53.435   4.120  1.05086E+00  9.71554E-01  7.93058E-02
    9054.103     54.697   4.160  1.06190E+00  9.70311E-01  9.15919E-02
    9055.377     55.971   4.200  1.06995E+00  9.69155E-01  1.00796E-01
    9056.663     57.257   4.240  1.07536E+00  9.68109E-01  1.07251E-01
    9057.962     58.556   4.280  1.07942E+00  9.67174E-01  1.12242E-01
    9059.272     59.866   4.320  1.08352E+00  9.66328E-01  1.17192E-01
    9060.595     61.189   4.360  1.08896E+00  9.65592E-01  1.23367E-01
    9061.930     62.524   4.400  1.09649E+00  9.64946E-01  1.31547E-01
    9063.278     63.871   4.440  1.10531E+00  9.64407E-01  1.40902E-01
    9064.637     65.231   4.480  1.11176E+00  9.63958E-01  1.47806E-01
    9066.008     66.602   4.520  1.10983E+00  9.63619E-01  1.46215E-01
    9067.392     67.986   4.560  1.09415E+00  9.63366E-01  1.30779E-01
    9068.788     69.382   4.600  1.06376E+00  9.63221E-01  1.00541E-01
    9070.196     70.790   4.640  1.02315E+00  9.63159E-01  5.99927E-02
    9071.617     72.211   4.680  9.79456E-01  9.63181E-01  1.62753E-02
    9073.049     73.643   4.720  9.38715E-01  9.63286E-01 -2.45711E-02
    9074.494     75.088   4.760  9.04449E-01  9.63490E-01 -5.90418E-02
    9075.951     76.545   4.800  8.77913E-01  9.63752E-01 -8.58386E-02
    9077.420     78.014   4.840  8.59158E-01  9.64090E-01 -1.04932E-01
    9078.901     79.495   4.880  8.47594E-01  9.64504E-01 -1.16911E-01
    9080.395     80.989   4.920  8.42398E-01  9.64991E-01 -1.22593E-01
    9081.901     82.494   4.960  8.42935E-01  9.65528E-01 -1.22592E-01
    9083.419     84.012   5.000  8.48911E-01  9.66132E-01 -1.17221E-01
    9084.949     85.542   5.040  8.60372E-01  9.66780E-01 -1.06408E-01
    9086.491     87.085   5.080  8.77681E-01  9.67467E-01 -8.97866E-02
    9088.045     88.639   5.120  9.00786E-01  9.68172E-01 -6.73858E-02
    9089.612     90.206   5.160  9.28277E-01  9.68936E-01 -4.06589E-02
    9091.191     91.785   5.200  9.56708E-01  9.69736E-01 -1.30279E-02
    9092.782     93.376   5.240  9.81716E-01  9.70546E-01  1.11699E-02
    9094.385     94.979   5.280  1.00034E+00  9.71383E-01  2.89576E-02
    9096.001     96.594   5.320  1.01222E+00  9.72202E-01  4.00175E-02
    9097.628     98.222   5.360  1.01883E+00  9.73045E-01  4.57827E-02
    9099.268     99.862   5.400  1.02152E+00  9.73890E-01  4.76344E-02
    9100.920    101.514   5.440  1.02073E+00  9.74731E-01  4.60035E-02
    9102.584    103.178   5.480  1.01619E+00  9.75545E-01  4.06446E-02
    9104.261    104.854   5.520  1.00775E+00  9.76373E-01  3.13765E-02
    9105.949    106.543   5.560  9.95790E-01  9.77147E-01  1.86432E-02
    9107.650    108.244   5.600  9.81693E-01  9.77908E-01  3.78502E-03
    9109.363    109.957   5.640  9.67646E-01  9.78630E-01 -1.09843E-02
    9111.088    111.682   5.680  9.55909E-01  9.79313E-01 -2.34042E-02
    9112.826    113.419   5.720  9.47477E-01  9.79954E-01 -3.24769E-02
    9114.575    115.169   5.760  9.41528E-01  9.80530E-01 -3.90015E-02
    9116.337    116.931   5.800  9.36159E-01  9.81083E-01 -4.49237E-02
    9118.111    118.705   5.840  9.29656E-01  9.81569E-01 -5.19129E-02
    9119.897    120.491   5.880  9.21633E-01  9.82003E-01 -6.03702E-02
    9121.695    122.289   5.920  9.13168E-01  9.82362E-01 -6.91945E-02
    9123.506    124.099   5.960  9.06531E-01  9.82657E-01 -7.61264E-02
    9125.328    125.922   6.000  9.04470E-01  9.82841E-01 -7.83710E-02
