# # comment:                                                     FEFF 9.9.1  
# # Source:
# # Structure
# # Reduced
# # space
# # abc:
# # angles:
# # sites:
# # POT  SCF 100  7.0000   0, screened core-hole, AFOLP (folp(0)= 1.150)
# # Abs   Z=29 Rmt= 1.213 Rnm= 1.298 K  shell
# # Pot 1 Z=38 Rmt= 1.760 Rnm= 1.813
# # Pot 2 Z=20 Rmt= 1.707 Rnm= 1.765
# # Pot 3 Z=29 Rmt= 1.213 Rnm= 1.299
# # Pot 4 Z= 8 Rmt= 1.062 Rnm= 1.114
# # Gam_ch=1.729E+00 H-L exch Vi= 0.000E+00 Vr= 0.000E+00
# # Mu=-8.994E+00eV kf=2.026E+00 Vint=-1.807E+01eV Rs_int= 1.790
# FMS rfms= 9.0000
# # PATH  Rmax=-1.000,  Keep_limit= 0.00, Heap_limit 0.00  Pwcrit= 2.50%
#  S02=0.950  Temp=   0.00  Debye_temp=   0.00  Global_sig2= 0.00000
#  Energy zero shift, vr, vi    0.00000E+00   0.00000E+00
#  Curved wave amplitude ratio filter   4.000%
#     file         sig2 tot  cw amp ratio   deg  nlegs   reff  inp sig2
#     0/   0 paths used
#  xsedge+ 50, used to normalize mu           2.4471E-04
#  -----------------------------------------------------------------------
#  omega    e    k    mu    mu0     chi     @#
    8985.445    -12.804  -1.000  4.26909E-02  5.71300E-02 -1.44391E-02
    8985.743    -12.506  -0.960  4.53760E-02  6.13629E-02 -1.59868E-02
    8986.030    -12.219  -0.920  4.83544E-02  6.60726E-02 -1.77182E-02
    8986.304    -11.945  -0.880  5.16744E-02  7.13298E-02 -1.96555E-02
    8986.566    -11.683  -0.840  5.53937E-02  7.72168E-02 -2.18231E-02
    8986.816    -11.433  -0.800  5.95809E-02  8.38290E-02 -2.42481E-02
    8987.054    -11.195  -0.760  6.43163E-02  9.12758E-02 -2.69595E-02
    8987.280    -10.970  -0.720  6.96928E-02  9.96810E-02 -2.99883E-02
    8987.493    -10.756  -0.680  7.58149E-02  1.09181E-01 -3.33662E-02
    8987.694    -10.555  -0.640  8.27959E-02  1.19920E-01 -3.71239E-02
    8987.883    -10.366  -0.600  9.07507E-02  1.32039E-01 -4.12883E-02
    8988.060    -10.189  -0.560  9.97825E-02  1.45659E-01 -4.58769E-02
    8988.225    -10.025  -0.520  1.09962E-01  1.60853E-01 -5.08910E-02
    8988.377     -9.872  -0.480  1.21300E-01  1.77606E-01 -5.63055E-02
    8988.517     -9.732  -0.440  1.33710E-01  1.95769E-01 -6.20588E-02
    8988.645     -9.604  -0.400  1.46981E-01  2.15026E-01 -6.80446E-02
    8988.761     -9.488  -0.360  1.60765E-01  2.34878E-01 -7.41131E-02
    8988.865     -9.385  -0.320  1.74593E-01  2.54676E-01 -8.00828E-02
    8988.956     -9.293  -0.280  1.87936E-01  2.73700E-01 -8.57643E-02
    8989.035     -9.214  -0.240  2.00275E-01  2.91259E-01 -9.09842E-02
    8989.102     -9.147  -0.200  2.11172E-01  3.06773E-01 -9.56011E-02
    8989.157     -9.092  -0.160  2.20314E-01  3.19821E-01 -9.95077E-02
    8989.200     -9.049  -0.120  2.27510E-01  3.30133E-01 -1.02624E-01
    8989.230     -9.019  -0.080  2.32671E-01  3.37561E-01 -1.04890E-01
    8989.255     -8.994   0.000  2.36791E-01  3.43527E-01 -1.06736E-01
    8989.310     -8.940   0.120  2.45716E-01  3.56970E-01 -1.11255E-01
    8989.352     -8.897   0.160  2.52634E-01  3.67424E-01 -1.14789E-01
    8989.407     -8.842   0.200  2.61277E-01  3.80762E-01 -1.19485E-01
    8989.474     -8.775   0.240  2.71264E-01  3.96779E-01 -1.25515E-01
    8989.553     -8.696   0.280  2.82045E-01  4.15189E-01 -1.33144E-01
    8989.645     -8.604   0.320  2.92642E-01  4.35453E-01 -1.42811E-01
    8989.749     -8.501   0.360  3.01846E-01  4.57001E-01 -1.55155E-01
    8989.864     -8.385   0.400  3.08265E-01  4.79203E-01 -1.70938E-01
    8989.992     -8.257   0.440  3.10686E-01  5.01464E-01 -1.90778E-01
    8990.133     -8.117   0.480  3.08518E-01  5.23318E-01 -2.14800E-01
    8990.285     -7.964   0.520  3.02151E-01  5.44462E-01 -2.42312E-01
    8990.450     -7.800   0.560  2.92873E-01  5.64785E-01 -2.71912E-01
    8990.626     -7.623   0.600  2.82245E-01  5.84231E-01 -3.01986E-01
    8990.815     -7.434   0.640  2.71722E-01  6.02861E-01 -3.31139E-01
    8991.016     -7.233   0.680  2.62345E-01  6.20736E-01 -3.58391E-01
    8991.230     -7.019   0.720  2.54978E-01  6.37972E-01 -3.82994E-01
    8991.455     -6.794   0.760  2.50354E-01  6.54666E-01 -4.04313E-01
    8991.693     -6.556   0.800  2.49185E-01  6.70902E-01 -4.21718E-01
    8991.943     -6.306   0.840  2.52150E-01  6.86730E-01 -4.34581E-01
    8992.205     -6.044   0.880  2.59631E-01  7.02226E-01 -4.42595E-01
    8992.480     -5.770   0.920  2.71446E-01  7.17412E-01 -4.45966E-01
    8992.766     -5.483   0.960  2.86831E-01  7.32336E-01 -4.45505E-01
    8993.065     -5.184   1.000  3.04893E-01  7.46995E-01 -4.42101E-01
    8993.376     -4.874   1.040  3.25438E-01  7.61395E-01 -4.35957E-01
    8993.699     -4.550   1.080  3.49045E-01  7.75537E-01 -4.26491E-01
    8994.034     -4.215   1.120  3.76808E-01  7.89391E-01 -4.12583E-01
    8994.381     -3.868   1.160  4.09953E-01  8.02986E-01 -3.93033E-01
    8994.741     -3.508   1.200  4.50114E-01  8.16247E-01 -3.66133E-01
    8995.113     -3.136   1.240  4.99872E-01  8.29214E-01 -3.29342E-01
    8995.497     -2.752   1.280  5.58740E-01  8.41802E-01 -2.83062E-01
    8995.893     -2.356   1.320  6.20503E-01  8.54030E-01 -2.33527E-01
    8996.302     -1.947   1.360  6.83671E-01  8.65875E-01 -1.82204E-01
    8996.722     -1.527   1.400  7.59058E-01  8.77310E-01 -1.18252E-01
    8997.155     -1.094   1.440  8.51438E-01  8.88310E-01 -3.68724E-02
    8997.600     -0.649   1.480  9.34531E-01  8.98871E-01  3.56596E-02
    8998.057     -0.192   1.520  9.76138E-01  9.08947E-01  6.71905E-02
    8998.527      0.278   1.560  9.86978E-01  9.18578E-01  6.84003E-02
    8999.008      0.759   1.600  9.93955E-01  9.27699E-01  6.62556E-02
    8999.502      1.253   1.640  1.02570E+00  9.36328E-01  8.93756E-02
    9000.008      1.759   1.680  1.11961E+00  9.44467E-01  1.75146E-01
    9000.526      2.277   1.720  1.29921E+00  9.52095E-01  3.47111E-01
    9001.057      2.807   1.760  1.51498E+00  9.59234E-01  5.55746E-01
    9001.599      3.350   1.800  1.62240E+00  9.65868E-01  6.56535E-01
    9002.154      3.905   1.840  1.56813E+00  9.72000E-01  5.96127E-01
    9002.721      4.472   1.880  1.44812E+00  9.77677E-01  4.70442E-01
    9003.300      5.051   1.920  1.33392E+00  9.82863E-01  3.51056E-01
    9003.891      5.642   1.960  1.24881E+00  9.87586E-01  2.61227E-01
    9004.495      6.246   2.000  1.19563E+00  9.91875E-01  2.03753E-01
    9005.110      6.861   2.040  1.15855E+00  9.95737E-01  1.62813E-01
    9005.738      7.489   2.080  1.12170E+00  9.99182E-01  1.22514E-01
    9006.378      8.129   2.120  1.08733E+00  1.00222E+00  8.51160E-02
    9007.031      8.781   2.160  1.06184E+00  1.00487E+00  5.69648E-02
    9007.695      9.446   2.200  1.04665E+00  1.00719E+00  3.94691E-02
    9008.372     10.123   2.240  1.04647E+00  1.00916E+00  3.73079E-02
    9009.061     10.811   2.280  1.06859E+00  1.01080E+00  5.77879E-02
    9009.762     11.512   2.320  1.11606E+00  1.01215E+00  1.03909E-01
    9010.475     12.226   2.360  1.17816E+00  1.01321E+00  1.64945E-01
    9011.200     12.951   2.400  1.23086E+00  1.01402E+00  2.16841E-01
    9011.938     13.689   2.440  1.24359E+00  1.01460E+00  2.28995E-01
    9012.688     14.439   2.480  1.21637E+00  1.01495E+00  2.01422E-01
    9013.450     15.201   2.520  1.18044E+00  1.01509E+00  1.65354E-01
    9014.224     15.975   2.560  1.14808E+00  1.01505E+00  1.33027E-01
    9015.010     16.761   2.600  1.11838E+00  1.01485E+00  1.03533E-01
    9015.809     17.560   2.640  1.08686E+00  1.01451E+00  7.23551E-02
    9016.620     18.370   2.680  1.05046E+00  1.01402E+00  3.64439E-02
    9017.443     19.193   2.720  1.00980E+00  1.01343E+00 -3.63618E-03
    9018.278     20.029   2.760  9.67778E-01  1.01275E+00 -4.49757E-02
    9019.125     20.876   2.800  9.27336E-01  1.01197E+00 -8.46316E-02
    9019.985     21.735   2.840  8.91291E-01  1.01112E+00 -1.19832E-01
    9020.856     22.607   2.880  8.61298E-01  1.01021E+00 -1.48908E-01
    9021.740     23.491   2.920  8.38246E-01  1.00927E+00 -1.71021E-01
    9022.636     24.387   2.960  8.22453E-01  1.00827E+00 -1.85813E-01
    9023.545     25.295   3.000  8.13819E-01  1.00728E+00 -1.93456E-01
    9024.465     26.216   3.040  8.11810E-01  1.00623E+00 -1.94423E-01
    9025.398     27.149   3.080  8.15927E-01  1.00521E+00 -1.89282E-01
    9026.343     28.093   3.120  8.25479E-01  1.00419E+00 -1.78708E-01
    9027.300     29.051   3.160  8.39063E-01  1.00319E+00 -1.64129E-01
    9028.269     30.020   3.200  8.54927E-01  1.00220E+00 -1.47277E-01
    9029.250     31.001   3.240  8.71215E-01  1.00123E+00 -1.30012E-01
    9030.244     31.995   3.280  8.86319E-01  1.00031E+00 -1.13988E-01
    9031.250     33.001   3.320  8.99735E-01  9.99405E-01 -9.96700E-02
    9032.268     34.019   3.360  9.12373E-01  9.98566E-01 -8.61931E-02
    9033.298     35.049   3.400  9.25524E-01  9.97771E-01 -7.22471E-02
    9034.341     36.091   3.440  9.39695E-01  9.97020E-01 -5.73248E-02
    9035.395     37.146   3.480  9.54719E-01  9.96336E-01 -4.16179E-02
    9036.462     38.213   3.520  9.69829E-01  9.95700E-01 -2.58715E-02
    9037.541     39.292   3.560  9.83977E-01  9.95112E-01 -1.11341E-02
    9038.632     40.383   3.600  9.96212E-01  9.94593E-01  1.61802E-03
    9039.736     41.486   3.640  1.00589E+00  9.94127E-01  1.17613E-02
    9040.851     42.602   3.680  1.01308E+00  9.93754E-01  1.93283E-02
    9041.979     43.730   3.720  1.01813E+00  9.93412E-01  2.47152E-02
    9043.119     44.870   3.760  1.02160E+00  9.93163E-01  2.84386E-02
    9044.271     46.022   3.800  1.02378E+00  9.92965E-01  3.08161E-02
    9045.435     47.186   3.840  1.02470E+00  9.92817E-01  3.18841E-02
    9046.612     48.363   3.880  1.02446E+00  9.92741E-01  3.17236E-02
    9047.800     49.551   3.920  1.02321E+00  9.92738E-01  3.04710E-02
    9049.001     50.752   3.960  1.02106E+00  9.92785E-01  2.82716E-02
    9050.214     51.965   4.000  1.01827E+00  9.92901E-01  2.53721E-02
    9051.440     53.191   4.040  1.01511E+00  9.93065E-01  2.20458E-02
    9052.677     54.428   4.080  1.01190E+00  9.93275E-01  1.86228E-02
    9053.927     55.678   4.120  1.00916E+00  9.93552E-01  1.56109E-02
    9055.189     56.940   4.160  1.00762E+00  9.93873E-01  1.37490E-02
    9056.463     58.214   4.200  1.00775E+00  9.94237E-01  1.35105E-02
    9057.749     59.500   4.240  1.00959E+00  9.94640E-01  1.49463E-02
    9059.048     60.798   4.280  1.01294E+00  9.95084E-01  1.78540E-02
    9060.358     62.109   4.320  1.01777E+00  9.95567E-01  2.21987E-02
    9061.681     63.432   4.360  1.02443E+00  9.96086E-01  2.83409E-02
    9063.016     64.767   4.400  1.03352E+00  9.96641E-01  3.68747E-02
    9064.363     66.114   4.440  1.04560E+00  9.97208E-01  4.83908E-02
    9065.723     67.473   4.480  1.06061E+00  9.97805E-01  6.28062E-02
    9067.094     68.845   4.520  1.07724E+00  9.98411E-01  7.88292E-02
    9068.478     70.229   4.560  1.09297E+00  9.99045E-01  9.39206E-02
    9069.874     71.625   4.600  1.10467E+00  9.99685E-01  1.04987E-01
    9071.282     73.033   4.640  1.11004E+00  1.00033E+00  1.09710E-01
    9072.703     74.453   4.680  1.10842E+00  1.00099E+00  1.07423E-01
    9074.135     75.886   4.720  1.10043E+00  1.00163E+00  9.87986E-02
    9075.580     77.331   4.760  1.08711E+00  1.00227E+00  8.48385E-02
    9077.037     78.788   4.800  1.06946E+00  1.00291E+00  6.65564E-02
    9078.506     80.257   4.840  1.04885E+00  1.00354E+00  4.53101E-02
    9079.987     81.738   4.880  1.02726E+00  1.00416E+00  2.30979E-02
    9081.481     83.232   4.920  1.00663E+00  1.00475E+00  1.87378E-03
    9082.986     84.737   4.960  9.88252E-01  1.00531E+00 -1.70602E-02
    9084.504     86.255   5.000  9.72888E-01  1.00586E+00 -3.29707E-02
    9086.034     87.785   5.040  9.60807E-01  1.00637E+00 -4.55642E-02
    9087.577     89.328   5.080  9.52046E-01  1.00687E+00 -5.48238E-02
    9089.131     90.882   5.120  9.46489E-01  1.00733E+00 -6.08427E-02
    9090.698     92.449   5.160  9.43932E-01  1.00775E+00 -6.38214E-02
    9092.277     94.028   5.200  9.44109E-01  1.00814E+00 -6.40268E-02
    9093.868     95.619   5.240  9.46679E-01  1.00848E+00 -6.17975E-02
    9095.471     97.222   5.280  9.51238E-01  1.00877E+00 -5.75365E-02
    9097.086     98.837   5.320  9.57088E-01  1.00903E+00 -5.19407E-02
    9098.714    100.465   5.360  9.63153E-01  1.00922E+00 -4.60649E-02
    9100.354    102.105   5.400  9.68215E-01  1.00939E+00 -4.11734E-02
    9102.006    103.757   5.440  9.71012E-01  1.00952E+00 -3.85051E-02
    9103.670    105.421   5.480  9.70572E-01  1.00960E+00 -3.90297E-02
    9105.346    107.097   5.520  9.66619E-01  1.00962E+00 -4.29995E-02
    9107.035    108.786   5.560  9.60106E-01  1.00959E+00 -4.94842E-02
    9108.736    110.487   5.600  9.53105E-01  1.00952E+00 -5.64139E-02
    9110.449    112.200   5.640  9.48179E-01  1.00941E+00 -6.12271E-02
    9112.174    113.925   5.680  9.47658E-01  1.00925E+00 -6.15924E-02
    9113.911    115.662   5.720  9.53050E-01  1.00905E+00 -5.60024E-02
    9115.661    117.412   5.760  9.64540E-01  1.00879E+00 -4.42482E-02
    9117.423    119.173   5.800  9.80597E-01  1.00851E+00 -2.79093E-02
    9119.197    120.947   5.840  9.97733E-01  1.00816E+00 -1.04308E-02
    9120.983    122.733   5.880  1.01189E+00  1.00781E+00  4.07752E-03
    9122.781    124.532   5.920  1.02067E+00  1.00742E+00  1.32531E-02
    9124.591    126.342   5.960  1.02432E+00  1.00696E+00  1.73537E-02
    9126.414    128.165   6.000  1.02555E+00  1.00647E+00  1.90746E-02
