# # comment:                                                     FEFF 9.9.1  
# # Source:
# # Structure
# # Reduced
# # space
# # abc:
# # angles:
# # sites:
# # POT  SCF 100  7.0000   0, screened core-hole, AFOLP (folp(0)= 1.150)
# # Abs   Z=29 Rmt= 1.234 Rnm= 1.298 K  shell
# # Pot 1 Z= 3 Rmt= 1.274 Rnm= 1.326
# # Pot 2 Z=29 Rmt= 1.234 Rnm= 1.298
# # Pot 3 Z= 8 Rmt= 1.076 Rnm= 1.127
# # Gam_ch=1.729E+00 H-L exch Vi= 0.000E+00 Vr= 0.000E+00
# # Mu=-8.589E+00eV kf=2.080E+00 Vint=-1.633E+01eV Rs_int= 1.744
# FMS rfms= 9.0000
# # PATH  Rmax=-1.000,  Keep_limit= 0.00, Heap_limit 0.00  Pwcrit= 2.50%
#  S02=0.950  Temp=   0.00  Debye_temp=   0.00  Global_sig2= 0.00000
#  Energy zero shift, vr, vi    0.00000E+00   0.00000E+00
#  Curved wave amplitude ratio filter   4.000%
#     file         sig2 tot  cw amp ratio   deg  nlegs   reff  inp sig2
#     0/   0 paths used
#  xsedge+ 50, used to normalize mu           2.4529E-04
#  -----------------------------------------------------------------------
#  omega    e    k    mu    mu0     chi     @#
    8984.120    -12.399  -1.000  2.81644E-02  5.09687E-02 -2.28043E-02
    8984.418    -12.100  -0.960  2.91816E-02  5.45755E-02 -2.53939E-02
    8984.705    -11.813  -0.920  3.02396E-02  5.85746E-02 -2.83350E-02
    8984.979    -11.539  -0.880  3.13412E-02  6.30229E-02 -3.16817E-02
    8985.241    -11.277  -0.840  3.24896E-02  6.79867E-02 -3.54970E-02
    8985.491    -11.027  -0.800  3.36889E-02  7.35423E-02 -3.98535E-02
    8985.729    -10.789  -0.760  3.49435E-02  7.97776E-02 -4.48341E-02
    8985.954    -10.564  -0.720  3.62588E-02  8.67915E-02 -5.05327E-02
    8986.168    -10.350  -0.680  3.76408E-02  9.46929E-02 -5.70521E-02
    8986.369    -10.149  -0.640  3.90957E-02  1.03596E-01 -6.45007E-02
    8986.558     -9.960  -0.600  4.06294E-02  1.13614E-01 -7.29849E-02
    8986.735     -9.784  -0.560  4.22460E-02  1.24842E-01 -8.25963E-02
    8986.899     -9.619  -0.520  4.39459E-02  1.37336E-01 -9.33906E-02
    8987.052     -9.467  -0.480  4.57230E-02  1.51083E-01 -1.05360E-01
    8987.192     -9.326  -0.440  4.75617E-02  1.65960E-01 -1.18399E-01
    8987.320     -9.198  -0.400  4.94340E-02  1.81714E-01 -1.32280E-01
    8987.436     -9.082  -0.360  5.12996E-02  1.97940E-01 -1.46640E-01
    8987.539     -8.979  -0.320  5.31090E-02  2.14116E-01 -1.61007E-01
    8987.631     -8.887  -0.280  5.48099E-02  2.29661E-01 -1.74851E-01
    8987.710     -8.808  -0.240  5.63550E-02  2.44016E-01 -1.87661E-01
    8987.777     -8.741  -0.200  5.77071E-02  2.56708E-01 -1.99001E-01
    8987.832     -8.686  -0.160  5.88412E-02  2.67393E-01 -2.08552E-01
    8987.875     -8.644  -0.120  5.97424E-02  2.75845E-01 -2.16102E-01
    8987.905     -8.613  -0.080  6.04022E-02  2.81937E-01 -2.21535E-01
    8987.930     -8.589   0.000  6.09606E-02  2.86836E-01 -2.25875E-01
    8987.984     -8.534   0.120  6.21946E-02  2.97871E-01 -2.35677E-01
    8988.027     -8.491   0.160  6.31123E-02  3.06476E-01 -2.43363E-01
    8988.082     -8.436   0.200  6.42435E-02  3.17480E-01 -2.53236E-01
    8988.149     -8.369   0.240  6.55789E-02  3.30728E-01 -2.65149E-01
    8988.228     -8.290   0.280  6.70592E-02  3.45973E-01 -2.78913E-01
    8988.320     -8.199   0.320  6.86975E-02  3.62874E-01 -2.94176E-01
    8988.423     -8.095   0.360  7.04079E-02  3.80936E-01 -3.10528E-01
    8988.539     -7.979   0.400  7.22166E-02  3.99717E-01 -3.27500E-01
    8988.667     -7.851   0.440  7.40785E-02  4.18710E-01 -3.44631E-01
    8988.807     -7.711   0.480  7.60344E-02  4.37614E-01 -3.61579E-01
    8988.960     -7.558   0.520  7.81091E-02  4.56171E-01 -3.78062E-01
    8989.124     -7.394   0.560  8.03566E-02  4.74257E-01 -3.93901E-01
    8989.301     -7.217   0.600  8.28387E-02  4.91883E-01 -4.09045E-01
    8989.490     -7.028   0.640  8.56287E-02  5.09079E-01 -4.23450E-01
    8989.691     -6.827   0.680  8.87980E-02  5.25901E-01 -4.37103E-01
    8989.905     -6.614   0.720  9.24098E-02  5.42418E-01 -4.50008E-01
    8990.130     -6.388   0.760  9.65847E-02  5.58700E-01 -4.62115E-01
    8990.368     -6.150   0.800  1.01465E-01  5.74824E-01 -4.73360E-01
    8990.618     -5.900   0.840  1.07237E-01  5.90818E-01 -4.83581E-01
    8990.880     -5.638   0.880  1.14193E-01  6.06717E-01 -4.92525E-01
    8991.154     -5.364   0.920  1.22715E-01  6.22563E-01 -4.99849E-01
    8991.441     -5.077   0.960  1.33389E-01  6.38349E-01 -5.04959E-01
    8991.740     -4.779   1.000  1.47033E-01  6.54076E-01 -5.07042E-01
    8992.050     -4.468   1.040  1.64757E-01  6.69740E-01 -5.04983E-01
    8992.374     -4.145   1.080  1.88047E-01  6.85329E-01 -4.97282E-01
    8992.709     -3.809   1.120  2.19062E-01  7.00805E-01 -4.81743E-01
    8993.056     -3.462   1.160  2.60586E-01  7.16167E-01 -4.55582E-01
    8993.416     -3.102   1.200  3.12406E-01  7.31348E-01 -4.18941E-01
    8993.788     -2.730   1.240  3.63372E-01  7.46339E-01 -3.82967E-01
    8994.172     -2.346   1.280  3.95185E-01  7.61111E-01 -3.65926E-01
    8994.568     -1.950   1.320  4.08257E-01  7.75611E-01 -3.67354E-01
    8994.976     -1.542   1.360  4.22489E-01  7.89829E-01 -3.67339E-01
    8995.397     -1.121   1.400  4.48733E-01  8.03709E-01 -3.54976E-01
    8995.830     -0.688   1.440  4.81275E-01  8.17221E-01 -3.35946E-01
    8996.275     -0.243   1.480  5.13643E-01  8.30352E-01 -3.16710E-01
    8996.732      0.214   1.520  5.50194E-01  8.43050E-01 -2.92856E-01
    8997.202      0.683   1.560  6.02950E-01  8.55325E-01 -2.52375E-01
    8997.683      1.165   1.600  6.81711E-01  8.67129E-01 -1.85418E-01
    8998.177      1.659   1.640  7.85921E-01  8.78453E-01 -9.25319E-02
    8998.683      2.165   1.680  9.13133E-01  8.89268E-01  2.38646E-02
    8999.201      2.683   1.720  1.06065E+00  8.99572E-01  1.61073E-01
    8999.731      3.213   1.760  1.22780E+00  9.09341E-01  3.18456E-01
    9000.274      3.756   1.800  1.40481E+00  9.18591E-01  4.86221E-01
    9000.829      4.310   1.840  1.56822E+00  9.27324E-01  6.40897E-01
    9001.396      4.877   1.880  1.69482E+00  9.35520E-01  7.59299E-01
    9001.975      5.456   1.920  1.78413E+00  9.43179E-01  8.40952E-01
    9002.566      6.048   1.960  1.86432E+00  9.50327E-01  9.13997E-01
    9003.169      6.651   2.000  1.93776E+00  9.56947E-01  9.80817E-01
    9003.785      7.267   2.040  1.93822E+00  9.63064E-01  9.75154E-01
    9004.413      7.895   2.080  1.79431E+00  9.68687E-01  8.25622E-01
    9005.053      8.535   2.120  1.55204E+00  9.73844E-01  5.78195E-01
    9005.705      9.187   2.160  1.32544E+00  9.78542E-01  3.46901E-01
    9006.370      9.852   2.200  1.16471E+00  9.82791E-01  1.81918E-01
    9007.047     10.528   2.240  1.05960E+00  9.86619E-01  7.29769E-02
    9007.735     11.217   2.280  9.87090E-01  9.90035E-01 -2.94559E-03
    9008.436     11.918   2.320  9.31200E-01  9.93052E-01 -6.18521E-02
    9009.150     12.631   2.360  8.86621E-01  9.95720E-01 -1.09099E-01
    9009.875     13.357   2.400  8.53736E-01  9.98028E-01 -1.44292E-01
    9010.613     14.094   2.440  8.31154E-01  1.00003E+00 -1.68874E-01
    9011.362     14.844   2.480  8.19872E-01  1.00171E+00 -1.81840E-01
    9012.124     15.606   2.520  8.32334E-01  1.00311E+00 -1.70774E-01
    9012.899     16.380   2.560  8.60196E-01  1.00425E+00 -1.44053E-01
    9013.685     17.167   2.600  8.99793E-01  1.00514E+00 -1.05350E-01
    9014.484     17.965   2.640  9.47119E-01  1.00582E+00 -5.87034E-02
    9015.294     18.776   2.680  9.96448E-01  1.00628E+00 -9.82764E-03
    9016.117     19.599   2.720  1.03762E+00  1.00657E+00  3.10442E-02
    9016.952     20.434   2.760  1.06127E+00  1.00668E+00  5.45898E-02
    9017.800     21.282   2.800  1.06254E+00  1.00663E+00  5.59081E-02
    9018.659     22.141   2.840  1.04187E+00  1.00648E+00  3.53952E-02
    9019.531     23.013   2.880  1.00428E+00  1.00620E+00 -1.91614E-03
    9020.415     23.897   2.920  9.56944E-01  1.00581E+00 -4.88639E-02
    9021.311     24.793   2.960  9.08595E-01  1.00533E+00 -9.67346E-02
    9022.219     25.701   3.000  8.66125E-01  1.00477E+00 -1.38645E-01
    9023.140     26.622   3.040  8.32219E-01  1.00416E+00 -1.71940E-01
    9024.073     27.554   3.080  8.07362E-01  1.00350E+00 -1.96139E-01
    9025.017     28.499   3.120  7.91382E-01  1.00278E+00 -2.11399E-01
    9025.975     29.456   3.160  7.83675E-01  1.00204E+00 -2.18370E-01
    9026.944     30.426   3.200  7.83653E-01  1.00130E+00 -2.17648E-01
    9027.925     31.407   3.240  7.91341E-01  1.00055E+00 -2.09210E-01
    9028.919     32.401   3.280  8.05865E-01  9.99777E-01 -1.93912E-01
    9029.925     33.406   3.320  8.26237E-01  9.99028E-01 -1.72791E-01
    9030.943     34.424   3.360  8.49909E-01  9.98284E-01 -1.48375E-01
    9031.973     35.455   3.400  8.72684E-01  9.97569E-01 -1.24884E-01
    9033.015     36.497   3.440  8.90550E-01  9.96865E-01 -1.06315E-01
    9034.070     37.552   3.480  9.02013E-01  9.96196E-01 -9.41834E-02
    9035.137     38.619   3.520  9.08350E-01  9.95565E-01 -8.72152E-02
    9036.216     39.697   3.560  9.12329E-01  9.94974E-01 -8.26452E-02
    9037.307     40.789   3.600  9.17123E-01  9.94446E-01 -7.73225E-02
    9038.410     41.892   3.640  9.25381E-01  9.93940E-01 -6.85589E-02
    9039.526     43.008   3.680  9.38958E-01  9.93496E-01 -5.45385E-02
    9040.654     44.135   3.720  9.58765E-01  9.93077E-01 -3.43124E-02
    9041.794     45.275   3.760  9.84729E-01  9.92745E-01 -8.01603E-03
    9042.946     46.427   3.800  1.01522E+00  9.92438E-01  2.27827E-02
    9044.110     47.592   3.840  1.04734E+00  9.92199E-01  5.51443E-02
    9045.287     48.768   3.880  1.07786E+00  9.92006E-01  8.58525E-02
    9046.475     49.957   3.920  1.10474E+00  9.91882E-01  1.12858E-01
    9047.676     51.158   3.960  1.12757E+00  9.91805E-01  1.35769E-01
    9048.889     52.371   4.000  1.14694E+00  9.91773E-01  1.55170E-01
    9050.115     53.596   4.040  1.16295E+00  9.91810E-01  1.71135E-01
    9051.352     54.834   4.080  1.17486E+00  9.91894E-01  1.82963E-01
    9052.602     56.083   4.120  1.18185E+00  9.92043E-01  1.89811E-01
    9053.864     57.345   4.160  1.18314E+00  9.92215E-01  1.90927E-01
    9055.138     58.619   4.200  1.17777E+00  9.92451E-01  1.85314E-01
    9056.424     59.906   4.240  1.16478E+00  9.92728E-01  1.72049E-01
    9057.722     61.204   4.280  1.14459E+00  9.93045E-01  1.51546E-01
    9059.033     62.515   4.320  1.11929E+00  9.93380E-01  1.25906E-01
    9060.356     63.838   4.360  1.09207E+00  9.93775E-01  9.82944E-02
    9061.691     65.173   4.400  1.06615E+00  9.94207E-01  7.19384E-02
    9063.038     66.520   4.440  1.04379E+00  9.94655E-01  4.91361E-02
    9064.397     67.879   4.480  1.02581E+00  9.95159E-01  3.06527E-02
    9065.769     69.251   4.520  1.01126E+00  9.95652E-01  1.56047E-02
    9067.153     70.635   4.560  9.98281E-01  9.96198E-01  2.08268E-03
    9068.549     72.031   4.600  9.85081E-01  9.96752E-01 -1.16712E-02
    9069.957     73.439   4.640  9.71087E-01  9.97310E-01 -2.62226E-02
    9071.377     74.859   4.680  9.57066E-01  9.97873E-01 -4.08064E-02
    9072.810     76.292   4.720  9.44502E-01  9.98462E-01 -5.39598E-02
    9074.255     77.736   4.760  9.34755E-01  9.99052E-01 -6.42978E-02
    9075.712     79.193   4.800  9.28586E-01  9.99640E-01 -7.10547E-02
    9077.181     80.662   4.840  9.25881E-01  1.00020E+00 -7.43237E-02
    9078.662     82.144   4.880  9.25899E-01  1.00079E+00 -7.48882E-02
    9080.156     83.637   4.920  9.27609E-01  1.00134E+00 -7.37345E-02
    9081.661     85.143   4.960  9.30421E-01  1.00189E+00 -7.14716E-02
    9083.179     86.661   5.000  9.34482E-01  1.00243E+00 -6.79525E-02
    9084.709     88.191   5.040  9.40260E-01  1.00295E+00 -6.26865E-02
    9086.252     89.733   5.080  9.48092E-01  1.00345E+00 -5.53544E-02
    9087.806     91.288   5.120  9.57695E-01  1.00391E+00 -4.62192E-02
    9089.373     92.854   5.160  9.68454E-01  1.00437E+00 -3.59150E-02
    9090.952     94.433   5.200  9.79726E-01  1.00476E+00 -2.50378E-02
    9092.543     96.024   5.240  9.90927E-01  1.00514E+00 -1.42169E-02
    9094.146     97.628   5.280  1.00126E+00  1.00551E+00 -4.25312E-03
    9095.761     99.243   5.320  1.00953E+00  1.00581E+00  3.71493E-03
    9097.389    100.871   5.360  1.01471E+00  1.00607E+00  8.63955E-03
    9099.029    102.510   5.400  1.01628E+00  1.00630E+00  9.98466E-03
    9100.681    104.162   5.440  1.01436E+00  1.00650E+00  7.86235E-03
    9102.345    105.827   5.480  1.00963E+00  1.00664E+00  2.98856E-03
    9104.021    107.503   5.520  1.00359E+00  1.00674E+00 -3.14368E-03
    9105.710    109.192   5.560  9.98188E-01  1.00682E+00 -8.62758E-03
    9107.411    110.892   5.600  9.94717E-01  1.00683E+00 -1.21139E-02
    9109.124    112.605   5.640  9.93163E-01  1.00680E+00 -1.36380E-02
    9110.849    114.331   5.680  9.91968E-01  1.00673E+00 -1.47609E-02
    9112.586    116.068   5.720  9.88490E-01  1.00661E+00 -1.81244E-02
    9114.336    117.817   5.760  9.80191E-01  1.00643E+00 -2.62438E-02
    9116.097    119.579   5.800  9.66276E-01  1.00624E+00 -3.99633E-02
    9117.871    121.353   5.840  9.48346E-01  1.00601E+00 -5.76600E-02
    9119.657    123.139   5.880  9.29902E-01  1.00573E+00 -7.58303E-02
    9121.456    124.938   5.920  9.15149E-01  1.00540E+00 -9.02489E-02
    9123.266    126.748   5.960  9.08295E-01  1.00505E+00 -9.67560E-02
    9125.089    128.571   6.000  9.13593E-01  1.00464E+00 -9.10481E-02
