# # comment:                                                     FEFF 9.9.1  
# # Source:
# # Structure
# # Reduced
# # space
# # abc:
# # angles:
# # sites:
# # POT  SCF 100  7.0000   0, screened core-hole, AFOLP (folp(0)= 1.150)
# # Abs   Z=29 Rmt= 1.303 Rnm= 1.347 K  shell
# # Pot 1 Z=12 Rmt= 1.358 Rnm= 1.423
# # Pot 2 Z=29 Rmt= 1.304 Rnm= 1.348
# # Pot 3 Z=14 Rmt= 1.298 Rnm= 1.379
# # Pot 4 Z= 8 Rmt= 1.044 Rnm= 1.096
# # Gam_ch=1.729E+00 H-L exch Vi= 0.000E+00 Vr= 0.000E+00
# # Mu=-8.896E+00eV kf=2.090E+00 Vint=-2.083E+01eV Rs_int= 1.736
# FMS rfms= 9.0000
# # PATH  Rmax=-1.000,  Keep_limit= 0.00, Heap_limit 0.00  Pwcrit= 2.50%
#  S02=0.950  Temp=   0.00  Debye_temp=   0.00  Global_sig2= 0.00000
#  Energy zero shift, vr, vi    0.00000E+00   0.00000E+00
#  Curved wave amplitude ratio filter   4.000%
#     file         sig2 tot  cw amp ratio   deg  nlegs   reff  inp sig2
#     0/   0 paths used
#  xsedge+ 50, used to normalize mu           2.4621E-04
#  -----------------------------------------------------------------------
#  omega    e    k    mu    mu0     chi     @#
    8985.973    -12.706  -1.000  6.32543E-02  5.89010E-02  4.35335E-03
    8986.271    -12.407  -0.960  6.79099E-02  6.33445E-02  4.56532E-03
    8986.558    -12.121  -0.920  7.30621E-02  6.82981E-02  4.76409E-03
    8986.832    -11.846  -0.880  7.87781E-02  7.38381E-02  4.94000E-03
    8987.094    -11.584  -0.840  8.51341E-02  8.00541E-02  5.07995E-03
    8987.344    -11.334  -0.800  9.22163E-02  8.70499E-02  5.16646E-03
    8987.582    -11.097  -0.760  1.00121E-01  9.49447E-02  5.17667E-03
    8987.808    -10.871  -0.720  1.08955E-01  1.03874E-01  5.08140E-03
    8988.021    -10.658  -0.680  1.18831E-01  1.13986E-01  4.84472E-03
    8988.222    -10.456  -0.640  1.29864E-01  1.25439E-01  4.42456E-03
    8988.411    -10.268  -0.600  1.42164E-01  1.38388E-01  3.77553E-03
    8988.588    -10.091  -0.560  1.55823E-01  1.52968E-01  2.85518E-03
    8988.752     -9.926  -0.520  1.70892E-01  1.69257E-01  1.63512E-03
    8988.905     -9.774  -0.480  1.87358E-01  1.87241E-01  1.17220E-04
    8989.045     -9.634  -0.440  2.05114E-01  2.06762E-01 -1.64793E-03
    8989.173     -9.506  -0.400  2.23927E-01  2.27475E-01 -3.54748E-03
    8989.289     -9.390  -0.360  2.43427E-01  2.48836E-01 -5.40906E-03
    8989.392     -9.286  -0.320  2.63114E-01  2.70143E-01 -7.02880E-03
    8989.484     -9.195  -0.280  2.82390E-01  2.90611E-01 -8.22182E-03
    8989.563     -9.115  -0.240  3.00617E-01  3.09494E-01 -8.87699E-03
    8989.630     -9.048  -0.200  3.17175E-01  3.26166E-01 -8.99110E-03
    8989.685     -8.993  -0.160  3.31509E-01  3.40175E-01 -8.66670E-03
    8989.728     -8.951  -0.120  3.43162E-01  3.51238E-01 -8.07652E-03
    8989.758     -8.920  -0.080  3.51785E-01  3.59201E-01 -7.41640E-03
    8989.783     -8.896   0.000  3.58962E-01  3.65594E-01 -6.63179E-03
    8989.838     -8.841   0.120  3.74842E-01  3.79985E-01 -5.14323E-03
    8989.880     -8.798   0.160  3.87547E-01  3.91161E-01 -3.61440E-03
    8989.935     -8.744   0.200  4.04305E-01  4.05391E-01 -1.08602E-03
    8990.002     -8.676   0.240  4.25453E-01  4.22455E-01  2.99808E-03
    8990.081     -8.597   0.280  4.51269E-01  4.41974E-01  9.29509E-03
    8990.173     -8.506   0.320  4.81957E-01  4.63404E-01  1.85527E-02
    8990.276     -8.402   0.360  5.17517E-01  4.86074E-01  3.14436E-02
    8990.392     -8.286   0.400  5.57530E-01  5.09250E-01  4.82797E-02
    8990.520     -8.158   0.440  6.00770E-01  5.32266E-01  6.85043E-02
    8990.660     -8.018   0.480  6.44764E-01  5.54642E-01  9.01220E-02
    8990.813     -7.866   0.520  6.85330E-01  5.76040E-01  1.09290E-01
    8990.977     -7.701   0.560  7.17292E-01  5.96295E-01  1.20996E-01
    8991.154     -7.524   0.600  7.37037E-01  6.15414E-01  1.21623E-01
    8991.343     -7.335   0.640  7.45648E-01  6.33432E-01  1.12216E-01
    8991.544     -7.134   0.680  7.49520E-01  6.50449E-01  9.90711E-02
    8991.758     -6.921   0.720  7.56474E-01  6.66623E-01  8.98517E-02
    8991.983     -6.695   0.760  7.70056E-01  6.82051E-01  8.80047E-02
    8992.221     -6.458   0.800  7.86264E-01  6.96863E-01  8.94019E-02
    8992.471     -6.208   0.840  7.95095E-01  7.11170E-01  8.39247E-02
    8992.733     -5.945   0.880  7.87121E-01  7.25009E-01  6.21123E-02
    8993.007     -5.671   0.920  7.60797E-01  7.38499E-01  2.22979E-02
    8993.294     -5.385   0.960  7.24805E-01  7.51646E-01 -2.68405E-02
    8993.593     -5.086   1.000  6.94469E-01  7.64503E-01 -7.00337E-02
    8993.904     -4.775   1.040  6.83054E-01  7.77093E-01 -9.40395E-02
    8994.227     -4.452   1.080  6.94409E-01  7.89448E-01 -9.50386E-02
    8994.562     -4.117   1.120  7.22161E-01  8.01554E-01 -7.93927E-02
    8994.909     -3.769   1.160  7.55987E-01  8.13430E-01 -5.74428E-02
    8995.269     -3.410   1.200  7.89204E-01  8.25068E-01 -3.58645E-02
    8995.641     -3.038   1.240  8.16118E-01  8.36479E-01 -2.03611E-02
    8996.025     -2.654   1.280  8.31115E-01  8.47609E-01 -1.64944E-02
    8996.421     -2.257   1.320  8.51101E-01  8.58481E-01 -7.38052E-03
    8996.830     -1.849   1.360  9.09385E-01  8.69077E-01  4.03078E-02
    8997.250     -1.428   1.400  1.02687E+00  8.79397E-01  1.47470E-01
    8997.683     -0.996   1.440  1.20518E+00  8.89396E-01  3.15785E-01
    8998.128     -0.551   1.480  1.43058E+00  8.99076E-01  5.31507E-01
    8998.585     -0.093   1.520  1.68652E+00  9.08412E-01  7.78111E-01
    8999.055      0.376   1.560  1.93588E+00  9.17401E-01  1.01848E+00
    8999.536      0.858   1.600  2.06794E+00  9.26042E-01  1.14190E+00
    9000.030      1.351   1.640  1.97775E+00  9.34313E-01  1.04344E+00
    9000.536      1.857   1.680  1.72458E+00  9.42209E-01  7.82372E-01
    9001.054      2.376   1.720  1.45346E+00  9.49711E-01  5.03751E-01
    9001.584      2.906   1.760  1.23724E+00  9.56816E-01  2.80421E-01
    9002.127      3.448   1.800  1.08302E+00  9.63523E-01  1.19499E-01
    9002.682      4.003   1.840  9.82923E-01  9.69834E-01  1.30895E-02
    9003.249      4.570   1.880  9.18598E-01  9.75748E-01 -5.71505E-02
    9003.828      5.149   1.920  8.86664E-01  9.81249E-01 -9.45847E-02
    9004.419      5.741   1.960  8.93238E-01  9.86379E-01 -9.31404E-02
    9005.023      6.344   2.000  9.25811E-01  9.91099E-01 -6.52885E-02
    9005.638      6.960   2.040  9.61657E-01  9.95414E-01 -3.37572E-02
    9006.266      7.588   2.080  9.90230E-01  9.99368E-01 -9.13838E-03
    9006.906      8.228   2.120  1.01818E+00  1.00297E+00  1.52172E-02
    9007.558      8.880   2.160  1.04890E+00  1.00618E+00  4.27235E-02
    9008.223      9.544   2.200  1.06731E+00  1.00904E+00  5.82722E-02
    9008.900     10.221   2.240  1.05960E+00  1.01159E+00  4.80073E-02
    9009.588     10.910   2.280  1.02748E+00  1.01379E+00  1.36901E-02
    9010.289     11.611   2.320  9.78477E-01  1.01568E+00 -3.72060E-02
    9011.003     12.324   2.360  9.15530E-01  1.01728E+00 -1.01752E-01
    9011.728     13.050   2.400  8.43974E-01  1.01859E+00 -1.74619E-01
    9012.466     13.787   2.440  7.77075E-01  1.01965E+00 -2.42570E-01
    9013.216     14.537   2.480  7.25405E-01  1.02044E+00 -2.95040E-01
    9013.978     15.299   2.520  7.03247E-01  1.02100E+00 -3.17754E-01
    9014.752     16.073   2.560  6.97857E-01  1.02132E+00 -3.23463E-01
    9015.538     16.860   2.600  7.02915E-01  1.02145E+00 -3.18538E-01
    9016.337     17.658   2.640  7.14290E-01  1.02141E+00 -3.07118E-01
    9017.147     18.469   2.680  7.29913E-01  1.02117E+00 -2.91259E-01
    9017.970     19.292   2.720  7.49086E-01  1.02077E+00 -2.71685E-01
    9018.806     20.127   2.760  7.71139E-01  1.02023E+00 -2.49096E-01
    9019.653     20.974   2.800  7.95855E-01  1.01957E+00 -2.23716E-01
    9020.512     21.834   2.840  8.23449E-01  1.01879E+00 -1.95336E-01
    9021.384     22.706   2.880  8.53800E-01  1.01789E+00 -1.64085E-01
    9022.268     23.590   2.920  8.86533E-01  1.01692E+00 -1.30386E-01
    9023.164     24.486   2.960  9.20826E-01  1.01587E+00 -9.50475E-02
    9024.072     25.394   3.000  9.55336E-01  1.01475E+00 -5.94176E-02
    9024.993     26.314   3.040  9.88501E-01  1.01358E+00 -2.50838E-02
    9025.926     27.247   3.080  1.02009E+00  1.01237E+00  7.71301E-03
    9026.871     28.192   3.120  1.05039E+00  1.01115E+00  3.92376E-02
    9027.828     29.149   3.160  1.07973E+00  1.00989E+00  6.98346E-02
    9028.797     30.118   3.200  1.10869E+00  1.00863E+00  1.00067E-01
    9029.778     31.100   3.240  1.13784E+00  1.00736E+00  1.30478E-01
    9030.772     32.093   3.280  1.16793E+00  1.00609E+00  1.61835E-01
    9031.778     33.099   3.320  1.19986E+00  1.00484E+00  1.95025E-01
    9032.796     34.117   3.360  1.23373E+00  1.00363E+00  2.30108E-01
    9033.826     35.147   3.400  1.26709E+00  1.00243E+00  2.64663E-01
    9034.868     36.190   3.440  1.29459E+00  1.00125E+00  2.93333E-01
    9035.923     37.245   3.480  1.30779E+00  1.00013E+00  3.07655E-01
    9036.990     38.311   3.520  1.29937E+00  9.99056E-01  3.00318E-01
    9038.069     39.390   3.560  1.26706E+00  9.98044E-01  2.69016E-01
    9039.160     40.481   3.600  1.21539E+00  9.97058E-01  2.18332E-01
    9040.263     41.585   3.640  1.15325E+00  9.96162E-01  1.57086E-01
    9041.379     42.700   3.680  1.08931E+00  9.95295E-01  9.40142E-02
    9042.507     43.828   3.720  1.03004E+00  9.94520E-01  3.55169E-02
    9043.647     44.968   3.760  9.78940E-01  9.93796E-01 -1.48562E-02
    9044.799     46.120   3.800  9.37756E-01  9.93124E-01 -5.53687E-02
    9045.963     47.285   3.840  9.07407E-01  9.92549E-01 -8.51417E-02
    9047.140     48.461   3.880  8.87928E-01  9.92027E-01 -1.04099E-01
    9048.328     49.650   3.920  8.78365E-01  9.91580E-01 -1.13215E-01
    9049.529     50.851   3.960  8.76529E-01  9.91186E-01 -1.14658E-01
    9050.742     52.064   4.000  8.79571E-01  9.90889E-01 -1.11318E-01
    9051.968     53.289   4.040  8.84452E-01  9.90646E-01 -1.06194E-01
    9053.205     54.527   4.080  8.89506E-01  9.90475E-01 -1.00969E-01
    9054.455     55.776   4.120  8.94828E-01  9.90358E-01 -9.55297E-02
    9055.717     57.038   4.160  9.01526E-01  9.90313E-01 -8.87870E-02
    9056.991     58.312   4.200  9.10271E-01  9.90340E-01 -8.00689E-02
    9058.277     59.598   4.240  9.20590E-01  9.90418E-01 -6.98275E-02
    9059.575     60.897   4.280  9.31480E-01  9.90565E-01 -5.90855E-02
    9060.886     62.208   4.320  9.42317E-01  9.90759E-01 -4.84427E-02
    9062.209     63.530   4.360  9.53082E-01  9.91000E-01 -3.79174E-02
    9063.544     64.865   4.400  9.63852E-01  9.91307E-01 -2.74544E-02
    9064.891     66.213   4.440  9.74320E-01  9.91656E-01 -1.73362E-02
    9066.251     67.572   4.480  9.83850E-01  9.92047E-01 -8.19699E-03
    9067.622     68.944   4.520  9.91386E-01  9.92476E-01 -1.09064E-03
    9069.006     70.327   4.560  9.95633E-01  9.92921E-01  2.71232E-03
    9070.402     71.723   4.600  9.95846E-01  9.93423E-01  2.42266E-03
    9071.810     73.132   4.640  9.92438E-01  9.93939E-01 -1.50082E-03
    9073.230     74.552   4.680  9.87282E-01  9.94487E-01 -7.20508E-03
    9074.663     75.984   4.720  9.83006E-01  9.95066E-01 -1.20604E-02
    9076.108     77.429   4.760  9.82275E-01  9.95628E-01 -1.33530E-02
    9077.565     78.886   4.800  9.87574E-01  9.96218E-01 -8.64335E-03
    9079.034     80.355   4.840  1.00094E+00  9.96832E-01  4.10851E-03
    9080.515     81.837   4.880  1.02327E+00  9.97424E-01  2.58501E-02
    9082.009     83.330   4.920  1.05270E+00  9.98013E-01  5.46908E-02
    9083.514     84.836   4.960  1.08279E+00  9.98598E-01  8.41922E-02
    9085.032     86.354   5.000  1.10319E+00  9.99178E-01  1.04008E-01
    9086.562     87.884   5.040  1.10445E+00  9.99728E-01  1.04721E-01
    9088.105     89.426   5.080  1.08454E+00  1.00027E+00  8.42752E-02
    9089.659     90.981   5.120  1.05019E+00  1.00078E+00  4.94172E-02
    9091.226     92.547   5.160  1.01180E+00  1.00127E+00  1.05276E-02
    9092.805     94.126   5.200  9.77372E-01  1.00173E+00 -2.43600E-02
    9094.396     95.717   5.240  9.50508E-01  1.00216E+00 -5.16481E-02
    9095.999     97.320   5.280  9.31449E-01  1.00256E+00 -7.11127E-02
    9097.614     98.936   5.320  9.19132E-01  1.00291E+00 -8.37739E-02
    9099.242    100.563   5.360  9.12965E-01  1.00321E+00 -9.02427E-02
    9100.882    102.203   5.400  9.13229E-01  1.00349E+00 -9.02613E-02
    9102.534    103.855   5.440  9.20917E-01  1.00371E+00 -8.27909E-02
    9104.198    105.519   5.480  9.37267E-01  1.00388E+00 -6.66117E-02
    9105.874    107.196   5.520  9.62474E-01  1.00398E+00 -4.15081E-02
    9107.563    108.884   5.560  9.94332E-01  1.00406E+00 -9.73188E-03
    9109.264    110.585   5.600  1.02781E+00  1.00408E+00  2.37355E-02
    9110.977    112.298   5.640  1.05745E+00  1.00405E+00  5.33992E-02
    9112.702    114.023   5.680  1.07992E+00  1.00397E+00  7.59486E-02
    9114.439    115.761   5.720  1.09371E+00  1.00383E+00  8.98838E-02
    9116.189    117.510   5.760  1.09719E+00  1.00366E+00  9.35284E-02
    9117.951    119.272   5.800  1.08931E+00  1.00341E+00  8.58982E-02
    9119.724    121.046   5.840  1.07255E+00  1.00314E+00  6.94112E-02
    9121.511    122.832   5.880  1.05259E+00  1.00282E+00  4.97651E-02
    9123.309    124.630   5.920  1.03481E+00  1.00244E+00  3.23652E-02
    9125.119    126.441   5.960  1.02166E+00  1.00202E+00  1.96319E-02
    9126.942    128.264   6.000  1.01278E+00  1.00153E+00  1.12527E-02
