# # comment:                                                     FEFF 9.9.1  
# # Source:
# # Structure
# # Reduced
# # space
# # abc:
# # angles:106.217321
# # sites:
# # POT  SCF 100  7.0000   0, screened core-hole, AFOLP (folp(0)= 1.150)
# # Abs   Z=29 Rmt= 1.218 Rnm= 1.306 K  shell
# # Pot 1 Z=23 Rmt= 1.101 Rnm= 1.315
# # Pot 2 Z=29 Rmt= 1.213 Rnm= 1.312
# # Pot 3 Z= 8 Rmt= 0.946 Rnm= 1.095
# # Gam_ch=1.729E+00 H-L exch Vi= 0.000E+00 Vr= 0.000E+00
# # Mu=-8.700E+00eV kf=2.232E+00 Vint=-1.702E+01eV Rs_int= 1.625
# FMS rfms= 9.0000
# # PATH  Rmax=-1.000,  Keep_limit= 0.00, Heap_limit 0.00  Pwcrit= 2.50%
#  S02=0.950  Temp=   0.00  Debye_temp=   0.00  Global_sig2= 0.00000
#  Energy zero shift, vr, vi    0.00000E+00   0.00000E+00
#  Curved wave amplitude ratio filter   4.000%
#     file         sig2 tot  cw amp ratio   deg  nlegs   reff  inp sig2
#     0/   0 paths used
#  xsedge+ 50, used to normalize mu           2.4679E-04
#  -----------------------------------------------------------------------
#  omega    e    k    mu    mu0     chi     @#
    8984.024    -12.510  -1.000  3.49231E-02  5.10032E-02 -1.60800E-02
    8984.323    -12.212  -0.960  3.67082E-02  5.46295E-02 -1.79212E-02
    8984.610    -11.925  -0.920  3.86317E-02  5.86527E-02 -2.00210E-02
    8984.884    -11.651  -0.880  4.07092E-02  6.31306E-02 -2.24214E-02
    8985.146    -11.389  -0.840  4.29585E-02  6.81306E-02 -2.51721E-02
    8985.396    -11.139  -0.800  4.53996E-02  7.37307E-02 -2.83311E-02
    8985.634    -10.901  -0.760  4.80544E-02  8.00201E-02 -3.19657E-02
    8985.859    -10.675  -0.720  5.09471E-02  8.70998E-02 -3.61527E-02
    8986.073    -10.462  -0.680  5.41030E-02  9.50808E-02 -4.09778E-02
    8986.274    -10.261  -0.640  5.75479E-02  1.04080E-01 -4.65323E-02
    8986.463    -10.072  -0.600  6.13054E-02  1.14213E-01 -5.29074E-02
    8986.639     -9.895  -0.560  6.53943E-02  1.25576E-01 -6.01820E-02
    8986.804     -9.731  -0.520  6.98235E-02  1.38228E-01 -6.84049E-02
    8986.956     -9.578  -0.480  7.45857E-02  1.52155E-01 -7.75695E-02
    8987.097     -9.438  -0.440  7.96507E-02  1.67235E-01 -8.75840E-02
    8987.225     -9.310  -0.400  8.49577E-02  1.83206E-01 -9.82483E-02
    8987.341     -9.194  -0.360  9.04120E-02  1.99659E-01 -1.09247E-01
    8987.444     -9.091  -0.320  9.58856E-02  2.16063E-01 -1.20177E-01
    8987.536     -8.999  -0.280  1.01225E-01  2.31825E-01 -1.30600E-01
    8987.615     -8.920  -0.240  1.06265E-01  2.46377E-01 -1.40112E-01
    8987.682     -8.853  -0.200  1.10841E-01  2.59241E-01 -1.48400E-01
    8987.737     -8.798  -0.160  1.14805E-01  2.70066E-01 -1.55261E-01
    8987.779     -8.755  -0.120  1.18029E-01  2.78626E-01 -1.60597E-01
    8987.810     -8.725  -0.080  1.20419E-01  2.84795E-01 -1.64376E-01
    8987.834     -8.700   0.000  1.22420E-01  2.89752E-01 -1.67332E-01
    8987.889     -8.646   0.120  1.26934E-01  3.00927E-01 -1.73993E-01
    8987.932     -8.603   0.160  1.30492E-01  3.09638E-01 -1.79147E-01
    8987.987     -8.548   0.200  1.35135E-01  3.20750E-01 -1.85616E-01
    8988.054     -8.481   0.240  1.40924E-01  3.34140E-01 -1.93215E-01
    8988.133     -8.402   0.280  1.47896E-01  3.49530E-01 -2.01634E-01
    8988.224     -8.310   0.320  1.56021E-01  3.66546E-01 -2.10525E-01
    8988.328     -8.207   0.360  1.65221E-01  3.84735E-01 -2.19514E-01
    8988.444     -8.091   0.400  1.75241E-01  4.03559E-01 -2.28317E-01
    8988.572     -7.963   0.440  1.85781E-01  4.22559E-01 -2.36778E-01
    8988.712     -7.823   0.480  1.96516E-01  4.41401E-01 -2.44885E-01
    8988.865     -7.670   0.520  2.07188E-01  4.59821E-01 -2.52633E-01
    8989.029     -7.506   0.560  2.17672E-01  4.77715E-01 -2.60042E-01
    8989.206     -7.329   0.600  2.27838E-01  4.95073E-01 -2.67236E-01
    8989.395     -7.140   0.640  2.37298E-01  5.11928E-01 -2.74630E-01
    8989.596     -6.939   0.680  2.45474E-01  5.28338E-01 -2.82864E-01
    8989.809     -6.725   0.720  2.52022E-01  5.44401E-01 -2.92379E-01
    8990.035     -6.500   0.760  2.57235E-01  5.60190E-01 -3.02956E-01
    8990.273     -6.262   0.800  2.62336E-01  5.75768E-01 -3.13432E-01
    8990.523     -6.012   0.840  2.69287E-01  5.91186E-01 -3.21899E-01
    8990.785     -5.750   0.880  2.80129E-01  6.06486E-01 -3.26357E-01
    8991.059     -5.476   0.920  2.96238E-01  6.21695E-01 -3.25457E-01
    8991.346     -5.189   0.960  3.17728E-01  6.36851E-01 -3.19123E-01
    8991.644     -4.890   1.000  3.42206E-01  6.51960E-01 -3.09754E-01
    8991.955     -4.580   1.040  3.64152E-01  6.66981E-01 -3.02829E-01
    8992.278     -4.256   1.080  3.78976E-01  6.81948E-01 -3.02972E-01
    8992.614     -3.921   1.120  3.88457E-01  6.96803E-01 -3.08346E-01
    8992.961     -3.574   1.160  3.99371E-01  7.11572E-01 -3.12202E-01
    8993.321     -3.214   1.200  4.17041E-01  7.26191E-01 -3.09151E-01
    8993.693     -2.842   1.240  4.43482E-01  7.40655E-01 -2.97173E-01
    8994.077     -2.458   1.280  4.79316E-01  7.54936E-01 -2.75620E-01
    8994.473     -2.062   1.320  5.22158E-01  7.68987E-01 -2.46829E-01
    8994.881     -1.653   1.360  5.64593E-01  7.82796E-01 -2.18203E-01
    8995.302     -1.233   1.400  5.98338E-01  7.96334E-01 -1.97996E-01
    8995.735     -0.800   1.440  6.20325E-01  8.09550E-01 -1.89225E-01
    8996.180     -0.355   1.480  6.35925E-01  8.22431E-01 -1.86506E-01
    8996.637      0.102   1.520  6.56782E-01  8.34967E-01 -1.78184E-01
    8997.106      0.572   1.560  6.93337E-01  8.47087E-01 -1.53750E-01
    8997.588      1.053   1.600  7.42693E-01  8.58825E-01 -1.16131E-01
    8998.082      1.547   1.640  7.87173E-01  8.70110E-01 -8.29371E-02
    8998.588      2.053   1.680  8.18855E-01  8.80954E-01 -6.20995E-02
    8999.106      2.571   1.720  8.51806E-01  8.91333E-01 -3.95270E-02
    8999.636      3.101   1.760  9.01269E-01  9.01243E-01  2.60617E-05
    9000.179      3.644   1.800  9.74249E-01  9.10659E-01  6.35900E-02
    9000.733      4.199   1.840  1.07432E+00  9.19599E-01  1.54721E-01
    9001.300      4.766   1.880  1.19870E+00  9.28042E-01  2.70663E-01
    9001.879      5.345   1.920  1.33220E+00  9.36010E-01  3.96194E-01
    9002.471      5.936   1.960  1.45291E+00  9.43462E-01  5.09447E-01
    9003.074      6.540   2.000  1.53163E+00  9.50441E-01  5.81190E-01
    9003.690      7.155   2.040  1.53764E+00  9.56931E-01  5.80708E-01
    9004.318      7.783   2.080  1.48772E+00  9.62936E-01  5.24784E-01
    9004.958      8.423   2.120  1.42206E+00  9.68503E-01  4.53556E-01
    9005.610      9.075   2.160  1.35281E+00  9.73597E-01  3.79216E-01
    9006.275      9.740   2.200  1.28193E+00  9.78268E-01  3.03661E-01
    9006.951     10.417   2.240  1.21858E+00  9.82520E-01  2.36063E-01
    9007.640     11.105   2.280  1.16871E+00  9.86363E-01  1.82351E-01
    9008.341     11.806   2.320  1.13322E+00  9.89805E-01  1.43417E-01
    9009.054     12.520   2.360  1.10876E+00  9.92874E-01  1.15885E-01
    9009.780     13.245   2.400  1.08806E+00  9.95602E-01  9.24558E-02
    9010.517     13.983   2.440  1.06696E+00  9.97975E-01  6.89851E-02
    9011.267     14.733   2.480  1.04354E+00  1.00004E+00  4.34920E-02
    9012.029     15.495   2.520  1.01809E+00  1.00180E+00  1.62948E-02
    9012.803     16.269   2.560  9.96754E-01  1.00327E+00 -6.51558E-03
    9013.590     17.055   2.600  9.85962E-01  1.00451E+00 -1.85445E-02
    9014.388     17.854   2.640  9.87605E-01  1.00548E+00 -1.78714E-02
    9015.199     18.664   2.680  9.95525E-01  1.00621E+00 -1.06843E-02
    9016.022     19.487   2.720  1.00380E+00  1.00676E+00 -2.95668E-03
    9016.857     20.323   2.760  1.00942E+00  1.00710E+00  2.31480E-03
    9017.705     21.170   2.800  1.01002E+00  1.00728E+00  2.73491E-03
    9018.564     22.029   2.840  1.00377E+00  1.00730E+00 -3.53141E-03
    9019.436     22.901   2.880  9.90140E-01  1.00716E+00 -1.70221E-02
    9020.320     23.785   2.920  9.70316E-01  1.00692E+00 -3.66024E-02
    9021.216     24.681   2.960  9.46972E-01  1.00654E+00 -5.95642E-02
    9022.124     25.589   3.000  9.23321E-01  1.00608E+00 -8.27618E-02
    9023.045     26.510   3.040  9.01880E-01  1.00552E+00 -1.03643E-01
    9023.977     27.443   3.080  8.84547E-01  1.00489E+00 -1.20339E-01
    9024.922     28.388   3.120  8.72275E-01  1.00422E+00 -1.31941E-01
    9025.879     29.345   3.160  8.65096E-01  1.00346E+00 -1.38363E-01
    9026.849     30.314   3.200  8.62715E-01  1.00268E+00 -1.39965E-01
    9027.830     31.295   3.240  8.64476E-01  1.00187E+00 -1.37389E-01
    9028.824     32.289   3.280  8.69478E-01  1.00104E+00 -1.31560E-01
    9029.829     33.295   3.320  8.76835E-01  1.00018E+00 -1.23349E-01
    9030.847     34.313   3.360  8.85789E-01  9.99346E-01 -1.13557E-01
    9031.878     35.343   3.400  8.95388E-01  9.98489E-01 -1.03101E-01
    9032.920     36.385   3.440  9.04889E-01  9.97654E-01 -9.27659E-02
    9033.975     37.440   3.480  9.13848E-01  9.96826E-01 -8.29789E-02
    9035.042     38.507   3.520  9.22175E-01  9.96029E-01 -7.38544E-02
    9036.121     39.586   3.560  9.30058E-01  9.95242E-01 -6.51842E-02
    9037.212     40.677   3.600  9.38090E-01  9.94489E-01 -5.63992E-02
    9038.315     41.780   3.640  9.46910E-01  9.93773E-01 -4.68625E-02
    9039.431     42.896   3.680  9.56908E-01  9.93095E-01 -3.61876E-02
    9040.558     44.024   3.720  9.68030E-01  9.92459E-01 -2.44286E-02
    9041.698     45.164   3.760  9.79941E-01  9.91863E-01 -1.19226E-02
    9042.850     46.316   3.800  9.92098E-01  9.91331E-01  7.66774E-04
    9044.015     47.480   3.840  1.00379E+00  9.90821E-01  1.29696E-02
    9045.191     48.657   3.880  1.01444E+00  9.90375E-01  2.40683E-02
    9046.380     49.845   3.920  1.02340E+00  9.89973E-01  3.34232E-02
    9047.581     51.046   3.960  1.02999E+00  9.89616E-01  4.03782E-02
    9048.794     52.259   4.000  1.03389E+00  9.89326E-01  4.45634E-02
    9050.019     53.485   4.040  1.03521E+00  9.89080E-01  4.61256E-02
    9051.257     54.722   4.080  1.03466E+00  9.88878E-01  4.57791E-02
    9052.506     55.972   4.120  1.03329E+00  9.88721E-01  4.45656E-02
    9053.768     57.234   4.160  1.03210E+00  9.88629E-01  4.34740E-02
    9055.042     58.508   4.200  1.03160E+00  9.88580E-01  4.30183E-02
    9056.329     59.794   4.240  1.03175E+00  9.88574E-01  4.31722E-02
    9057.627     61.092   4.280  1.03220E+00  9.88611E-01  4.35903E-02
    9058.938     62.403   4.320  1.03255E+00  9.88689E-01  4.38651E-02
    9060.261     63.726   4.360  1.03257E+00  9.88830E-01  4.37398E-02
    9061.596     65.061   4.400  1.03215E+00  9.88991E-01  4.31609E-02
    9062.943     66.408   4.440  1.03150E+00  9.89210E-01  4.22890E-02
    9064.302     67.767   4.480  1.03075E+00  9.89447E-01  4.13029E-02
    9065.674     69.139   4.520  1.03007E+00  9.89719E-01  4.03501E-02
    9067.058     70.523   4.560  1.02956E+00  9.90027E-01  3.95329E-02
    9068.454     71.919   4.600  1.02928E+00  9.90369E-01  3.89083E-02
    9069.862     73.327   4.640  1.02921E+00  9.90722E-01  3.84909E-02
    9071.282     74.747   4.680  1.02939E+00  9.91106E-01  3.82826E-02
    9072.715     76.180   4.720  1.02970E+00  9.91499E-01  3.81992E-02
    9074.159     77.625   4.760  1.02994E+00  9.91919E-01  3.80173E-02
    9075.616     79.082   4.800  1.02974E+00  9.92345E-01  3.73959E-02
    9077.085     80.551   4.840  1.02873E+00  9.92776E-01  3.59555E-02
    9078.567     82.032   4.880  1.02666E+00  9.93230E-01  3.34256E-02
    9080.060     83.526   4.920  1.02338E+00  9.93664E-01  2.97139E-02
    9081.566     85.031   4.960  1.01897E+00  9.94121E-01  2.48521E-02
    9083.084     86.549   5.000  1.01350E+00  9.94575E-01  1.89211E-02
    9084.614     88.079   5.040  1.00699E+00  9.95003E-01  1.19879E-02
    9086.156     89.622   5.080  9.99592E-01  9.95426E-01  4.16556E-03
    9087.711     91.176   5.120  9.91640E-01  9.95845E-01 -4.20479E-03
    9089.277     92.743   5.160  9.83716E-01  9.96257E-01 -1.25410E-02
    9090.856     94.322   5.200  9.76451E-01  9.96639E-01 -2.01874E-02
    9092.447     95.913   5.240  9.70314E-01  9.97011E-01 -2.66967E-02
    9094.051     97.516   5.280  9.65334E-01  9.97349E-01 -3.20155E-02
    9095.666     99.131   5.320  9.61213E-01  9.97653E-01 -3.64401E-02
    9097.294    100.759   5.360  9.57597E-01  9.97947E-01 -4.03503E-02
    9098.933    102.399   5.400  9.54229E-01  9.98228E-01 -4.39985E-02
    9100.585    104.051   5.440  9.51081E-01  9.98452E-01 -4.73702E-02
    9102.250    105.715   5.480  9.48508E-01  9.98660E-01 -5.01523E-02
    9103.926    107.391   5.520  9.47023E-01  9.98832E-01 -5.18081E-02
    9105.615    109.080   5.560  9.47139E-01  9.98966E-01 -5.18269E-02
    9107.315    110.781   5.600  9.49160E-01  9.99085E-01 -4.99250E-02
    9109.028    112.494   5.640  9.52969E-01  9.99141E-01 -4.61714E-02
    9110.754    114.219   5.680  9.58164E-01  9.99156E-01 -4.09921E-02
    9112.491    115.956   5.720  9.64060E-01  9.99158E-01 -3.50980E-02
    9114.240    117.706   5.760  9.69851E-01  9.99121E-01 -2.92694E-02
    9116.002    119.467   5.800  9.74832E-01  9.99021E-01 -2.41886E-02
    9117.776    121.241   5.840  9.78578E-01  9.98905E-01 -2.03270E-02
    9119.562    123.028   5.880  9.80947E-01  9.98752E-01 -1.78047E-02
    9121.361    124.826   5.920  9.82131E-01  9.98536E-01 -1.64047E-02
    9123.171    126.636   5.960  9.82547E-01  9.98305E-01 -1.57589E-02
    9124.994    128.459   6.000  9.82723E-01  9.98014E-01 -1.52915E-02
