# # comment:                                                     FEFF 9.9.1  
# # Source:
# # Structure
# # Reduced
# # space
# # abc:
# # angles:108.672349
# # sites:
# # POT  SCF 100  7.0000   0, screened core-hole, AFOLP (folp(0)= 1.150)
# # Abs   Z=29 Rmt= 1.265 Rnm= 1.351 K  shell
# # Pot 1 Z=29 Rmt= 1.276 Rnm= 1.362
# # Pot 2 Z= 8 Rmt= 1.003 Rnm= 1.107
# # Pot 3 Z= 9 Rmt= 1.093 Rnm= 1.147
# # Gam_ch=1.729E+00 H-L exch Vi= 0.000E+00 Vr= 0.000E+00
# # Mu=-6.976E+00eV kf=2.036E+00 Vint=-1.323E+01eV Rs_int= 1.782
# FMS rfms= 9.0000
# # PATH  Rmax=-1.000,  Keep_limit= 0.00, Heap_limit 0.00  Pwcrit= 2.50%
#  S02=0.950  Temp=   0.00  Debye_temp=   0.00  Global_sig2= 0.00000
#  Energy zero shift, vr, vi    0.00000E+00   0.00000E+00
#  Curved wave amplitude ratio filter   4.000%
#     file         sig2 tot  cw amp ratio   deg  nlegs   reff  inp sig2
#     0/   0 paths used
#  xsedge+ 50, used to normalize mu           2.4258E-04
#  -----------------------------------------------------------------------
#  omega    e    k    mu    mu0     chi     @#
    8983.393    -10.786  -1.000  3.37312E-02  5.55948E-02 -2.18636E-02
    8983.692    -10.487  -0.960  3.51553E-02  5.95943E-02 -2.44390E-02
    8983.978    -10.201  -0.920  3.66549E-02  6.40288E-02 -2.73739E-02
    8984.253     -9.926  -0.880  3.82362E-02  6.89606E-02 -3.07244E-02
    8984.515     -9.664  -0.840  3.99068E-02  7.44624E-02 -3.45556E-02
    8984.765     -9.414  -0.800  4.16754E-02  8.06178E-02 -3.89425E-02
    8985.002     -9.177  -0.760  4.35519E-02  8.75228E-02 -4.39709E-02
    8985.228     -8.951  -0.720  4.55478E-02  9.52852E-02 -4.97374E-02
    8985.441     -8.738  -0.680  4.76756E-02  1.04024E-01 -5.63479E-02
    8985.642     -8.537  -0.640  4.99486E-02  1.13862E-01 -6.39138E-02
    8985.831     -8.348  -0.600  5.23791E-02  1.24924E-01 -7.25446E-02
    8986.008     -8.171  -0.560  5.49763E-02  1.37310E-01 -8.23342E-02
    8986.173     -8.006  -0.520  5.77423E-02  1.51083E-01 -9.33408E-02
    8986.325     -7.854  -0.480  6.06670E-02  1.66225E-01 -1.05558E-01
    8986.465     -7.714  -0.440  6.37216E-02  1.82605E-01 -1.18883E-01
    8986.593     -7.586  -0.400  6.68540E-02  1.99942E-01 -1.33088E-01
    8986.709     -7.470  -0.360  6.99881E-02  2.17798E-01 -1.47810E-01
    8986.813     -7.366  -0.320  7.30302E-02  2.35602E-01 -1.62572E-01
    8986.904     -7.275  -0.280  7.58817E-02  2.52719E-01 -1.76837E-01
    8986.984     -7.196  -0.240  7.84546E-02  2.68535E-01 -1.90081E-01
    8987.051     -7.128  -0.200  8.06828E-02  2.82533E-01 -2.01850E-01
    8987.105     -7.074  -0.160  8.25262E-02  2.94325E-01 -2.11799E-01
    8987.148     -7.031  -0.120  8.39658E-02  3.03662E-01 -2.19697E-01
    8987.179     -7.000  -0.080  8.49965E-02  3.10398E-01 -2.25402E-01
    8987.203     -6.976   0.000  8.58305E-02  3.15816E-01 -2.29986E-01
    8987.258     -6.921   0.120  8.77556E-02  3.28060E-01 -2.40305E-01
    8987.301     -6.879   0.160  8.91674E-02  3.37588E-01 -2.48420E-01
    8987.355     -6.824   0.200  9.09054E-02  3.49799E-01 -2.58894E-01
    8987.422     -6.757   0.240  9.29408E-02  3.64542E-01 -2.71601E-01
    8987.502     -6.677   0.280  9.51915E-02  3.81569E-01 -2.86377E-01
    8987.593     -6.586   0.320  9.76198E-02  4.00506E-01 -3.02886E-01
    8987.697     -6.482   0.360  1.00201E-01  4.20862E-01 -3.20661E-01
    8987.813     -6.366   0.400  1.02927E-01  4.42110E-01 -3.39182E-01
    8987.941     -6.238   0.440  1.05932E-01  4.63784E-01 -3.57852E-01
    8988.081     -6.098   0.480  1.09411E-01  4.85521E-01 -3.76110E-01
    8988.233     -5.946   0.520  1.13577E-01  5.07046E-01 -3.93469E-01
    8988.398     -5.781   0.560  1.18623E-01  5.28245E-01 -4.09622E-01
    8988.575     -5.604   0.600  1.24692E-01  5.49038E-01 -4.24346E-01
    8988.764     -5.415   0.640  1.31872E-01  5.69485E-01 -4.37613E-01
    8988.965     -5.214   0.680  1.40068E-01  5.89614E-01 -4.49547E-01
    8989.178     -5.001   0.720  1.49154E-01  6.09445E-01 -4.60292E-01
    8989.404     -4.775   0.760  1.59217E-01  6.29053E-01 -4.69836E-01
    8989.641     -4.538   0.800  1.70646E-01  6.48465E-01 -4.77819E-01
    8989.891     -4.288   0.840  1.84032E-01  6.67691E-01 -4.83659E-01
    8990.153     -4.026   0.880  2.00139E-01  6.86752E-01 -4.86612E-01
    8990.428     -3.751   0.920  2.19395E-01  7.05590E-01 -4.86195E-01
    8990.714     -3.465   0.960  2.41790E-01  7.24202E-01 -4.82412E-01
    8991.013     -3.166   1.000  2.66935E-01  7.42573E-01 -4.75638E-01
    8991.324     -2.855   1.040  2.94727E-01  7.60619E-01 -4.65892E-01
    8991.647     -2.532   1.080  3.25846E-01  7.78332E-01 -4.52486E-01
    8991.982     -2.197   1.120  3.60437E-01  7.95619E-01 -4.35182E-01
    8992.330     -1.849   1.160  3.98030E-01  8.12466E-01 -4.14436E-01
    8992.689     -1.490   1.200  4.38356E-01  8.28813E-01 -3.90458E-01
    8993.061     -1.118   1.240  4.80922E-01  8.44585E-01 -3.63663E-01
    8993.445     -0.734   1.280  5.24119E-01  8.59765E-01 -3.35646E-01
    8993.842     -0.338   1.320  5.66972E-01  8.74295E-01 -3.07323E-01
    8994.250      0.071   1.360  6.12739E-01  8.88163E-01 -2.75423E-01
    8994.671      0.492   1.400  6.69611E-01  9.01296E-01 -2.31684E-01
    8995.103      0.924   1.440  7.45008E-01  9.13684E-01 -1.68675E-01
    8995.548      1.369   1.480  8.39399E-01  9.25342E-01 -8.59434E-02
    8996.006      1.827   1.520  9.46830E-01  9.36207E-01  1.06227E-02
    8996.475      2.296   1.560  1.05460E+00  9.46319E-01  1.08283E-01
    8996.957      2.778   1.600  1.15260E+00  9.55659E-01  1.96941E-01
    8997.450      3.271   1.640  1.24417E+00  9.64211E-01  2.79956E-01
    8997.956      3.777   1.680  1.32925E+00  9.72026E-01  3.57220E-01
    8998.474      4.295   1.720  1.40725E+00  9.79113E-01  4.28134E-01
    8999.005      4.826   1.760  1.48842E+00  9.85485E-01  5.02936E-01
    8999.547      5.368   1.800  1.57017E+00  9.91176E-01  5.78991E-01
    9000.102      5.923   1.840  1.62951E+00  9.96200E-01  6.33308E-01
    9000.669      6.490   1.880  1.64926E+00  1.00059E+00  6.48667E-01
    9001.248      7.069   1.920  1.62741E+00  1.00442E+00  6.22993E-01
    9001.839      7.660   1.960  1.56857E+00  1.00767E+00  5.60900E-01
    9002.443      8.264   2.000  1.48986E+00  1.01038E+00  4.79475E-01
    9003.059      8.880   2.040  1.41435E+00  1.01262E+00  4.01725E-01
    9003.687      9.507   2.080  1.34822E+00  1.01441E+00  3.33815E-01
    9004.327     10.148   2.120  1.27650E+00  1.01577E+00  2.60732E-01
    9004.979     10.800   2.160  1.18878E+00  1.01676E+00  1.72025E-01
    9005.643     11.464   2.200  1.09537E+00  1.01741E+00  7.79644E-02
    9006.320     12.141   2.240  1.01375E+00  1.01775E+00 -4.00041E-03
    9007.009     12.830   2.280  9.55123E-01  1.01781E+00 -6.26918E-02
    9007.710     13.531   2.320  9.23888E-01  1.01765E+00 -9.37589E-02
    9008.423     14.244   2.360  9.19198E-01  1.01724E+00 -9.80464E-02
    9009.149     14.969   2.400  9.36375E-01  1.01664E+00 -8.02675E-02
    9009.886     15.707   2.440  9.61574E-01  1.01590E+00 -5.43210E-02
    9010.636     16.457   2.480  9.80336E-01  1.01502E+00 -3.46824E-02
    9011.398     17.219   2.520  9.91131E-01  1.01402E+00 -2.28905E-02
    9012.172     17.993   2.560  9.97903E-01  1.01294E+00 -1.50354E-02
    9012.958     18.779   2.600  1.00028E+00  1.01180E+00 -1.15173E-02
    9013.757     19.578   2.640  9.97821E-01  1.01059E+00 -1.27702E-02
    9014.568     20.389   2.680  9.90978E-01  1.00937E+00 -1.83877E-02
    9015.391     21.212   2.720  9.80896E-01  1.00811E+00 -2.72136E-02
    9016.226     22.047   2.760  9.69072E-01  1.00685E+00 -3.77809E-02
    9017.073     22.894   2.800  9.56065E-01  1.00562E+00 -4.95567E-02
    9017.933     23.754   2.840  9.42047E-01  1.00442E+00 -6.23771E-02
    9018.805     24.625   2.880  9.26934E-01  1.00324E+00 -7.63080E-02
    9019.688     25.509   2.920  9.10802E-01  1.00212E+00 -9.13221E-02
    9020.585     26.406   2.960  8.94560E-01  1.00105E+00 -1.06492E-01
    9021.493     27.314   3.000  8.79394E-01  1.00003E+00 -1.20635E-01
    9022.413     28.234   3.040  8.66480E-01  9.99081E-01 -1.32602E-01
    9023.346     29.167   3.080  8.56873E-01  9.98212E-01 -1.41338E-01
    9024.291     30.112   3.120  8.51190E-01  9.97423E-01 -1.46234E-01
    9025.248     31.069   3.160  8.49511E-01  9.96738E-01 -1.47227E-01
    9026.217     32.038   3.200  8.51524E-01  9.96115E-01 -1.44592E-01
    9027.199     33.020   3.240  8.57100E-01  9.95578E-01 -1.38478E-01
    9028.192     34.013   3.280  8.65770E-01  9.95147E-01 -1.29377E-01
    9029.198     35.019   3.320  8.77078E-01  9.94804E-01 -1.17727E-01
    9030.216     36.037   3.360  8.90513E-01  9.94570E-01 -1.04057E-01
    9031.246     37.067   3.400  9.05554E-01  9.94400E-01 -8.88464E-02
    9032.289     38.110   3.440  9.21781E-01  9.94340E-01 -7.25583E-02
    9033.343     39.164   3.480  9.38816E-01  9.94387E-01 -5.55706E-02
    9034.410     40.231   3.520  9.56212E-01  9.94499E-01 -3.82874E-02
    9035.489     41.310   3.560  9.73739E-01  9.94717E-01 -2.09777E-02
    9036.580     42.401   3.600  9.91273E-01  9.95018E-01 -3.74467E-03
    9037.684     43.505   3.640  1.00874E+00  9.95400E-01  1.33409E-02
    9038.799     44.620   3.680  1.02598E+00  9.95840E-01  3.01401E-02
    9039.927     45.748   3.720  1.04281E+00  9.96382E-01  4.64242E-02
    9041.067     46.888   3.760  1.05885E+00  9.97001E-01  6.18488E-02
    9042.219     48.040   3.800  1.07360E+00  9.97672E-01  7.59244E-02
    9043.383     49.204   3.840  1.08631E+00  9.98395E-01  8.79151E-02
    9044.560     50.381   3.880  1.09617E+00  9.99209E-01  9.69629E-02
    9045.749     51.570   3.920  1.10229E+00  1.00005E+00  1.02238E-01
    9046.950     52.771   3.960  1.10418E+00  1.00095E+00  1.03224E-01
    9048.163     53.984   4.000  1.10176E+00  1.00188E+00  9.98849E-02
    9049.388     55.209   4.040  1.09564E+00  1.00286E+00  9.27756E-02
    9050.626     56.446   4.080  1.08661E+00  1.00389E+00  8.27288E-02
    9051.875     57.696   4.120  1.07573E+00  1.00492E+00  7.08123E-02
    9053.137     58.958   4.160  1.06421E+00  1.00599E+00  5.82233E-02
    9054.411     60.232   4.200  1.05319E+00  1.00706E+00  4.61300E-02
    9055.697     61.518   4.240  1.04353E+00  1.00813E+00  3.54030E-02
    9056.996     62.817   4.280  1.03575E+00  1.00923E+00  2.65201E-02
    9058.306     64.127   4.320  1.02992E+00  1.01030E+00  1.96188E-02
    9059.629     65.450   4.360  1.02599E+00  1.01137E+00  1.46208E-02
    9060.964     66.785   4.400  1.02365E+00  1.01243E+00  1.12138E-02
    9062.311     68.132   4.440  1.02245E+00  1.01349E+00  8.96585E-03
    9063.671     69.492   4.480  1.02202E+00  1.01451E+00  7.51333E-03
    9065.042     70.863   4.520  1.02216E+00  1.01549E+00  6.67096E-03
    9066.426     72.247   4.560  1.02282E+00  1.01644E+00  6.38710E-03
    9067.822     73.643   4.600  1.02385E+00  1.01736E+00  6.48479E-03
    9069.230     75.051   4.640  1.02477E+00  1.01822E+00  6.54783E-03
    9070.651     76.472   4.680  1.02507E+00  1.01906E+00  6.00389E-03
    9072.083     77.904   4.720  1.02418E+00  1.01983E+00  4.34510E-03
    9073.528     79.349   4.760  1.02198E+00  1.02056E+00  1.42451E-03
    9074.985     80.806   4.800  1.01877E+00  1.02121E+00 -2.43544E-03
    9076.454     82.275   4.840  1.01510E+00  1.02181E+00 -6.70343E-03
    9077.935     83.756   4.880  1.01142E+00  1.02235E+00 -1.09394E-02
    9079.429     85.250   4.920  1.00792E+00  1.02283E+00 -1.49050E-02
    9080.935     86.756   4.960  1.00473E+00  1.02323E+00 -1.84954E-02
    9082.453     88.274   5.000  1.00196E+00  1.02357E+00 -2.16105E-02
    9083.983     89.804   5.040  9.99605E-01  1.02384E+00 -2.42298E-02
    9085.525     91.346   5.080  9.97591E-01  1.02402E+00 -2.64332E-02
    9087.079     92.900   5.120  9.95856E-01  1.02416E+00 -2.83033E-02
    9088.646     94.467   5.160  9.94434E-01  1.02422E+00 -2.97867E-02
    9090.225     96.046   5.200  9.93572E-01  1.02423E+00 -3.06545E-02
    9091.816     97.637   5.240  9.93492E-01  1.02416E+00 -3.06635E-02
    9093.419     99.240   5.280  9.94336E-01  1.02401E+00 -2.96714E-02
    9095.035    100.856   5.320  9.96018E-01  1.02378E+00 -2.77665E-02
    9096.662    102.483   5.360  9.98267E-01  1.02353E+00 -2.52659E-02
    9098.302    104.123   5.400  1.00064E+00  1.02319E+00 -2.25485E-02
    9099.954    105.775   5.440  1.00301E+00  1.02281E+00 -1.97987E-02
    9101.618    107.439   5.480  1.00533E+00  1.02235E+00 -1.70159E-02
    9103.295    109.116   5.520  1.00757E+00  1.02186E+00 -1.42814E-02
    9104.983    110.804   5.560  1.00943E+00  1.02132E+00 -1.18908E-02
    9106.684    112.505   5.600  1.01060E+00  1.02072E+00 -1.01213E-02
    9108.397    114.218   5.640  1.01111E+00  1.02008E+00 -8.96254E-03
    9110.122    115.943   5.680  1.01123E+00  1.01942E+00 -8.18326E-03
    9111.860    117.681   5.720  1.01107E+00  1.01870E+00 -7.62251E-03
    9113.609    119.430   5.760  1.01069E+00  1.01796E+00 -7.27630E-03
    9115.371    121.192   5.800  1.01006E+00  1.01720E+00 -7.14148E-03
    9117.145    122.966   5.840  1.00936E+00  1.01643E+00 -7.07224E-03
    9118.931    124.752   5.880  1.00875E+00  1.01564E+00 -6.88864E-03
    9120.729    126.550   5.920  1.00835E+00  1.01484E+00 -6.49545E-03
    9122.540    128.361   5.960  1.00824E+00  1.01404E+00 -5.80046E-03
    9124.362    130.183   6.000  1.00869E+00  1.01322E+00 -4.53473E-03
