# # comment:                                                     FEFF 9.9.1  
# # Source:
# # Structure
# # Reduced
# # space
# # abc:
# # angles:
# # sites:
# # POT  SCF 100  7.0000   0, screened core-hole, AFOLP (folp(0)= 1.150)
# # Abs   Z=29 Rmt= 1.346 Rnm= 1.405 K  shell
# # Pot 1 Z= 3 Rmt= 1.250 Rnm= 1.311
# # Pot 2 Z=29 Rmt= 1.349 Rnm= 1.411
# # Pot 3 Z=15 Rmt= 0.944 Rnm= 1.155
# # Pot 4 Z= 8 Rmt= 0.939 Rnm= 1.043
# # Gam_ch=1.729E+00 H-L exch Vi= 0.000E+00 Vr= 0.000E+00
# # Mu=-6.578E+00eV kf=2.363E+00 Vint=-1.749E+01eV Rs_int= 1.534
# FMS rfms= 9.0000
# # PATH  Rmax=-1.000,  Keep_limit= 0.00, Heap_limit 0.00  Pwcrit= 2.50%
#  S02=0.950  Temp=   0.00  Debye_temp=   0.00  Global_sig2= 0.00000
#  Energy zero shift, vr, vi    0.00000E+00   0.00000E+00
#  Curved wave amplitude ratio filter   4.000%
#     file         sig2 tot  cw amp ratio   deg  nlegs   reff  inp sig2
#     0/   0 paths used
#  xsedge+ 50, used to normalize mu           2.4672E-04
#  -----------------------------------------------------------------------
#  omega    e    k    mu    mu0     chi     @#
    8983.760    -10.388  -1.000  5.13802E-02  5.48712E-02 -3.49104E-03
    8984.059    -10.090  -0.960  5.48158E-02  5.88893E-02 -4.07359E-03
    8984.346     -9.803  -0.920  5.85992E-02  6.33587E-02 -4.75950E-03
    8984.620     -9.529  -0.880  6.27778E-02  6.83462E-02 -5.56831E-03
    8984.882     -9.267  -0.840  6.74065E-02  7.39299E-02 -6.52340E-03
    8985.132     -9.017  -0.800  7.25477E-02  8.02004E-02 -7.65263E-03
    8985.370     -8.779  -0.760  7.82727E-02  8.72616E-02 -8.98890E-03
    8985.595     -8.553  -0.720  8.46607E-02  9.52312E-02 -1.05705E-02
    8985.809     -8.340  -0.680  9.17981E-02  1.04239E-01 -1.24408E-02
    8986.010     -8.139  -0.640  9.97744E-02  1.14422E-01 -1.46471E-02
    8986.199     -7.950  -0.600  1.08676E-01  1.25914E-01 -1.72378E-02
    8986.376     -7.773  -0.560  1.18575E-01  1.38832E-01 -2.02562E-02
    8986.540     -7.609  -0.520  1.29511E-01  1.53243E-01 -2.37320E-02
    8986.693     -7.456  -0.480  1.41467E-01  1.69134E-01 -2.76675E-02
    8986.833     -7.316  -0.440  1.54342E-01  1.86365E-01 -3.20234E-02
    8986.961     -7.188  -0.400  1.67929E-01  2.04634E-01 -3.67057E-02
    8987.077     -7.072  -0.360  1.81904E-01  2.23467E-01 -4.15623E-02
    8987.180     -6.968  -0.320  1.95849E-01  2.42246E-01 -4.63967E-02
    8987.272     -6.877  -0.280  2.09291E-01  2.60287E-01 -5.09961E-02
    8987.351     -6.798  -0.240  2.21766E-01  2.76934E-01 -5.51678E-02
    8987.418     -6.731  -0.200  2.32870E-01  2.91638E-01 -5.87679E-02
    8987.473     -6.676  -0.160  2.42288E-01  3.04001E-01 -6.17127E-02
    8987.515     -6.633  -0.120  2.49794E-01  3.13768E-01 -6.39741E-02
    8987.546     -6.603  -0.080  2.55239E-01  3.20801E-01 -6.55621E-02
    8987.570     -6.578   0.000  2.59633E-01  3.26450E-01 -6.68173E-02
    8987.625     -6.523   0.120  2.69554E-01  3.39173E-01 -6.96191E-02
    8987.668     -6.481   0.160  2.77393E-01  3.49060E-01 -7.16667E-02
    8987.723     -6.426   0.200  2.87553E-01  3.61663E-01 -7.41100E-02
    8987.790     -6.359   0.240  3.00070E-01  3.76819E-01 -7.67490E-02
    8987.869     -6.280   0.280  3.14844E-01  3.94165E-01 -7.93215E-02
    8987.960     -6.188   0.320  3.31829E-01  4.13263E-01 -8.14343E-02
    8988.064     -6.085   0.360  3.50890E-01  4.33539E-01 -8.26483E-02
    8988.180     -5.969   0.400  3.71905E-01  4.54384E-01 -8.24790E-02
    8988.308     -5.841   0.440  3.94755E-01  4.75204E-01 -8.04497E-02
    8988.448     -5.700   0.480  4.19422E-01  4.95615E-01 -7.61932E-02
    8988.601     -5.548   0.520  4.45632E-01  5.15285E-01 -6.96523E-02
    8988.765     -5.383   0.560  4.72740E-01  5.34130E-01 -6.13899E-02
    8988.942     -5.207   0.600  4.99081E-01  5.52120E-01 -5.30391E-02
    8989.131     -5.018   0.640  5.21759E-01  5.69301E-01 -4.75419E-02
    8989.332     -4.817   0.680  5.37220E-01  5.85756E-01 -4.85356E-02
    8989.545     -4.603   0.720  5.42972E-01  6.01624E-01 -5.86522E-02
    8989.771     -4.378   0.760  5.39492E-01  6.16983E-01 -7.74915E-02
    8990.009     -4.140   0.800  5.31144E-01  6.31942E-01 -1.00798E-01
    8990.259     -3.890   0.840  5.24741E-01  6.46577E-01 -1.21836E-01
    8990.521     -3.628   0.880  5.26680E-01  6.60969E-01 -1.34289E-01
    8990.795     -3.354   0.920  5.40392E-01  6.75165E-01 -1.34773E-01
    8991.082     -3.067   0.960  5.64571E-01  6.89198E-01 -1.24627E-01
    8991.380     -2.768   1.000  5.92446E-01  7.03090E-01 -1.10644E-01
    8991.691     -2.457   1.040  6.14725E-01  7.16856E-01 -1.02131E-01
    8992.014     -2.134   1.080  6.27289E-01  7.30522E-01 -1.03232E-01
    8992.350     -1.799   1.120  6.35123E-01  7.44062E-01 -1.08939E-01
    8992.697     -1.452   1.160  6.47305E-01  7.57512E-01 -1.10207E-01
    8993.057     -1.092   1.200  6.70757E-01  7.70817E-01 -1.00061E-01
    8993.429     -0.720   1.240  7.08950E-01  7.83981E-01 -7.50312E-02
    8993.813     -0.336   1.280  7.61391E-01  7.97004E-01 -3.56130E-02
    8994.209      0.060   1.320  8.23066E-01  8.09823E-01  1.32433E-02
    8994.617      0.469   1.360  8.87773E-01  8.22453E-01  6.53197E-02
    8995.038      0.889   1.400  9.49509E-01  8.34849E-01  1.14660E-01
    8995.471      1.322   1.440  1.00285E+00  8.47003E-01  1.55847E-01
    8995.916      1.767   1.480  1.05167E+00  8.58887E-01  1.92784E-01
    8996.373      2.224   1.520  1.10544E+00  8.70474E-01  2.34962E-01
    8996.842      2.694   1.560  1.16092E+00  8.81733E-01  2.79191E-01
    8997.324      3.175   1.600  1.20909E+00  8.92655E-01  3.16437E-01
    8997.818      3.669   1.640  1.25204E+00  9.03193E-01  3.48847E-01
    8998.324      4.175   1.680  1.29549E+00  9.13360E-01  3.82127E-01
    8998.842      4.693   1.720  1.33118E+00  9.23128E-01  4.08053E-01
    8999.372      5.224   1.760  1.33800E+00  9.32469E-01  4.05533E-01
    8999.915      5.766   1.800  1.30020E+00  9.41401E-01  3.58795E-01
    9000.469      6.321   1.840  1.22989E+00  9.49856E-01  2.80036E-01
    9001.036      6.888   1.880  1.15778E+00  9.57892E-01  1.99890E-01
    9001.615      7.467   1.920  1.10551E+00  9.65446E-01  1.40066E-01
    9002.207      8.058   1.960  1.07885E+00  9.72537E-01  1.06316E-01
    9002.810      8.662   2.000  1.07153E+00  9.79184E-01  9.23408E-02
    9003.426      9.277   2.040  1.07448E+00  9.85347E-01  8.91296E-02
    9004.054      9.905   2.080  1.07970E+00  9.91048E-01  8.86520E-02
    9004.694     10.545   2.120  1.08107E+00  9.96269E-01  8.48057E-02
    9005.346     11.198   2.160  1.07518E+00  1.00105E+00  7.41222E-02
    9006.011     11.862   2.200  1.06090E+00  1.00539E+00  5.55110E-02
    9006.687     12.539   2.240  1.04231E+00  1.00930E+00  3.30068E-02
    9007.376     13.228   2.280  1.02474E+00  1.01277E+00  1.19708E-02
    9008.077     13.929   2.320  1.00907E+00  1.01585E+00 -6.77880E-03
    9008.790     14.642   2.360  9.93316E-01  1.01852E+00 -2.52054E-02
    9009.516     15.367   2.400  9.77031E-01  1.02080E+00 -4.37668E-02
    9010.253     16.105   2.440  9.61925E-01  1.02272E+00 -6.07992E-02
    9011.003     16.855   2.480  9.50785E-01  1.02429E+00 -7.35053E-02
    9011.765     17.617   2.520  9.45491E-01  1.02553E+00 -8.00343E-02
    9012.539     18.391   2.560  9.44922E-01  1.02646E+00 -8.15381E-02
    9013.326     19.177   2.600  9.46314E-01  1.02708E+00 -8.07679E-02
    9014.124     19.976   2.640  9.47630E-01  1.02744E+00 -7.98120E-02
    9014.935     20.787   2.680  9.47377E-01  1.02753E+00 -8.01532E-02
    9015.758     21.609   2.720  9.43342E-01  1.02740E+00 -8.40556E-02
    9016.593     22.445   2.760  9.33682E-01  1.02705E+00 -9.33700E-02
    9017.441     23.292   2.800  9.23552E-01  1.02650E+00 -1.02952E-01
    9018.300     24.152   2.840  9.17832E-01  1.02576E+00 -1.07929E-01
    9019.172     25.023   2.880  9.17583E-01  1.02485E+00 -1.07272E-01
    9020.056     25.907   2.920  9.21638E-01  1.02381E+00 -1.02176E-01
    9020.952     26.803   2.960  9.27968E-01  1.02265E+00 -9.46788E-02
    9021.860     27.712   3.000  9.35277E-01  1.02138E+00 -8.61059E-02
    9022.781     28.632   3.040  9.42735E-01  1.02001E+00 -7.72736E-02
    9023.713     29.565   3.080  9.49927E-01  1.01855E+00 -6.86257E-02
    9024.658     30.510   3.120  9.56741E-01  1.01702E+00 -6.02800E-02
    9025.615     31.467   3.160  9.63168E-01  1.01546E+00 -5.22963E-02
    9026.585     32.436   3.200  9.69051E-01  1.01385E+00 -4.47953E-02
    9027.566     33.417   3.240  9.74563E-01  1.01221E+00 -3.76512E-02
    9028.560     34.411   3.280  9.79720E-01  1.01058E+00 -3.08567E-02
    9029.566     35.417   3.320  9.84380E-01  1.00894E+00 -2.45574E-02
    9030.584     36.435   3.360  9.88373E-01  1.00730E+00 -1.89267E-02
    9031.614     37.465   3.400  9.91616E-01  1.00567E+00 -1.40554E-02
    9032.656     38.508   3.440  9.94232E-01  1.00410E+00 -9.86498E-03
    9033.711     39.562   3.480  9.96559E-01  1.00254E+00 -5.97991E-03
    9034.778     40.629   3.520  9.99128E-01  1.00102E+00 -1.89365E-03
    9035.857     41.708   3.560  1.00254E+00  9.99571E-01  2.96542E-03
    9036.948     42.799   3.600  1.00730E+00  9.98170E-01  9.13481E-03
    9038.051     43.902   3.640  1.01385E+00  9.96840E-01  1.70139E-02
    9039.167     45.018   3.680  1.02234E+00  9.95585E-01  2.67553E-02
    9040.294     46.146   3.720  1.03248E+00  9.94386E-01  3.80964E-02
    9041.434     47.286   3.760  1.04372E+00  9.93287E-01  5.04304E-02
    9042.587     48.438   3.800  1.05514E+00  9.92246E-01  6.28917E-02
    9043.751     49.602   3.840  1.06577E+00  9.91306E-01  7.44645E-02
    9044.927     50.779   3.880  1.07470E+00  9.90428E-01  8.42757E-02
    9046.116     51.967   3.920  1.08139E+00  9.89653E-01  9.17368E-02
    9047.317     53.168   3.960  1.08545E+00  9.88965E-01  9.64811E-02
    9048.530     54.381   4.000  1.08663E+00  9.88361E-01  9.82722E-02
    9049.755     55.607   4.040  1.08497E+00  9.87862E-01  9.71032E-02
    9050.993     56.844   4.080  1.08054E+00  9.87449E-01  9.30879E-02
    9052.243     58.094   4.120  1.07353E+00  9.87119E-01  8.64085E-02
    9053.504     59.356   4.160  1.06411E+00  9.86871E-01  7.72441E-02
    9054.778     60.630   4.200  1.05253E+00  9.86704E-01  6.58305E-02
    9056.065     61.916   4.240  1.03905E+00  9.86621E-01  5.24324E-02
    9057.363     63.215   4.280  1.02417E+00  9.86638E-01  3.75365E-02
    9058.674     64.525   4.320  1.00855E+00  9.86715E-01  2.18398E-02
    9059.997     65.848   4.360  9.92971E-01  9.86869E-01  6.10254E-03
    9061.332     67.183   4.400  9.78193E-01  9.87101E-01 -8.90810E-03
    9062.679     68.530   4.440  9.64923E-01  9.87409E-01 -2.24861E-02
    9064.038     69.890   4.480  9.53634E-01  9.87791E-01 -3.41566E-02
    9065.410     71.261   4.520  9.44527E-01  9.88222E-01 -4.36950E-02
    9066.794     72.645   4.560  9.37607E-01  9.88699E-01 -5.10916E-02
    9068.190     74.041   4.600  9.32704E-01  9.89241E-01 -5.65367E-02
    9069.598     75.449   4.640  9.29484E-01  9.89804E-01 -6.03198E-02
    9071.018     76.870   4.680  9.27739E-01  9.90431E-01 -6.26914E-02
    9072.451     78.302   4.720  9.27232E-01  9.91097E-01 -6.38649E-02
    9073.895     79.747   4.760  9.27892E-01  9.91799E-01 -6.39070E-02
    9075.352     81.204   4.800  9.29775E-01  9.92510E-01 -6.27349E-02
    9076.822     82.673   4.840  9.33032E-01  9.93230E-01 -6.01977E-02
    9078.303     84.154   4.880  9.37864E-01  9.93979E-01 -5.61141E-02
    9079.796     85.648   4.920  9.44388E-01  9.94753E-01 -5.03651E-02
    9081.302     87.153   4.960  9.52425E-01  9.95506E-01 -4.30813E-02
    9082.820     88.671   5.000  9.61633E-01  9.96256E-01 -3.46230E-02
    9084.350     90.201   5.040  9.71454E-01  9.97003E-01 -2.55494E-02
    9085.892     91.744   5.080  9.81339E-01  9.97744E-01 -1.64046E-02
    9087.447     93.298   5.120  9.90890E-01  9.98454E-01 -7.56428E-03
    9089.013     94.865   5.160  9.99865E-01  9.99154E-01  7.11650E-04
    9090.592     96.444   5.200  1.00796E+00  9.99817E-01  8.14143E-03
    9092.183     98.035   5.240  1.01477E+00  1.00044E+00  1.43283E-02
    9093.787     99.638   5.280  1.01985E+00  1.00105E+00  1.87924E-02
    9095.402    101.253   5.320  1.02275E+00  1.00160E+00  2.11534E-02
    9097.030    102.881   5.360  1.02340E+00  1.00210E+00  2.12984E-02
    9098.669    104.521   5.400  1.02197E+00  1.00255E+00  1.94174E-02
    9100.321    106.173   5.440  1.01889E+00  1.00294E+00  1.59535E-02
    9101.986    107.837   5.480  1.01480E+00  1.00327E+00  1.15240E-02
    9103.662    109.513   5.520  1.01037E+00  1.00356E+00  6.80553E-03
    9105.351    111.202   5.560  1.00617E+00  1.00378E+00  2.38601E-03
    9107.051    112.903   5.600  1.00270E+00  1.00395E+00 -1.25369E-03
    9108.764    114.616   5.640  1.00035E+00  1.00404E+00 -3.69727E-03
    9110.490    116.341   5.680  9.99458E-01  1.00406E+00 -4.60553E-03
    9112.227    118.078   5.720  1.00017E+00  1.00403E+00 -3.85929E-03
    9113.976    119.828   5.760  1.00223E+00  1.00392E+00 -1.69001E-03
    9115.738    121.590   5.800  1.00511E+00  1.00375E+00  1.36410E-03
    9117.512    123.364   5.840  1.00817E+00  1.00352E+00  4.64728E-03
    9119.298    125.150   5.880  1.01085E+00  1.00324E+00  7.60523E-03
    9121.097    126.948   5.920  1.01284E+00  1.00288E+00  9.95999E-03
    9122.907    128.758   5.960  1.01423E+00  1.00248E+00  1.17480E-02
    9124.730    130.581   6.000  1.01523E+00  1.00195E+00  1.32846E-02
