# # comment:                                                     FEFF 9.9.1  
# # Source:
# # Structure
# # Reduced
# # space
# # abc:
# # angles:
# # sites:
# # POT  SCF 100  7.0000   0, screened core-hole, AFOLP (folp(0)= 1.150)
# # Abs   Z=29 Rmt= 1.246 Rnm= 1.329 K  shell
# # Pot 1 Z=12 Rmt= 1.406 Rnm= 1.480
# # Pot 2 Z=29 Rmt= 1.246 Rnm= 1.329
# # Pot 3 Z=33 Rmt= 1.089 Rnm= 1.286
# # Pot 4 Z= 8 Rmt= 0.960 Rnm= 1.070
# # Gam_ch=1.729E+00 H-L exch Vi= 0.000E+00 Vr= 0.000E+00
# # Mu=-5.946E+00eV kf=2.295E+00 Vint=-1.692E+01eV Rs_int= 1.580
# FMS rfms= 9.0000
# # PATH  Rmax=-1.000,  Keep_limit= 0.00, Heap_limit 0.00  Pwcrit= 2.50%
#  S02=0.950  Temp=   0.00  Debye_temp=   0.00  Global_sig2= 0.00000
#  Energy zero shift, vr, vi    0.00000E+00   0.00000E+00
#  Curved wave amplitude ratio filter   4.000%
#     file         sig2 tot  cw amp ratio   deg  nlegs   reff  inp sig2
#     0/   0 paths used
#  xsedge+ 50, used to normalize mu           2.4742E-04
#  -----------------------------------------------------------------------
#  omega    e    k    mu    mu0     chi     @#
    8983.583     -9.756  -1.000  4.22657E-02  5.48525E-02 -1.25868E-02
    8983.882     -9.457  -0.960  4.48229E-02  5.89066E-02 -1.40837E-02
    8984.169     -9.170  -0.920  4.76347E-02  6.34198E-02 -1.57851E-02
    8984.443     -8.896  -0.880  5.07395E-02  6.84605E-02 -1.77210E-02
    8984.705     -8.634  -0.840  5.41829E-02  7.41086E-02 -1.99257E-02
    8984.955     -8.384  -0.800  5.80186E-02  8.04568E-02 -2.24382E-02
    8985.193     -8.146  -0.760  6.23090E-02  8.76115E-02 -2.53025E-02
    8985.418     -7.921  -0.720  6.71260E-02  9.56932E-02 -2.85672E-02
    8985.632     -7.707  -0.680  7.25502E-02  1.04835E-01 -3.22845E-02
    8985.833     -7.506  -0.640  7.86683E-02  1.15177E-01 -3.65084E-02
    8986.022     -7.317  -0.600  8.55674E-02  1.26857E-01 -4.12899E-02
    8986.199     -7.140  -0.560  9.33244E-02  1.39995E-01 -4.66704E-02
    8986.363     -6.976  -0.520  1.01990E-01  1.54660E-01 -5.26708E-02
    8986.516     -6.823  -0.480  1.11563E-01  1.70840E-01 -5.92767E-02
    8986.656     -6.683  -0.440  1.21968E-01  1.88391E-01 -6.64225E-02
    8986.784     -6.555  -0.400  1.33026E-01  2.07005E-01 -7.39786E-02
    8986.900     -6.439  -0.360  1.44447E-01  2.26197E-01 -8.17495E-02
    8987.003     -6.336  -0.320  1.55847E-01  2.45336E-01 -8.94890E-02
    8987.095     -6.244  -0.280  1.66793E-01  2.63724E-01 -9.69307E-02
    8987.174     -6.165  -0.240  1.76865E-01  2.80688E-01 -1.03823E-01
    8987.241     -6.098  -0.200  1.85718E-01  2.95671E-01 -1.09953E-01
    8987.296     -6.043  -0.160  1.93109E-01  3.08265E-01 -1.15156E-01
    8987.339     -6.000  -0.120  1.98906E-01  3.18213E-01 -1.19307E-01
    8987.369     -5.970  -0.080  2.03061E-01  3.25375E-01 -1.22315E-01
    8987.393     -5.946   0.000  2.06403E-01  3.31127E-01 -1.24724E-01
    8987.448     -5.891   0.120  2.13478E-01  3.44091E-01 -1.30613E-01
    8987.491     -5.848   0.160  2.18858E-01  3.54132E-01 -1.35274E-01
    8987.546     -5.793   0.200  2.25544E-01  3.66965E-01 -1.41421E-01
    8987.613     -5.726   0.240  2.33203E-01  3.82358E-01 -1.49155E-01
    8987.692     -5.647   0.280  2.41365E-01  3.99981E-01 -1.58616E-01
    8987.784     -5.555   0.320  2.49397E-01  4.19374E-01 -1.69976E-01
    8987.887     -5.452   0.360  2.56542E-01  4.39905E-01 -1.83363E-01
    8988.003     -5.336   0.400  2.62189E-01  4.60988E-01 -1.98799E-01
    8988.131     -5.208   0.440  2.65948E-01  4.81993E-01 -2.16045E-01
    8988.271     -5.068   0.480  2.68086E-01  5.02518E-01 -2.34431E-01
    8988.424     -4.915   0.520  2.69287E-01  5.22244E-01 -2.52957E-01
    8988.588     -4.751   0.560  2.70660E-01  5.41042E-01 -2.70382E-01
    8988.765     -4.574   0.600  2.73376E-01  5.58883E-01 -2.85507E-01
    8988.954     -4.385   0.640  2.78382E-01  5.75853E-01 -2.97470E-01
    8989.155     -4.184   0.680  2.86133E-01  5.92036E-01 -3.05903E-01
    8989.369     -3.970   0.720  2.96479E-01  6.07514E-01 -3.11035E-01
    8989.594     -3.745   0.760  3.08806E-01  6.22430E-01 -3.13624E-01
    8989.832     -3.507   0.800  3.22220E-01  6.36856E-01 -3.14636E-01
    8990.082     -3.257   0.840  3.35959E-01  6.50910E-01 -3.14951E-01
    8990.344     -2.995   0.880  3.49299E-01  6.64614E-01 -3.15316E-01
    8990.618     -2.721   0.920  3.61646E-01  6.78082E-01 -3.16437E-01
    8990.905     -2.434   0.960  3.72987E-01  6.91307E-01 -3.18320E-01
    8991.203     -2.136   1.000  3.85351E-01  7.04334E-01 -3.18983E-01
    8991.514     -1.825   1.040  4.02943E-01  7.17201E-01 -3.14259E-01
    8991.837     -1.502   1.080  4.29848E-01  7.29895E-01 -3.00047E-01
    8992.173     -1.166   1.120  4.66705E-01  7.42416E-01 -2.75711E-01
    8992.520     -0.819   1.160  5.10918E-01  7.54798E-01 -2.43880E-01
    8992.880     -0.459   1.200  5.60671E-01  7.66991E-01 -2.06320E-01
    8993.252     -0.087   1.240  6.15762E-01  7.79023E-01 -1.63261E-01
    8993.636      0.297   1.280  6.75815E-01  7.90856E-01 -1.15041E-01
    8994.032      0.693   1.320  7.43077E-01  8.02471E-01 -5.93940E-02
    8994.440      1.101   1.360  8.15480E-01  8.13887E-01  1.59336E-03
    8994.861      1.522   1.400  8.73137E-01  8.25061E-01  4.80761E-02
    8995.294      1.955   1.440  8.96976E-01  8.35991E-01  6.09851E-02
    8995.739      2.400   1.480  8.98639E-01  8.46631E-01  5.20081E-02
    8996.196      2.857   1.520  8.98396E-01  8.56998E-01  4.13978E-02
    8996.665      3.326   1.560  9.05719E-01  8.67067E-01  3.86523E-02
    8997.147      3.808   1.600  9.32010E-01  8.76813E-01  5.51968E-02
    8997.641      4.302   1.640  9.87676E-01  8.86230E-01  1.01446E-01
    8998.147      4.808   1.680  1.06738E+00  8.95295E-01  1.72083E-01
    8998.665      5.326   1.720  1.14568E+00  9.04005E-01  2.41670E-01
    8999.195      5.856   1.760  1.20017E+00  9.12357E-01  2.87814E-01
    8999.738      6.399   1.800  1.22655E+00  9.20328E-01  3.06226E-01
    9000.293      6.954   1.840  1.22899E+00  9.27915E-01  3.01073E-01
    9000.859      7.520   1.880  1.21574E+00  9.35140E-01  2.80602E-01
    9001.439      8.100   1.920  1.20407E+00  9.41981E-01  2.62086E-01
    9002.030      8.691   1.960  1.21031E+00  9.48417E-01  2.61894E-01
    9002.633      9.294   2.000  1.22357E+00  9.54473E-01  2.69094E-01
    9003.249      9.910   2.040  1.22566E+00  9.60168E-01  2.65490E-01
    9003.877     10.538   2.080  1.22345E+00  9.65464E-01  2.57989E-01
    9004.517     11.178   2.120  1.22664E+00  9.70387E-01  2.56254E-01
    9005.169     11.830   2.160  1.22941E+00  9.74961E-01  2.54445E-01
    9005.834     12.495   2.200  1.22475E+00  9.79166E-01  2.45587E-01
    9006.510     13.171   2.240  1.21039E+00  9.83011E-01  2.27375E-01
    9007.199     13.860   2.280  1.18596E+00  9.86540E-01  1.99416E-01
    9007.900     14.561   2.320  1.15550E+00  9.89719E-01  1.65781E-01
    9008.614     15.275   2.360  1.12542E+00  9.92595E-01  1.32822E-01
    9009.339     16.000   2.400  1.10222E+00  9.95173E-01  1.07047E-01
    9010.077     16.738   2.440  1.08853E+00  9.97438E-01  9.10868E-02
    9010.826     17.487   2.480  1.07862E+00  9.99441E-01  7.91760E-02
    9011.588     18.249   2.520  1.06657E+00  1.00117E+00  6.54013E-02
    9012.363     19.024   2.560  1.05564E+00  1.00264E+00  5.29973E-02
    9013.149     19.810   2.600  1.05004E+00  1.00387E+00  4.61744E-02
    9013.948     20.609   2.640  1.04528E+00  1.00489E+00  4.03898E-02
    9014.758     21.419   2.680  1.03002E+00  1.00570E+00  2.43203E-02
    9015.581     22.242   2.720  9.99371E-01  1.00630E+00 -6.93143E-03
    9016.416     23.077   2.760  9.67698E-01  1.00674E+00 -3.90391E-02
    9017.264     23.925   2.800  9.38907E-01  1.00700E+00 -6.80969E-02
    9018.123     24.784   2.840  9.14779E-01  1.00711E+00 -9.23300E-02
    9018.995     25.656   2.880  8.96020E-01  1.00706E+00 -1.11041E-01
    9019.879     26.540   2.920  8.82547E-01  1.00691E+00 -1.24359E-01
    9020.775     27.436   2.960  8.73733E-01  1.00661E+00 -1.32878E-01
    9021.683     28.344   3.000  8.68597E-01  1.00622E+00 -1.37623E-01
    9022.604     29.265   3.040  8.66132E-01  1.00574E+00 -1.39610E-01
    9023.537     30.197   3.080  8.65811E-01  1.00518E+00 -1.39372E-01
    9024.481     31.142   3.120  8.67693E-01  1.00457E+00 -1.36873E-01
    9025.438     32.099   3.160  8.71538E-01  1.00386E+00 -1.32319E-01
    9026.408     33.069   3.200  8.77467E-01  1.00312E+00 -1.25655E-01
    9027.389     34.050   3.240  8.85182E-01  1.00234E+00 -1.17161E-01
    9028.383     35.044   3.280  8.93864E-01  1.00153E+00 -1.07663E-01
    9029.389     36.050   3.320  9.02463E-01  1.00068E+00 -9.82120E-02
    9030.407     37.068   3.360  9.09945E-01  9.99816E-01 -8.98711E-02
    9031.437     38.098   3.400  9.15566E-01  9.98951E-01 -8.33851E-02
    9032.479     39.140   3.440  9.18961E-01  9.98083E-01 -7.91226E-02
    9033.534     40.195   3.480  9.20594E-01  9.97216E-01 -7.66212E-02
    9034.601     41.262   3.520  9.21445E-01  9.96352E-01 -7.49074E-02
    9035.680     42.341   3.560  9.22659E-01  9.95516E-01 -7.28569E-02
    9036.771     43.432   3.600  9.25140E-01  9.94689E-01 -6.95492E-02
    9037.874     44.535   3.640  9.29561E-01  9.93894E-01 -6.43328E-02
    9038.990     45.651   3.680  9.36275E-01  9.93133E-01 -5.68576E-02
    9040.118     46.779   3.720  9.45219E-01  9.92387E-01 -4.71676E-02
    9041.258     47.918   3.760  9.56332E-01  9.91698E-01 -3.53667E-02
    9042.410     49.071   3.800  9.69388E-01  9.91028E-01 -2.16398E-02
    9043.574     50.235   3.840  9.84132E-01  9.90418E-01 -6.28618E-03
    9044.750     51.411   3.880  1.00019E+00  9.89829E-01  1.03650E-02
    9045.939     52.600   3.920  1.01725E+00  9.89304E-01  2.79444E-02
    9047.140     53.801   3.960  1.03468E+00  9.88822E-01  4.58572E-02
    9048.353     55.014   4.000  1.05178E+00  9.88405E-01  6.33795E-02
    9049.579     56.239   4.040  1.06760E+00  9.88010E-01  7.95891E-02
    9050.816     57.477   4.080  1.08099E+00  9.87679E-01  9.33136E-02
    9052.066     58.727   4.120  1.09062E+00  9.87393E-01  1.03226E-01
    9053.328     59.988   4.160  1.09545E+00  9.87150E-01  1.08303E-01
    9054.602     61.263   4.200  1.09499E+00  9.86973E-01  1.08021E-01
    9055.888     62.549   4.240  1.08949E+00  9.86818E-01  1.02676E-01
    9057.186     63.847   4.280  1.08022E+00  9.86729E-01  9.34898E-02
    9058.497     65.158   4.320  1.06907E+00  9.86704E-01  8.23673E-02
    9059.820     66.481   4.360  1.05795E+00  9.86700E-01  7.12494E-02
    9061.155     67.816   4.400  1.04835E+00  9.86736E-01  6.16126E-02
    9062.502     69.163   4.440  1.04105E+00  9.86834E-01  5.42166E-02
    9063.861     70.522   4.480  1.03599E+00  9.86951E-01  4.90367E-02
    9065.233     71.894   4.520  1.03261E+00  9.87129E-01  4.54795E-02
    9066.617     73.278   4.560  1.03001E+00  9.87325E-01  4.26866E-02
    9068.013     74.674   4.600  1.02744E+00  9.87580E-01  3.98587E-02
    9069.421     76.082   4.640  1.02432E+00  9.87848E-01  3.64713E-02
    9070.841     77.502   4.680  1.02047E+00  9.88149E-01  3.23196E-02
    9072.274     78.935   4.720  1.01585E+00  9.88461E-01  2.73939E-02
    9073.719     80.380   4.760  1.01053E+00  9.88805E-01  2.17300E-02
    9075.176     81.836   4.800  1.00452E+00  9.89181E-01  1.53354E-02
    9076.645     83.306   4.840  9.97742E-01  9.89564E-01  8.17877E-03
    9078.126     84.787   4.880  9.90225E-01  9.89952E-01  2.72462E-04
    9079.619     86.280   4.920  9.82102E-01  9.90368E-01 -8.26590E-03
    9081.125     87.786   4.960  9.73515E-01  9.90787E-01 -1.72718E-02
    9082.643     89.304   5.000  9.64666E-01  9.91207E-01 -2.65417E-02
    9084.173     90.834   5.040  9.55869E-01  9.91627E-01 -3.57586E-02
    9085.715     92.376   5.080  9.47644E-01  9.92047E-01 -4.44026E-02
    9087.270     93.931   5.120  9.40730E-01  9.92465E-01 -5.17355E-02
    9088.837     95.498   5.160  9.35837E-01  9.92881E-01 -5.70444E-02
    9090.415     97.076   5.200  9.33500E-01  9.93292E-01 -5.97920E-02
    9092.006     98.667   5.240  9.33949E-01  9.93674E-01 -5.97245E-02
    9093.610    100.271   5.280  9.37217E-01  9.94048E-01 -5.68314E-02
    9095.225    101.886   5.320  9.43063E-01  9.94415E-01 -5.13518E-02
    9096.853    103.514   5.360  9.50952E-01  9.94749E-01 -4.37969E-02
    9098.493    105.154   5.400  9.60112E-01  9.95049E-01 -3.49373E-02
    9100.145    106.806   5.440  9.69600E-01  9.95337E-01 -2.57366E-02
    9101.809    108.470   5.480  9.78395E-01  9.95592E-01 -1.71964E-02
    9103.485    110.146   5.520  9.85587E-01  9.95832E-01 -1.02456E-02
    9105.174    111.835   5.560  9.90344E-01  9.96013E-01 -5.66953E-03
    9106.875    113.536   5.600  9.92264E-01  9.96179E-01 -3.91469E-03
    9108.588    115.249   5.640  9.91470E-01  9.96308E-01 -4.83729E-03
    9110.313    116.974   5.680  9.88727E-01  9.96398E-01 -7.67093E-03
    9112.050    118.711   5.720  9.85071E-01  9.96449E-01 -1.13781E-02
    9113.800    120.461   5.760  9.81401E-01  9.96462E-01 -1.50607E-02
    9115.561    122.222   5.800  9.78241E-01  9.96459E-01 -1.82176E-02
    9117.335    123.996   5.840  9.75698E-01  9.96394E-01 -2.06962E-02
    9119.121    125.782   5.880  9.73819E-01  9.96290E-01 -2.24708E-02
    9120.920    127.581   5.920  9.72659E-01  9.96172E-01 -2.35132E-02
    9122.730    129.391   5.960  9.72226E-01  9.95987E-01 -2.37607E-02
    9124.553    131.214   6.000  9.72753E-01  9.95734E-01 -2.29817E-02
