# # comment:                                                     FEFF 9.9.1  
# # Source:
# # Structure
# # Reduced
# # space
# # abc:
# # angles:
# # sites:
# # POT  SCF 100  7.0000   0, screened core-hole, AFOLP (folp(0)= 1.150)
# # Abs   Z=29 Rmt= 1.265 Rnm= 1.312 K  shell
# # Pot 1 Z=12 Rmt= 1.353 Rnm= 1.419
# # Pot 2 Z=29 Rmt= 1.266 Rnm= 1.313
# # Pot 3 Z= 8 Rmt= 1.051 Rnm= 1.100
# # Gam_ch=1.729E+00 H-L exch Vi= 0.000E+00 Vr= 0.000E+00
# # Mu=-1.057E+01eV kf=2.092E+00 Vint=-2.029E+01eV Rs_int= 1.734
# FMS rfms= 9.0000
# # PATH  Rmax=-1.000,  Keep_limit= 0.00, Heap_limit 0.00  Pwcrit= 2.50%
#  S02=0.950  Temp=   0.00  Debye_temp=   0.00  Global_sig2= 0.00000
#  Energy zero shift, vr, vi    0.00000E+00   0.00000E+00
#  Curved wave amplitude ratio filter   4.000%
#     file         sig2 tot  cw amp ratio   deg  nlegs   reff  inp sig2
#     0/   0 paths used
#  xsedge+ 50, used to normalize mu           2.4752E-04
#  -----------------------------------------------------------------------
#  omega    e    k    mu    mu0     chi     @#
    8985.798    -14.378  -1.000  3.51157E-02  5.21437E-02 -1.70280E-02
    8986.097    -14.079  -0.960  3.66496E-02  5.59160E-02 -1.92665E-02
    8986.384    -13.793  -0.920  3.82599E-02  6.01084E-02 -2.18485E-02
    8986.658    -13.518  -0.880  3.99507E-02  6.47828E-02 -2.48321E-02
    8986.920    -13.256  -0.840  4.17261E-02  7.00116E-02 -2.82855E-02
    8987.170    -13.006  -0.800  4.35905E-02  7.58785E-02 -3.22880E-02
    8987.408    -12.769  -0.760  4.55484E-02  8.24797E-02 -3.69312E-02
    8987.633    -12.543  -0.720  4.76045E-02  8.99238E-02 -4.23193E-02
    8987.847    -12.330  -0.680  4.97630E-02  9.83307E-02 -4.85677E-02
    8988.048    -12.129  -0.640  5.20277E-02  1.07827E-01 -5.57992E-02
    8988.237    -11.940  -0.600  5.44007E-02  1.18537E-01 -6.41360E-02
    8988.414    -11.763  -0.560  5.68811E-02  1.30566E-01 -7.36850E-02
    8988.578    -11.598  -0.520  5.94632E-02  1.43979E-01 -8.45153E-02
    8988.731    -11.446  -0.480  6.21334E-02  1.58760E-01 -9.66269E-02
    8988.871    -11.306  -0.440  6.48670E-02  1.74781E-01 -1.09914E-01
    8988.999    -11.178  -0.400  6.76263E-02  1.91762E-01 -1.24136E-01
    8989.115    -11.062  -0.360  7.03595E-02  2.09263E-01 -1.38904E-01
    8989.218    -10.958  -0.320  7.30043E-02  2.26714E-01 -1.53709E-01
    8989.310    -10.867  -0.280  7.54937E-02  2.43480E-01 -1.67986E-01
    8989.389    -10.787  -0.240  7.77644E-02  2.58952E-01 -1.81188E-01
    8989.456    -10.720  -0.200  7.97624E-02  2.72622E-01 -1.92860E-01
    8989.511    -10.666  -0.160  8.14447E-02  2.84118E-01 -2.02673E-01
    8989.554    -10.623  -0.120  8.27774E-02  2.93202E-01 -2.10425E-01
    8989.584    -10.592  -0.080  8.37358E-02  2.99744E-01 -2.16009E-01
    8989.608    -10.568   0.000  8.44958E-02  3.04998E-01 -2.20502E-01
    8989.663    -10.513   0.120  8.65128E-02  3.16852E-01 -2.30339E-01
    8989.706    -10.470   0.160  8.80483E-02  3.26065E-01 -2.38017E-01
    8989.761    -10.416   0.200  8.99819E-02  3.37805E-01 -2.47823E-01
    8989.828    -10.349   0.240  9.23520E-02  3.51926E-01 -2.59574E-01
    8989.907    -10.269   0.280  9.51385E-02  3.68139E-01 -2.73000E-01
    8989.999    -10.178   0.320  9.83074E-02  3.85982E-01 -2.87675E-01
    8990.102    -10.074   0.360  1.01907E-01  4.04975E-01 -3.03067E-01
    8990.218     -9.958   0.400  1.05953E-01  4.24542E-01 -3.18589E-01
    8990.346     -9.830   0.440  1.10496E-01  4.44156E-01 -3.33660E-01
    8990.486     -9.690   0.480  1.15714E-01  4.63448E-01 -3.47734E-01
    8990.639     -9.538   0.520  1.21751E-01  4.82129E-01 -3.60378E-01
    8990.803     -9.373   0.560  1.28845E-01  5.00087E-01 -3.71242E-01
    8990.980     -9.196   0.600  1.37349E-01  5.17311E-01 -3.79962E-01
    8991.169     -9.007   0.640  1.47662E-01  5.33859E-01 -3.86197E-01
    8991.370     -8.806   0.680  1.60215E-01  5.49786E-01 -3.89571E-01
    8991.584     -8.593   0.720  1.75495E-01  5.65218E-01 -3.89722E-01
    8991.809     -8.367   0.760  1.93864E-01  5.80220E-01 -3.86357E-01
    8992.047     -8.130   0.800  2.15800E-01  5.94892E-01 -3.79092E-01
    8992.297     -7.880   0.840  2.42332E-01  6.09297E-01 -3.66965E-01
    8992.559     -7.618   0.880  2.75665E-01  6.23488E-01 -3.47823E-01
    8992.833     -7.343   0.920  3.18808E-01  6.37543E-01 -3.18734E-01
    8993.120     -7.057   0.960  3.72561E-01  6.51429E-01 -2.78868E-01
    8993.418     -6.758   1.000  4.29804E-01  6.65224E-01 -2.35420E-01
    8993.729     -6.447   1.040  4.73600E-01  6.78915E-01 -2.05315E-01
    8994.052     -6.124   1.080  4.94215E-01  6.92504E-01 -1.98289E-01
    8994.388     -5.789   1.120  5.06246E-01  7.05983E-01 -1.99737E-01
    8994.735     -5.441   1.160  5.31150E-01  7.19363E-01 -1.88213E-01
    8995.095     -5.082   1.200  5.70425E-01  7.32608E-01 -1.62183E-01
    8995.467     -4.710   1.240  6.00858E-01  7.45719E-01 -1.44861E-01
    8995.851     -4.326   1.280  6.03168E-01  7.58677E-01 -1.55508E-01
    8996.247     -3.929   1.320  5.94127E-01  7.71436E-01 -1.77309E-01
    8996.655     -3.521   1.360  6.05137E-01  7.84011E-01 -1.78874E-01
    8997.076     -3.100   1.400  6.48655E-01  7.96358E-01 -1.47703E-01
    8997.509     -2.668   1.440  7.16431E-01  8.08449E-01 -9.20172E-02
    8997.954     -2.223   1.480  7.91480E-01  8.20276E-01 -2.87963E-02
    8998.411     -1.765   1.520  8.48854E-01  8.31812E-01  1.70421E-02
    8998.880     -1.296   1.560  8.92451E-01  8.43029E-01  4.94226E-02
    8999.362     -0.814   1.600  9.59680E-01  8.53919E-01  1.05760E-01
    8999.856     -0.321   1.640  1.07285E+00  8.64458E-01  2.08388E-01
    9000.362      0.185   1.680  1.23999E+00  8.74658E-01  3.65334E-01
    9000.880      0.703   1.720  1.46732E+00  8.84454E-01  5.82861E-01
    9001.410      1.234   1.760  1.74012E+00  8.93861E-01  8.46260E-01
    9001.953      1.776   1.800  1.97090E+00  9.02894E-01  1.06801E+00
    9002.508      2.331   1.840  1.99291E+00  9.11491E-01  1.08141E+00
    9003.074      2.898   1.880  1.80015E+00  9.19691E-01  8.80457E-01
    9003.654      3.477   1.920  1.57479E+00  9.27451E-01  6.47339E-01
    9004.245      4.068   1.960  1.39844E+00  9.34810E-01  4.63629E-01
    9004.848      4.672   2.000  1.26827E+00  9.41730E-01  3.26536E-01
    9005.464      5.288   2.040  1.17535E+00  9.48254E-01  2.27096E-01
    9006.092      5.916   2.080  1.12224E+00  9.54342E-01  1.67895E-01
    9006.732      6.556   2.120  1.10158E+00  9.60039E-01  1.41538E-01
    9007.384      7.208   2.160  1.08406E+00  9.65326E-01  1.18732E-01
    9008.049      7.872   2.200  1.05287E+00  9.70210E-01  8.26626E-02
    9008.725      8.549   2.240  1.01337E+00  9.74715E-01  3.86535E-02
    9009.414      9.238   2.280  9.76977E-01  9.78846E-01 -1.86888E-03
    9010.115      9.939   2.320  9.48380E-01  9.82611E-01 -3.42304E-02
    9010.829     10.652   2.360  9.26515E-01  9.86035E-01 -5.95197E-02
    9011.554     11.378   2.400  9.10709E-01  9.89104E-01 -7.83951E-02
    9012.292     12.115   2.440  9.01327E-01  9.91848E-01 -9.05214E-02
    9013.041     12.865   2.480  8.95938E-01  9.94292E-01 -9.83543E-02
    9013.803     13.627   2.520  8.87904E-01  9.96446E-01 -1.08542E-01
    9014.578     14.401   2.560  8.66691E-01  9.98317E-01 -1.31627E-01
    9015.364     15.187   2.600  8.39610E-01  9.99932E-01 -1.60322E-01
    9016.163     15.986   2.640  8.14764E-01  1.00128E+00 -1.86515E-01
    9016.973     16.797   2.680  7.94547E-01  1.00241E+00 -2.07858E-01
    9017.796     17.620   2.720  7.79428E-01  1.00332E+00 -2.23891E-01
    9018.631     18.455   2.760  7.69104E-01  1.00401E+00 -2.34905E-01
    9019.479     19.302   2.800  7.62664E-01  1.00452E+00 -2.41858E-01
    9020.338     20.162   2.840  7.59143E-01  1.00486E+00 -2.45721E-01
    9021.210     21.034   2.880  7.57664E-01  1.00504E+00 -2.47381E-01
    9022.094     21.917   2.920  7.57926E-01  1.00507E+00 -2.47145E-01
    9022.990     22.814   2.960  7.61060E-01  1.00499E+00 -2.43931E-01
    9023.898     23.722   3.000  7.69022E-01  1.00477E+00 -2.35747E-01
    9024.819     24.642   3.040  7.83289E-01  1.00445E+00 -2.21162E-01
    9025.752     25.575   3.080  8.04511E-01  1.00404E+00 -1.99532E-01
    9026.696     26.520   3.120  8.32388E-01  1.00353E+00 -1.71144E-01
    9027.653     27.477   3.160  8.64710E-01  1.00296E+00 -1.38254E-01
    9028.623     28.446   3.200  8.98772E-01  1.00232E+00 -1.03551E-01
    9029.604     29.428   3.240  9.31995E-01  1.00166E+00 -6.96611E-02
    9030.598     30.421   3.280  9.62906E-01  1.00093E+00 -3.80208E-02
    9031.604     31.427   3.320  9.91821E-01  1.00016E+00 -8.33761E-03
    9032.622     32.445   3.360  1.02038E+00  9.99378E-01  2.09979E-02
    9033.652     33.475   3.400  1.05021E+00  9.98589E-01  5.16193E-02
    9034.694     34.518   3.440  1.08256E+00  9.97773E-01  8.47821E-02
    9035.749     35.572   3.480  1.11795E+00  9.96976E-01  1.20977E-01
    9036.816     36.639   3.520  1.15513E+00  9.96160E-01  1.58971E-01
    9037.895     37.718   3.560  1.19034E+00  9.95367E-01  1.94972E-01
    9038.986     38.809   3.600  1.21756E+00  9.94581E-01  2.22982E-01
    9040.089     39.913   3.640  1.23070E+00  9.93826E-01  2.36879E-01
    9041.205     41.028   3.680  1.22611E+00  9.93103E-01  2.33004E-01
    9042.333     42.156   3.720  1.20447E+00  9.92392E-01  2.12079E-01
    9043.473     43.296   3.760  1.17039E+00  9.91717E-01  1.78672E-01
    9044.625     44.448   3.800  1.12981E+00  9.91078E-01  1.38727E-01
    9045.789     45.612   3.840  1.08752E+00  9.90477E-01  9.70422E-02
    9046.966     46.789   3.880  1.04663E+00  9.89917E-01  5.67092E-02
    9048.154     47.978   3.920  1.00981E+00  9.89395E-01  2.04133E-02
    9049.355     49.179   3.960  9.80551E-01  9.88913E-01 -8.36222E-03
    9050.568     50.392   4.000  9.62172E-01  9.88473E-01 -2.63014E-02
    9051.794     51.617   4.040  9.55540E-01  9.88077E-01 -3.25370E-02
    9053.031     52.855   4.080  9.58608E-01  9.87745E-01 -2.91370E-02
    9054.281     54.104   4.120  9.67099E-01  9.87457E-01 -2.03584E-02
    9055.543     55.366   4.160  9.76379E-01  9.87211E-01 -1.08322E-02
    9056.817     56.640   4.200  9.83210E-01  9.87008E-01 -3.79812E-03
    9058.103     57.926   4.240  9.86657E-01  9.86869E-01 -2.11822E-04
    9059.401     59.225   4.280  9.87574E-01  9.86751E-01  8.22639E-04
    9060.712     60.535   4.320  9.87552E-01  9.86695E-01  8.56661E-04
    9062.035     61.858   4.360  9.87583E-01  9.86679E-01  9.03950E-04
    9063.370     63.193   4.400  9.87779E-01  9.86683E-01  1.09533E-03
    9064.717     64.540   4.440  9.87747E-01  9.86749E-01  9.98397E-04
    9066.076     65.900   4.480  9.86928E-01  9.86854E-01  7.37796E-05
    9067.448     67.271   4.520  9.84958E-01  9.86996E-01 -2.03747E-03
    9068.832     68.655   4.560  9.81970E-01  9.87153E-01 -5.18371E-03
    9070.228     70.051   4.600  9.78815E-01  9.87369E-01 -8.55408E-03
    9071.636     71.459   4.640  9.76217E-01  9.87598E-01 -1.13813E-02
    9073.056     72.880   4.680  9.73879E-01  9.87860E-01 -1.39807E-02
    9074.489     74.312   4.720  9.70328E-01  9.88132E-01 -1.78043E-02
    9075.934     75.757   4.760  9.64419E-01  9.88436E-01 -2.40162E-02
    9077.391     77.214   4.800  9.56858E-01  9.88771E-01 -3.19137E-02
    9078.860     78.683   4.840  9.50523E-01  9.89114E-01 -3.85907E-02
    9080.341     80.164   4.880  9.49049E-01  9.89461E-01 -4.04123E-02
    9081.834     81.658   4.920  9.54730E-01  9.89835E-01 -3.51055E-02
    9083.340     83.164   4.960  9.67309E-01  9.90213E-01 -2.29036E-02
    9084.858     84.682   5.000  9.84029E-01  9.90590E-01 -6.56040E-03
    9086.388     86.212   5.040  1.00007E+00  9.90943E-01  9.12658E-03
    9087.930     87.754   5.080  1.00968E+00  9.91318E-01  1.83636E-02
    9089.485     89.308   5.120  1.00762E+00  9.91693E-01  1.59303E-02
    9091.052     90.875   5.160  9.91680E-01  9.92064E-01 -3.84107E-04
    9092.630     92.454   5.200  9.64610E-01  9.92411E-01 -2.78007E-02
    9094.222     94.045   5.240  9.33176E-01  9.92770E-01 -5.95943E-02
    9095.825     95.648   5.280  9.04348E-01  9.93080E-01 -8.87328E-02
    9097.440     97.264   5.320  8.82824E-01  9.93404E-01 -1.10580E-01
    9099.068     98.891   5.360  8.70429E-01  9.93696E-01 -1.23267E-01
    9100.708    100.531   5.400  8.67044E-01  9.93955E-01 -1.26912E-01
    9102.360    102.183   5.440  8.71921E-01  9.94203E-01 -1.22281E-01
    9104.024    103.847   5.480  8.84710E-01  9.94417E-01 -1.09708E-01
    9105.700    105.524   5.520  9.05800E-01  9.94618E-01 -8.88183E-02
    9107.389    107.212   5.560  9.35495E-01  9.94761E-01 -5.92656E-02
    9109.090    108.913   5.600  9.73056E-01  9.94891E-01 -2.18349E-02
    9110.803    110.626   5.640  1.01556E+00  9.95007E-01  2.05526E-02
    9112.528    112.351   5.680  1.05807E+00  9.95064E-01  6.30102E-02
    9114.265    114.089   5.720  1.09554E+00  9.95104E-01  1.00440E-01
    9116.015    115.838   5.760  1.12486E+00  9.95084E-01  1.29779E-01
    9117.776    117.600   5.800  1.14490E+00  9.95049E-01  1.49852E-01
    9119.550    119.374   5.840  1.15362E+00  9.94977E-01  1.58648E-01
    9121.336    121.160   5.880  1.14837E+00  9.94868E-01  1.53507E-01
    9123.135    122.958   5.920  1.13025E+00  9.94721E-01  1.35526E-01
    9124.945    124.769   5.960  1.10534E+00  9.94535E-01  1.10807E-01
    9126.768    126.591   6.000  1.07990E+00  9.94288E-01  8.56122E-02
