# # comment:                                                     FEFF 9.9.1  
# # Source:
# # Structure
# # Reduced
# # space
# # abc:
# # angles:
# # sites:
# # POT  SCF 100  7.0000   0, screened core-hole, AFOLP (folp(0)= 1.150)
# # Abs   Z=29 Rmt= 1.196 Rnm= 1.311 K  shell
# # Pot 1 Z=49 Rmt= 1.503 Rnm= 1.580
# # Pot 2 Z=29 Rmt= 1.176 Rnm= 1.296
# # Pot 3 Z= 8 Rmt= 1.041 Rnm= 1.110
# # Gam_ch=1.729E+00 H-L exch Vi= 0.000E+00 Vr= 0.000E+00
# # Mu=-6.454E+00eV kf=2.117E+00 Vint=-1.527E+01eV Rs_int= 1.713
# FMS rfms= 9.0000
# # PATH  Rmax=-1.000,  Keep_limit= 0.00, Heap_limit 0.00  Pwcrit= 2.50%
#  S02=0.950  Temp=   0.00  Debye_temp=   0.00  Global_sig2= 0.00000
#  Energy zero shift, vr, vi    0.00000E+00   0.00000E+00
#  Curved wave amplitude ratio filter   4.000%
#     file         sig2 tot  cw amp ratio   deg  nlegs   reff  inp sig2
#     0/   0 paths used
#  xsedge+ 50, used to normalize mu           2.4504E-04
#  -----------------------------------------------------------------------
#  omega    e    k    mu    mu0     chi     @#
    8983.486    -10.264  -1.000  3.75935E-02  5.58416E-02 -1.82480E-02
    8983.784     -9.965  -0.960  3.96175E-02  5.99423E-02 -2.03248E-02
    8984.071     -9.679  -0.920  4.18149E-02  6.45019E-02 -2.26871E-02
    8984.345     -9.405  -0.880  4.42089E-02  6.95882E-02 -2.53793E-02
    8984.607     -9.143  -0.840  4.68264E-02  7.52799E-02 -2.84535E-02
    8984.857     -8.893  -0.800  4.96985E-02  8.16684E-02 -3.19698E-02
    8985.095     -8.655  -0.760  5.28613E-02  8.88585E-02 -3.59972E-02
    8985.320     -8.429  -0.720  5.63553E-02  9.69688E-02 -4.06135E-02
    8985.534     -8.216  -0.680  6.02252E-02  1.06130E-01 -4.59044E-02
    8985.735     -8.015  -0.640  6.45184E-02  1.16479E-01 -5.19605E-02
    8985.924     -7.826  -0.600  6.92809E-02  1.28152E-01 -5.88708E-02
    8986.101     -7.649  -0.560  7.45518E-02  1.41264E-01 -6.67119E-02
    8986.265     -7.484  -0.520  8.03528E-02  1.55884E-01 -7.55309E-02
    8986.418     -7.332  -0.480  8.66754E-02  1.71997E-01 -8.53213E-02
    8986.558     -7.192  -0.440  9.34652E-02  1.89461E-01 -9.59958E-02
    8986.686     -7.064  -0.400  1.00609E-01  2.07972E-01 -1.07364E-01
    8986.802     -6.948  -0.360  1.07930E-01  2.27052E-01 -1.19123E-01
    8986.905     -6.844  -0.320  1.15199E-01  2.46080E-01 -1.30880E-01
    8986.997     -6.753  -0.280  1.22165E-01  2.64363E-01 -1.42198E-01
    8987.076     -6.674  -0.240  1.28584E-01  2.81240E-01 -1.52656E-01
    8987.143     -6.607  -0.200  1.34252E-01  2.96154E-01 -1.61902E-01
    8987.198     -6.552  -0.160  1.39021E-01  3.08699E-01 -1.69678E-01
    8987.241     -6.509  -0.120  1.42797E-01  3.18615E-01 -1.75818E-01
    8987.271     -6.479  -0.080  1.45525E-01  3.25758E-01 -1.80233E-01
    8987.296     -6.454   0.000  1.47736E-01  3.31496E-01 -1.83761E-01
    8987.350     -6.399   0.120  1.52655E-01  3.44433E-01 -1.91778E-01
    8987.393     -6.357   0.160  1.56439E-01  3.54480E-01 -1.98041E-01
    8987.448     -6.302   0.200  1.61275E-01  3.67325E-01 -2.06050E-01
    8987.515     -6.235   0.240  1.67058E-01  3.82771E-01 -2.15712E-01
    8987.594     -6.155   0.280  1.73651E-01  4.00488E-01 -2.26837E-01
    8987.686     -6.064   0.320  1.80905E-01  4.20046E-01 -2.39141E-01
    8987.789     -5.960   0.360  1.88559E-01  4.40862E-01 -2.52302E-01
    8987.905     -5.845   0.400  1.96375E-01  4.62336E-01 -2.65961E-01
    8988.033     -5.717   0.440  2.04131E-01  4.83904E-01 -2.79773E-01
    8988.173     -5.576   0.480  2.11732E-01  5.05141E-01 -2.93409E-01
    8988.326     -5.424   0.520  2.19235E-01  5.25757E-01 -3.06523E-01
    8988.490     -5.259   0.560  2.26946E-01  5.45629E-01 -3.18683E-01
    8988.667     -5.083   0.600  2.35262E-01  5.64700E-01 -3.29438E-01
    8988.856     -4.894   0.640  2.44594E-01  5.83029E-01 -3.38435E-01
    8989.057     -4.692   0.680  2.54986E-01  6.00714E-01 -3.45728E-01
    8989.271     -4.479   0.720  2.65917E-01  6.17825E-01 -3.51908E-01
    8989.496     -4.254   0.760  2.76344E-01  6.34450E-01 -3.58106E-01
    8989.734     -4.016   0.800  2.85094E-01  6.50689E-01 -3.65595E-01
    8989.984     -3.766   0.840  2.91750E-01  6.66587E-01 -3.74837E-01
    8990.246     -3.504   0.880  2.97126E-01  6.82196E-01 -3.85070E-01
    8990.520     -3.229   0.920  3.02648E-01  6.97554E-01 -3.94907E-01
    8990.807     -2.943   0.960  3.09766E-01  7.12684E-01 -4.02918E-01
    8991.105     -2.644   1.000  3.20232E-01  7.27601E-01 -4.07369E-01
    8991.416     -2.333   1.040  3.36343E-01  7.42308E-01 -4.05965E-01
    8991.739     -2.010   1.080  3.60381E-01  7.56783E-01 -3.96403E-01
    8992.075     -1.675   1.120  3.93665E-01  7.71037E-01 -3.77372E-01
    8992.422     -1.327   1.160  4.35354E-01  7.85013E-01 -3.49659E-01
    8992.782     -0.968   1.200  4.82583E-01  7.98736E-01 -3.16153E-01
    8993.154     -0.596   1.240  5.31565E-01  8.12162E-01 -2.80597E-01
    8993.538     -0.212   1.280  5.78795E-01  8.25246E-01 -2.46452E-01
    8993.934      0.184   1.320  6.21291E-01  8.38005E-01 -2.16714E-01
    8994.342      0.593   1.360  6.58596E-01  8.50372E-01 -1.91776E-01
    8994.763      1.013   1.400  6.94197E-01  8.62361E-01 -1.68164E-01
    8995.196      1.446   1.440  7.31370E-01  8.73924E-01 -1.42554E-01
    8995.641      1.891   1.480  7.72229E-01  8.85055E-01 -1.12826E-01
    8996.098      2.348   1.520  8.17919E-01  8.95728E-01 -7.78095E-02
    8996.567      2.818   1.560  8.62811E-01  9.05919E-01 -4.31082E-02
    8997.049      3.299   1.600  8.94184E-01  9.15645E-01 -2.14603E-02
    8997.543      3.793   1.640  9.11981E-01  9.24861E-01 -1.28803E-02
    8998.049      4.299   1.680  9.36906E-01  9.33586E-01  3.31970E-03
    8998.567      4.817   1.720  9.88285E-01  9.41799E-01  4.64853E-02
    8999.097      5.348   1.760  1.06492E+00  9.49523E-01  1.15397E-01
    8999.640      5.890   1.800  1.14330E+00  9.56738E-01  1.86560E-01
    9000.195      6.445   1.840  1.19659E+00  9.63448E-01  2.33138E-01
    9000.762      7.012   1.880  1.21982E+00  9.69655E-01  2.50165E-01
    9001.341      7.591   1.920  1.23006E+00  9.75386E-01  2.54676E-01
    9001.932      8.182   1.960  1.24120E+00  9.80628E-01  2.60576E-01
    9002.535      8.786   2.000  1.25639E+00  9.85428E-01  2.70967E-01
    9003.151      9.401   2.040  1.27794E+00  9.89771E-01  2.88167E-01
    9003.779     10.029   2.080  1.30562E+00  9.93668E-01  3.11957E-01
    9004.419     10.669   2.120  1.33474E+00  9.97169E-01  3.37573E-01
    9005.071     11.322   2.160  1.35771E+00  1.00026E+00  3.57446E-01
    9005.736     11.986   2.200  1.36567E+00  1.00298E+00  3.62696E-01
    9006.412     12.663   2.240  1.35678E+00  1.00532E+00  3.51455E-01
    9007.101     13.352   2.280  1.33483E+00  1.00733E+00  3.27497E-01
    9007.802     14.053   2.320  1.29766E+00  1.00903E+00  2.88627E-01
    9008.516     14.766   2.360  1.24366E+00  1.01044E+00  2.33221E-01
    9009.241     15.491   2.400  1.17960E+00  1.01154E+00  1.68057E-01
    9009.979     16.229   2.440  1.11862E+00  1.01241E+00  1.06208E-01
    9010.728     16.979   2.480  1.07329E+00  1.01303E+00  6.02544E-02
    9011.490     17.741   2.520  1.04757E+00  1.01342E+00  3.41536E-02
    9012.265     18.515   2.560  1.03829E+00  1.01362E+00  2.46702E-02
    9013.051     19.301   2.600  1.03554E+00  1.01363E+00  2.19140E-02
    9013.850     20.100   2.640  1.03503E+00  1.01349E+00  2.15334E-02
    9014.660     20.911   2.680  1.03341E+00  1.01320E+00  2.02157E-02
    9015.483     21.734   2.720  1.02808E+00  1.01277E+00  1.53075E-02
    9016.318     22.569   2.760  1.01847E+00  1.01223E+00  6.24022E-03
    9017.166     23.416   2.800  1.00551E+00  1.01157E+00 -6.05808E-03
    9018.025     24.276   2.840  9.90850E-01  1.01084E+00 -1.99937E-02
    9018.897     25.147   2.880  9.75540E-01  1.01004E+00 -3.45012E-02
    9019.781     26.031   2.920  9.59749E-01  1.00919E+00 -4.94388E-02
    9020.677     26.927   2.960  9.43538E-01  1.00827E+00 -6.47321E-02
    9021.585     27.836   3.000  9.26972E-01  1.00733E+00 -8.03590E-02
    9022.506     28.756   3.040  9.10480E-01  1.00636E+00 -9.58799E-02
    9023.439     29.689   3.080  8.95140E-01  1.00538E+00 -1.10239E-01
    9024.383     30.634   3.120  8.81992E-01  1.00440E+00 -1.22404E-01
    9025.340     31.591   3.160  8.71741E-01  1.00342E+00 -1.31674E-01
    9026.310     32.560   3.200  8.64900E-01  1.00246E+00 -1.37558E-01
    9027.291     33.541   3.240  8.61733E-01  1.00151E+00 -1.39775E-01
    9028.285     34.535   3.280  8.62069E-01  1.00057E+00 -1.38499E-01
    9029.291     35.541   3.320  8.65626E-01  9.99663E-01 -1.34038E-01
    9030.309     36.559   3.360  8.71912E-01  9.98817E-01 -1.26906E-01
    9031.339     37.589   3.400  8.79875E-01  9.97990E-01 -1.18116E-01
    9032.381     38.632   3.440  8.88266E-01  9.97205E-01 -1.08939E-01
    9033.436     39.686   3.480  8.96196E-01  9.96484E-01 -1.00287E-01
    9034.503     40.753   3.520  9.03229E-01  9.95809E-01 -9.25803E-02
    9035.582     41.832   3.560  9.09282E-01  9.95202E-01 -8.59200E-02
    9036.673     42.923   3.600  9.14523E-01  9.94623E-01 -8.01000E-02
    9037.776     44.027   3.640  9.19480E-01  9.94134E-01 -7.46542E-02
    9038.892     45.142   3.680  9.24766E-01  9.93694E-01 -6.89272E-02
    9040.020     46.270   3.720  9.30944E-01  9.93303E-01 -6.23585E-02
    9041.160     47.410   3.760  9.38504E-01  9.92983E-01 -5.44787E-02
    9042.312     48.562   3.800  9.47648E-01  9.92712E-01 -4.50642E-02
    9043.476     49.726   3.840  9.58386E-01  9.92513E-01 -3.41268E-02
    9044.653     50.903   3.880  9.70597E-01  9.92386E-01 -2.17898E-02
    9045.841     52.092   3.920  9.83962E-01  9.92308E-01 -8.34656E-03
    9047.042     53.292   3.960  9.97847E-01  9.92278E-01  5.56877E-03
    9048.255     54.506   4.000  1.01138E+00  9.92319E-01  1.90628E-02
    9049.481     55.731   4.040  1.02370E+00  9.92429E-01  3.12670E-02
    9050.718     56.968   4.080  1.03420E+00  9.92567E-01  4.16357E-02
    9051.968     58.218   4.120  1.04286E+00  9.92790E-01  5.00685E-02
    9053.230     59.480   4.160  1.05001E+00  9.93035E-01  5.69719E-02
    9054.504     60.754   4.200  1.05621E+00  9.93323E-01  6.28862E-02
    9055.790     62.040   4.240  1.06199E+00  9.93675E-01  6.83098E-02
    9057.088     63.339   4.280  1.06754E+00  9.94046E-01  7.34902E-02
    9058.399     64.649   4.320  1.07263E+00  9.94478E-01  7.81564E-02
    9059.722     65.972   4.360  1.07646E+00  9.94927E-01  8.15329E-02
    9061.057     67.307   4.400  1.07820E+00  9.95432E-01  8.27665E-02
    9062.404     68.654   4.440  1.07755E+00  9.95951E-01  8.15952E-02
    9063.763     70.014   4.480  1.07482E+00  9.96479E-01  7.83406E-02
    9065.135     71.385   4.520  1.07079E+00  9.97039E-01  7.37506E-02
    9066.519     72.769   4.560  1.06634E+00  9.97629E-01  6.87107E-02
    9067.915     74.165   4.600  1.06220E+00  9.98225E-01  6.39791E-02
    9069.323     75.573   4.640  1.05881E+00  9.98826E-01  5.99864E-02
    9070.743     76.994   4.680  1.05621E+00  9.99449E-01  5.67646E-02
    9072.176     78.426   4.720  1.05401E+00  1.00005E+00  5.39614E-02
    9073.621     79.871   4.760  1.05172E+00  1.00065E+00  5.10702E-02
    9075.078     81.328   4.800  1.04894E+00  1.00127E+00  4.76658E-02
    9076.547     82.797   4.840  1.04533E+00  1.00187E+00  4.34574E-02
    9078.028     84.278   4.880  1.04069E+00  1.00246E+00  3.82303E-02
    9079.522     85.772   4.920  1.03483E+00  1.00302E+00  3.18133E-02
    9081.027     87.278   4.960  1.02775E+00  1.00359E+00  2.41630E-02
    9082.545     88.795   5.000  1.01962E+00  1.00411E+00  1.55089E-02
    9084.075     90.325   5.040  1.01096E+00  1.00461E+00  6.35016E-03
    9085.617     91.868   5.080  1.00235E+00  1.00511E+00 -2.75556E-03
    9087.172     93.422   5.120  9.94171E-01  1.00554E+00 -1.13726E-02
    9088.739     94.989   5.160  9.86691E-01  1.00596E+00 -1.92717E-02
    9090.317     96.568   5.200  9.79984E-01  1.00635E+00 -2.63627E-02
    9091.909     98.159   5.240  9.74060E-01  1.00671E+00 -3.26536E-02
    9093.512     99.762   5.280  9.68818E-01  1.00702E+00 -3.82004E-02
    9095.127    101.377   5.320  9.64250E-01  1.00728E+00 -4.30313E-02
    9096.755    103.005   5.360  9.60446E-01  1.00753E+00 -4.70794E-02
    9098.395    104.645   5.400  9.57483E-01  1.00771E+00 -5.02217E-02
    9100.047    106.297   5.440  9.55480E-01  1.00784E+00 -5.23603E-02
    9101.711    107.961   5.480  9.54422E-01  1.00793E+00 -5.35114E-02
    9103.387    109.638   5.520  9.54148E-01  1.00799E+00 -5.38375E-02
    9105.076    111.326   5.560  9.54378E-01  1.00799E+00 -5.36168E-02
    9106.777    113.027   5.600  9.54933E-01  1.00796E+00 -5.30279E-02
    9108.490    114.740   5.640  9.55878E-01  1.00788E+00 -5.20061E-02
    9110.215    116.465   5.680  9.57509E-01  1.00774E+00 -5.02329E-02
    9111.952    118.202   5.720  9.60229E-01  1.00758E+00 -4.73518E-02
    9113.702    119.952   5.760  9.64246E-01  1.00736E+00 -4.31095E-02
    9115.463    121.714   5.800  9.69609E-01  1.00711E+00 -3.75037E-02
    9117.237    123.488   5.840  9.76004E-01  1.00681E+00 -3.08062E-02
    9119.023    125.274   5.880  9.82981E-01  1.00649E+00 -2.35114E-02
    9120.822    127.072   5.920  9.89881E-01  1.00611E+00 -1.62337E-02
    9122.632    128.883   5.960  9.96136E-01  1.00572E+00 -9.58869E-03
    9124.455    130.705   6.000  1.00127E+00  1.00524E+00 -3.96992E-03
