# # comment:                                                     FEFF 9.9.1  
# # Source:
# # Structure
# # Reduced
# # space
# # abc:
# # angles:
# # sites:
# # POT  SCF 100  7.0000   0, screened core-hole, AFOLP (folp(0)= 1.150)
# # Abs   Z=29 Rmt= 1.176 Rnm= 1.256 K  shell
# # Pot 1 Z= 3 Rmt= 1.149 Rnm= 1.207
# # Pot 2 Z=57 Rmt= 1.750 Rnm= 1.829
# # Pot 3 Z=29 Rmt= 1.178 Rnm= 1.257
# # Pot 4 Z= 8 Rmt= 1.041 Rnm= 1.087
# # Gam_ch=1.729E+00 H-L exch Vi= 0.000E+00 Vr= 0.000E+00
# # Mu=-8.216E+00eV kf=2.060E+00 Vint=-1.900E+01eV Rs_int= 1.760
# FMS rfms= 9.0000
# # PATH  Rmax=-1.000,  Keep_limit= 0.00, Heap_limit 0.00  Pwcrit= 2.50%
#  S02=0.950  Temp=   0.00  Debye_temp=   0.00  Global_sig2= 0.00000
#  Energy zero shift, vr, vi    0.00000E+00   0.00000E+00
#  Curved wave amplitude ratio filter   4.000%
#     file         sig2 tot  cw amp ratio   deg  nlegs   reff  inp sig2
#     0/   0 paths used
#  xsedge+ 50, used to normalize mu           2.4522E-04
#  -----------------------------------------------------------------------
#  omega    e    k    mu    mu0     chi     @#
    8985.388    -12.026  -1.000  3.98794E-02  5.74476E-02 -1.75682E-02
    8985.686    -11.728  -0.960  4.19801E-02  6.17484E-02 -1.97683E-02
    8985.973    -11.441  -0.920  4.42475E-02  6.65396E-02 -2.22921E-02
    8986.247    -11.167  -0.880  4.67028E-02  7.18948E-02 -2.51920E-02
    8986.509    -10.905  -0.840  4.93707E-02  7.78994E-02 -2.85286E-02
    8986.759    -10.655  -0.800  5.22802E-02  8.46527E-02 -3.23725E-02
    8986.997    -10.417  -0.760  5.54648E-02  9.22690E-02 -3.68042E-02
    8987.222    -10.191  -0.720  5.89630E-02  1.00877E-01 -4.19142E-02
    8987.436     -9.978  -0.680  6.28176E-02  1.10620E-01 -4.78025E-02
    8987.637     -9.777  -0.640  6.70742E-02  1.21648E-01 -5.45739E-02
    8987.826     -9.588  -0.600  7.17774E-02  1.34110E-01 -6.23321E-02
    8988.003     -9.411  -0.560  7.69649E-02  1.48132E-01 -7.11666E-02
    8988.167     -9.246  -0.520  8.26565E-02  1.63790E-01 -8.11339E-02
    8988.320     -9.094  -0.480  8.88404E-02  1.81072E-01 -9.22313E-02
    8988.460     -8.954  -0.440  9.54559E-02  1.99823E-01 -1.04367E-01
    8988.588     -8.826  -0.400  1.02380E-01  2.19714E-01 -1.17333E-01
    8988.704     -8.710  -0.360  1.09425E-01  2.40225E-01 -1.30800E-01
    8988.807     -8.606  -0.320  1.16352E-01  2.60683E-01 -1.44331E-01
    8988.899     -8.515  -0.280  1.22903E-01  2.80337E-01 -1.57434E-01
    8988.978     -8.436  -0.240  1.28843E-01  2.98471E-01 -1.69628E-01
    8989.045     -8.369  -0.200  1.33994E-01  3.14486E-01 -1.80491E-01
    8989.100     -8.314  -0.160  1.38246E-01  3.27947E-01 -1.89701E-01
    8989.143     -8.271  -0.120  1.41547E-01  3.38579E-01 -1.97031E-01
    8989.173     -8.241  -0.080  1.43888E-01  3.46233E-01 -2.02345E-01
    8989.198     -8.216   0.000  1.45735E-01  3.52379E-01 -2.06644E-01
    8989.252     -8.161   0.120  1.49840E-01  3.66214E-01 -2.16375E-01
    8989.295     -8.119   0.160  1.52954E-01  3.76961E-01 -2.24008E-01
    8989.350     -8.064   0.200  1.56837E-01  3.90675E-01 -2.33838E-01
    8989.417     -7.997   0.240  1.61326E-01  4.07110E-01 -2.45783E-01
    8989.496     -7.918   0.280  1.66234E-01  4.25930E-01 -2.59696E-01
    8989.588     -7.826   0.320  1.71381E-01  4.46622E-01 -2.75240E-01
    8989.691     -7.722   0.360  1.76586E-01  4.68531E-01 -2.91945E-01
    8989.807     -7.607   0.400  1.81794E-01  4.90982E-01 -3.09188E-01
    8989.935     -7.479   0.440  1.87107E-01  5.13343E-01 -3.26235E-01
    8990.075     -7.338   0.480  1.92825E-01  5.35160E-01 -3.42335E-01
    8990.228     -7.186   0.520  1.99201E-01  5.56092E-01 -3.56891E-01
    8990.392     -7.021   0.560  2.06489E-01  5.76020E-01 -3.69531E-01
    8990.569     -6.845   0.600  2.14699E-01  5.94870E-01 -3.80171E-01
    8990.758     -6.656   0.640  2.24019E-01  6.12751E-01 -3.88732E-01
    8990.959     -6.455   0.680  2.34851E-01  6.29737E-01 -3.94886E-01
    8991.173     -6.241   0.720  2.48022E-01  6.45935E-01 -3.97913E-01
    8991.398     -6.016   0.760  2.64485E-01  6.61476E-01 -3.96991E-01
    8991.636     -5.778   0.800  2.84575E-01  6.76456E-01 -3.91881E-01
    8991.886     -5.528   0.840  3.06988E-01  6.90960E-01 -3.83972E-01
    8992.148     -5.266   0.880  3.28520E-01  7.05077E-01 -3.76558E-01
    8992.422     -4.991   0.920  3.46156E-01  7.18839E-01 -3.72682E-01
    8992.709     -4.705   0.960  3.60339E-01  7.32306E-01 -3.71967E-01
    8993.008     -4.406   1.000  3.74102E-01  7.45485E-01 -3.71383E-01
    8993.318     -4.095   1.040  3.89848E-01  7.58432E-01 -3.68584E-01
    8993.642     -3.772   1.080  4.08946E-01  7.71119E-01 -3.62172E-01
    8993.977     -3.437   1.120  4.34149E-01  7.83564E-01 -3.49415E-01
    8994.324     -3.090   1.160  4.70369E-01  7.95784E-01 -3.25416E-01
    8994.684     -2.730   1.200  5.23313E-01  8.07751E-01 -2.84437E-01
    8995.056     -2.358   1.240  5.98044E-01  8.19470E-01 -2.21425E-01
    8995.440     -1.974   1.280  6.98802E-01  8.30904E-01 -1.32102E-01
    8995.836     -1.578   1.320  8.30205E-01  8.42076E-01 -1.18705E-02
    8996.245     -1.169   1.360  9.94429E-01  8.52925E-01  1.41504E-01
    8996.665     -0.749   1.400  1.16780E+00  8.63472E-01  3.04330E-01
    8997.098     -0.316   1.440  1.26993E+00  8.73715E-01  3.96220E-01
    8997.543      0.129   1.480  1.23812E+00  8.83587E-01  3.54538E-01
    8998.000      0.586   1.520  1.12901E+00  8.93129E-01  2.35878E-01
    8998.470      1.056   1.560  1.02904E+00  9.02297E-01  1.26746E-01
    8998.951      1.537   1.600  9.82436E-01  9.11069E-01  7.13665E-02
    8999.445      2.031   1.640  1.00750E+00  9.19484E-01  8.80125E-02
    8999.951      2.537   1.680  1.10339E+00  9.27477E-01  1.75916E-01
    9000.469      3.055   1.720  1.24189E+00  9.35091E-01  3.06804E-01
    9000.999      3.586   1.760  1.35313E+00  9.42304E-01  4.10822E-01
    9001.542      4.128   1.800  1.37451E+00  9.49096E-01  4.25418E-01
    9002.097      4.683   1.840  1.32458E+00  9.55490E-01  3.69093E-01
    9002.664      5.250   1.880  1.25618E+00  9.61488E-01  2.94690E-01
    9003.243      5.829   1.920  1.19422E+00  9.67091E-01  2.27132E-01
    9003.834      6.420   1.960  1.13977E+00  9.72282E-01  1.67491E-01
    9004.438      7.024   2.000  1.10168E+00  9.77087E-01  1.24590E-01
    9005.053      7.639   2.040  1.09707E+00  9.81510E-01  1.15558E-01
    9005.681      8.267   2.080  1.11859E+00  9.85557E-01  1.33034E-01
    9006.321      8.907   2.120  1.14868E+00  9.89253E-01  1.59427E-01
    9006.973      9.560   2.160  1.17345E+00  9.92605E-01  1.80850E-01
    9007.638     10.224   2.200  1.18311E+00  9.95600E-01  1.87506E-01
    9008.315     10.901   2.240  1.17538E+00  9.98284E-01  1.77094E-01
    9009.003     11.590   2.280  1.14934E+00  1.00067E+00  1.48672E-01
    9009.704     12.291   2.320  1.10718E+00  1.00273E+00  1.04448E-01
    9010.418     13.004   2.360  1.06073E+00  1.00453E+00  5.61993E-02
    9011.143     13.729   2.400  1.02756E+00  1.00605E+00  2.15082E-02
    9011.881     14.467   2.440  1.01964E+00  1.00731E+00  1.23294E-02
    9012.631     15.217   2.480  1.03692E+00  1.00835E+00  2.85653E-02
    9013.393     15.979   2.520  1.05873E+00  1.00916E+00  4.95670E-02
    9014.167     16.753   2.560  1.07361E+00  1.00978E+00  6.38247E-02
    9014.953     17.539   2.600  1.08085E+00  1.01020E+00  7.06452E-02
    9015.752     18.338   2.640  1.08197E+00  1.01045E+00  7.15210E-02
    9016.562     19.149   2.680  1.07896E+00  1.01053E+00  6.84256E-02
    9017.385     19.972   2.720  1.07285E+00  1.01046E+00  6.23889E-02
    9018.221     20.807   2.760  1.06372E+00  1.01028E+00  5.34445E-02
    9019.068     21.654   2.800  1.05072E+00  1.00995E+00  4.07727E-02
    9019.927     22.514   2.840  1.03341E+00  1.00953E+00  2.38793E-02
    9020.799     23.385   2.880  1.01230E+00  1.00902E+00  3.27994E-03
    9021.683     24.269   2.920  9.88881E-01  1.00842E+00 -1.95413E-02
    9022.579     25.165   2.960  9.64880E-01  1.00775E+00 -4.28691E-02
    9023.487     26.074   3.000  9.42499E-01  1.00702E+00 -6.45257E-02
    9024.408     26.994   3.040  9.23625E-01  1.00625E+00 -8.26292E-02
    9025.341     27.927   3.080  9.08873E-01  1.00544E+00 -9.65694E-02
    9026.285     28.872   3.120  8.98057E-01  1.00459E+00 -1.06536E-01
    9027.243     29.829   3.160  8.90456E-01  1.00373E+00 -1.13276E-01
    9028.212     30.798   3.200  8.85362E-01  1.00284E+00 -1.17482E-01
    9029.193     31.779   3.240  8.82729E-01  1.00197E+00 -1.19243E-01
    9030.187     32.773   3.280  8.82647E-01  1.00108E+00 -1.18432E-01
    9031.193     33.779   3.320  8.85144E-01  1.00021E+00 -1.15067E-01
    9032.211     34.797   3.360  8.89904E-01  9.99372E-01 -1.09468E-01
    9033.241     35.827   3.400  8.96059E-01  9.98542E-01 -1.02483E-01
    9034.283     36.870   3.440  9.02340E-01  9.97722E-01 -9.53821E-02
    9035.338     37.924   3.480  9.07833E-01  9.96960E-01 -8.91269E-02
    9036.405     38.991   3.520  9.12175E-01  9.96214E-01 -8.40397E-02
    9037.484     40.070   3.560  9.15777E-01  9.95528E-01 -7.97516E-02
    9038.575     41.161   3.600  9.19299E-01  9.94863E-01 -7.55636E-02
    9039.678     42.265   3.640  9.23507E-01  9.94261E-01 -7.07547E-02
    9040.794     43.380   3.680  9.28778E-01  9.93703E-01 -6.49247E-02
    9041.922     44.508   3.720  9.34993E-01  9.93190E-01 -5.81969E-02
    9043.062     45.648   3.760  9.41864E-01  9.92744E-01 -5.08798E-02
    9044.214     46.800   3.800  9.49178E-01  9.92344E-01 -4.31655E-02
    9045.378     47.964   3.840  9.56865E-01  9.91992E-01 -3.51267E-02
    9046.555     49.141   3.880  9.64971E-01  9.91709E-01 -2.67378E-02
    9047.743     50.329   3.920  9.73641E-01  9.91495E-01 -1.78541E-02
    9048.944     51.530   3.960  9.82981E-01  9.91307E-01 -8.32671E-03
    9050.157     52.744   4.000  9.93010E-01  9.91188E-01  1.82248E-03
    9051.383     53.969   4.040  1.00334E+00  9.91139E-01  1.22009E-02
    9052.620     55.206   4.080  1.01318E+00  9.91137E-01  2.20472E-02
    9053.870     56.456   4.120  1.02161E+00  9.91182E-01  3.04266E-02
    9055.132     57.718   4.160  1.02798E+00  9.91294E-01  3.66828E-02
    9056.406     58.992   4.200  1.03228E+00  9.91453E-01  4.08310E-02
    9057.692     60.278   4.240  1.03513E+00  9.91656E-01  4.34697E-02
    9058.990     61.577   4.280  1.03727E+00  9.91925E-01  4.53496E-02
    9060.301     62.887   4.320  1.03939E+00  9.92236E-01  4.71539E-02
    9061.624     64.210   4.360  1.04188E+00  9.92567E-01  4.93164E-02
    9062.959     65.545   4.400  1.04476E+00  9.92961E-01  5.18034E-02
    9064.306     66.892   4.440  1.04770E+00  9.93394E-01  5.43062E-02
    9065.665     68.252   4.480  1.05040E+00  9.93866E-01  5.65367E-02
    9067.037     69.623   4.520  1.05293E+00  9.94353E-01  5.85752E-02
    9068.421     71.007   4.560  1.05582E+00  9.94896E-01  6.09216E-02
    9069.817     72.403   4.600  1.05960E+00  9.95451E-01  6.41447E-02
    9071.225     73.811   4.640  1.06446E+00  9.96015E-01  6.84463E-02
    9072.645     75.232   4.680  1.07005E+00  9.96611E-01  7.34389E-02
    9074.078     76.664   4.720  1.07544E+00  9.97236E-01  7.82029E-02
    9075.523     78.109   4.760  1.07933E+00  9.97868E-01  8.14654E-02
    9076.980     79.566   4.800  1.08048E+00  9.98503E-01  8.19793E-02
    9078.449     81.035   4.840  1.07794E+00  9.99140E-01  7.88002E-02
    9079.930     82.516   4.880  1.07128E+00  9.99800E-01  7.14767E-02
    9081.424     84.010   4.920  1.06070E+00  1.00044E+00  6.02595E-02
    9082.929     85.515   4.960  1.04721E+00  1.00107E+00  4.61450E-02
    9084.447     87.033   5.000  1.03226E+00  1.00170E+00  3.05634E-02
    9085.977     88.563   5.040  1.01726E+00  1.00232E+00  1.49406E-02
    9087.520     90.106   5.080  1.00326E+00  1.00294E+00  3.15780E-04
    9089.074     91.660   5.120  9.91017E-01  1.00353E+00 -1.25134E-02
    9090.641     93.227   5.160  9.81224E-01  1.00408E+00 -2.28605E-02
    9092.220     94.806   5.200  9.74584E-01  1.00463E+00 -3.00444E-02
    9093.811     96.397   5.240  9.71409E-01  1.00516E+00 -3.37498E-02
    9095.414     98.000   5.280  9.71349E-01  1.00563E+00 -3.42813E-02
    9097.029     99.615   5.320  9.73559E-01  1.00609E+00 -3.25287E-02
    9098.657    101.243   5.360  9.76809E-01  1.00651E+00 -2.96969E-02
    9100.297    102.883   5.400  9.79809E-01  1.00689E+00 -2.70759E-02
    9101.949    104.535   5.440  9.81264E-01  1.00722E+00 -2.59600E-02
    9103.613    106.199   5.480  9.80173E-01  1.00752E+00 -2.73472E-02
    9105.289    107.875   5.520  9.76393E-01  1.00778E+00 -3.13826E-02
    9106.978    109.564   5.560  9.70760E-01  1.00799E+00 -3.72296E-02
    9108.679    111.265   5.600  9.64476E-01  1.00816E+00 -4.36848E-02
    9110.392    112.978   5.640  9.58415E-01  1.00829E+00 -4.98741E-02
    9112.117    114.703   5.680  9.52910E-01  1.00835E+00 -5.54400E-02
    9113.854    116.440   5.720  9.48048E-01  1.00839E+00 -6.03424E-02
    9115.604    118.190   5.760  9.43855E-01  1.00836E+00 -6.45084E-02
    9117.365    119.952   5.800  9.40738E-01  1.00829E+00 -6.75524E-02
    9119.139    121.726   5.840  9.39445E-01  1.00815E+00 -6.87063E-02
    9120.926    123.512   5.880  9.40843E-01  1.00799E+00 -6.71507E-02
    9122.724    125.310   5.920  9.45191E-01  1.00777E+00 -6.25798E-02
    9124.534    127.120   5.960  9.52017E-01  1.00750E+00 -5.54825E-02
    9126.357    128.943   6.000  9.60500E-01  1.00715E+00 -4.66506E-02
