# # comment:                                                     FEFF 9.9.1  
# # Source:
# # Structure
# # Reduced
# # space
# # abc:
# # angles:114.407009
# # sites:
# # POT  SCF 100  7.0000   0, screened core-hole, AFOLP (folp(0)= 1.150)
# # Abs   Z=29 Rmt= 1.161 Rnm= 1.280 K  shell
# # Pot 1 Z=56 Rmt= 1.966 Rnm= 2.016
# # Pot 2 Z=62 Rmt= 1.684 Rnm= 1.763
# # Pot 3 Z=29 Rmt= 1.130 Rnm= 1.286
# # Pot 4 Z= 8 Rmt= 1.088 Rnm= 1.139
# # Gam_ch=1.729E+00 H-L exch Vi= 0.000E+00 Vr= 0.000E+00
# # Mu=-9.098E+00eV kf=1.970E+00 Vint=-1.757E+01eV Rs_int= 1.841
# FMS rfms= 9.0000
# # PATH  Rmax=-1.000,  Keep_limit= 0.00, Heap_limit 0.00  Pwcrit= 2.50%
#  S02=0.950  Temp=   0.00  Debye_temp=   0.00  Global_sig2= 0.00000
#  Energy zero shift, vr, vi    0.00000E+00   0.00000E+00
#  Curved wave amplitude ratio filter   4.000%
#     file         sig2 tot  cw amp ratio   deg  nlegs   reff  inp sig2
#     0/   0 paths used
#  xsedge+ 50, used to normalize mu           2.4524E-04
#  -----------------------------------------------------------------------
#  omega    e    k    mu    mu0     chi     @#
    8985.020    -12.908  -1.000  3.65340E-02  5.54572E-02 -1.89231E-02
    8985.319    -12.609  -0.960  3.84789E-02  5.94936E-02 -2.10147E-02
    8985.605    -12.323  -0.920  4.05944E-02  6.39779E-02 -2.33836E-02
    8985.880    -12.049  -0.880  4.29044E-02  6.89758E-02 -2.60714E-02
    8986.142    -11.786  -0.840  4.54371E-02  7.45636E-02 -2.91265E-02
    8986.392    -11.536  -0.800  4.82257E-02  8.08300E-02 -3.26043E-02
    8986.630    -11.299  -0.760  5.13083E-02  8.78765E-02 -3.65682E-02
    8986.855    -11.073  -0.720  5.47286E-02  9.58177E-02 -4.10891E-02
    8987.069    -10.860  -0.680  5.85352E-02  1.04780E-01 -4.62447E-02
    8987.270    -10.659  -0.640  6.27798E-02  1.14896E-01 -5.21165E-02
    8987.459    -10.470  -0.600  6.75139E-02  1.26298E-01 -5.87838E-02
    8987.635    -10.293  -0.560  7.27819E-02  1.39095E-01 -6.63133E-02
    8987.800    -10.128  -0.520  7.86119E-02  1.53355E-01 -7.47434E-02
    8987.952     -9.976  -0.480  8.50007E-02  1.69063E-01 -8.40618E-02
    8988.093     -9.836  -0.440  9.18989E-02  1.86079E-01 -9.41805E-02
    8988.221     -9.708  -0.400  9.91956E-02  2.04110E-01 -1.04914E-01
    8988.336     -9.592  -0.360  1.06714E-01  2.22691E-01 -1.15977E-01
    8988.440     -9.488  -0.320  1.14221E-01  2.41218E-01 -1.26997E-01
    8988.532     -9.397  -0.280  1.21454E-01  2.59023E-01 -1.37569E-01
    8988.611     -9.318  -0.240  1.28154E-01  2.75460E-01 -1.47305E-01
    8988.678     -9.250  -0.200  1.34100E-01  2.89988E-01 -1.55889E-01
    8988.733     -9.196  -0.160  1.39122E-01  3.02213E-01 -1.63091E-01
    8988.775     -9.153  -0.120  1.43108E-01  3.11878E-01 -1.68770E-01
    8988.806     -9.122  -0.080  1.45990E-01  3.18843E-01 -1.72853E-01
    8988.830     -9.098   0.000  1.48314E-01  3.24440E-01 -1.76126E-01
    8988.885     -9.043   0.120  1.53568E-01  3.37047E-01 -1.83480E-01
    8988.928     -9.001   0.160  1.57655E-01  3.46877E-01 -1.89221E-01
    8988.983     -8.946   0.200  1.62833E-01  3.59405E-01 -1.96572E-01
    8989.050     -8.879   0.240  1.69012E-01  3.74486E-01 -2.05475E-01
    8989.129     -8.799   0.280  1.75984E-01  3.91829E-01 -2.15844E-01
    8989.220     -8.708   0.320  1.83425E-01  4.10979E-01 -2.27554E-01
    8989.324     -8.604   0.360  1.90847E-01  4.31400E-01 -2.40553E-01
    8989.440     -8.488   0.400  1.97620E-01  4.52519E-01 -2.54899E-01
    8989.568     -8.360   0.440  2.03075E-01  4.73793E-01 -2.70718E-01
    8989.708     -8.220   0.480  2.06664E-01  4.94816E-01 -2.88152E-01
    8989.860     -8.068   0.520  2.08209E-01  5.15310E-01 -3.07101E-01
    8990.025     -7.903   0.560  2.08129E-01  5.35154E-01 -3.27025E-01
    8990.202     -7.726   0.600  2.07266E-01  5.54316E-01 -3.47050E-01
    8990.391     -7.538   0.640  2.06550E-01  5.72811E-01 -3.66261E-01
    8990.592     -7.336   0.680  2.06764E-01  5.90751E-01 -3.83987E-01
    8990.805     -7.123   0.720  2.08446E-01  6.08201E-01 -3.99755E-01
    8991.031     -6.897   0.760  2.11983E-01  6.25267E-01 -4.13283E-01
    8991.269     -6.660   0.800  2.17775E-01  6.41979E-01 -4.24204E-01
    8991.519     -6.410   0.840  2.26535E-01  6.58462E-01 -4.31927E-01
    8991.781     -6.148   0.880  2.39140E-01  6.74699E-01 -4.35559E-01
    8992.055     -5.873   0.920  2.56704E-01  6.90744E-01 -4.34041E-01
    8992.342     -5.587   0.960  2.80255E-01  7.06618E-01 -4.26364E-01
    8992.640     -5.288   1.000  3.10321E-01  7.22331E-01 -4.12010E-01
    8992.951     -4.977   1.040  3.46214E-01  7.37861E-01 -3.91648E-01
    8993.274     -4.654   1.080  3.85971E-01  7.53204E-01 -3.67233E-01
    8993.609     -4.319   1.120  4.28545E-01  7.68345E-01 -3.39800E-01
    8993.957     -3.971   1.160  4.76371E-01  7.83246E-01 -3.06876E-01
    8994.317     -3.612   1.200  5.31368E-01  7.97906E-01 -2.66538E-01
    8994.688     -3.240   1.240  5.82448E-01  8.12258E-01 -2.29810E-01
    8995.073     -2.856   1.280  6.07625E-01  8.26316E-01 -2.18691E-01
    8995.469     -2.460   1.320  6.03685E-01  8.40011E-01 -2.36326E-01
    8995.877     -2.051   1.360  5.93859E-01  8.53334E-01 -2.59475E-01
    8996.298     -1.631   1.400  5.99430E-01  8.66254E-01 -2.66824E-01
    8996.731     -1.198   1.440  6.28164E-01  8.78744E-01 -2.50580E-01
    8997.176     -0.753   1.480  6.75473E-01  8.90772E-01 -2.15299E-01
    8997.633     -0.295   1.520  7.20114E-01  9.02309E-01 -1.82195E-01
    8998.102      0.174   1.560  7.29519E-01  9.13351E-01 -1.83832E-01
    8998.584      0.655   1.600  7.10505E-01  9.23870E-01 -2.13364E-01
    8999.078      1.149   1.640  7.07356E-01  9.33859E-01 -2.26503E-01
    8999.584      1.655   1.680  7.47927E-01  9.43297E-01 -1.95370E-01
    9000.102      2.173   1.720  8.41452E-01  9.52201E-01 -1.10749E-01
    9000.632      2.704   1.760  9.84288E-01  9.60530E-01  2.37577E-02
    9001.175      3.246   1.800  1.16782E+00  9.68327E-01  1.99491E-01
    9001.729      3.801   1.840  1.36223E+00  9.75550E-01  3.86681E-01
    9002.296      4.368   1.880  1.50639E+00  9.82225E-01  5.24161E-01
    9002.875      4.947   1.920  1.55016E+00  9.88357E-01  5.61801E-01
    9003.467      5.538   1.960  1.50144E+00  9.93972E-01  5.07466E-01
    9004.070      6.142   2.000  1.41941E+00  9.99057E-01  4.20357E-01
    9004.686      6.758   2.040  1.34445E+00  1.00366E+00  3.40786E-01
    9005.314      7.385   2.080  1.29057E+00  1.00775E+00  2.82817E-01
    9005.954      8.026   2.120  1.25847E+00  1.01137E+00  2.47097E-01
    9006.606      8.678   2.160  1.23812E+00  1.01457E+00  2.23552E-01
    9007.271      9.342   2.200  1.21587E+00  1.01732E+00  1.98557E-01
    9007.947     10.019   2.240  1.18427E+00  1.01968E+00  1.64594E-01
    9008.636     10.708   2.280  1.14943E+00  1.02164E+00  1.27793E-01
    9009.337     11.409   2.320  1.12545E+00  1.02325E+00  1.02209E-01
    9010.050     12.122   2.360  1.11829E+00  1.02450E+00  9.37891E-02
    9010.776     12.847   2.400  1.12736E+00  1.02542E+00  1.01938E-01
    9011.513     13.585   2.440  1.14451E+00  1.02608E+00  1.18437E-01
    9012.263     14.335   2.480  1.16572E+00  1.02645E+00  1.39271E-01
    9013.025     15.097   2.520  1.18081E+00  1.02655E+00  1.54265E-01
    9013.799     15.871   2.560  1.18091E+00  1.02645E+00  1.54460E-01
    9014.586     16.657   2.600  1.16514E+00  1.02612E+00  1.39023E-01
    9015.384     17.456   2.640  1.13873E+00  1.02559E+00  1.13140E-01
    9016.195     18.267   2.680  1.10773E+00  1.02491E+00  8.28165E-02
    9017.018     19.090   2.720  1.07690E+00  1.02407E+00  5.28293E-02
    9017.853     19.925   2.760  1.04888E+00  1.02309E+00  2.57900E-02
    9018.701     20.772   2.800  1.02437E+00  1.02200E+00  2.36846E-03
    9019.560     21.632   2.840  1.00357E+00  1.02082E+00 -1.72426E-02
    9020.432     22.503   2.880  9.86163E-01  1.01953E+00 -3.33681E-02
    9021.316     23.387   2.920  9.71233E-01  1.01819E+00 -4.69567E-02
    9022.212     24.283   2.960  9.58188E-01  1.01680E+00 -5.86089E-02
    9023.120     25.192   3.000  9.46752E-01  1.01534E+00 -6.85896E-02
    9024.041     26.112   3.040  9.36844E-01  1.01387E+00 -7.70264E-02
    9024.973     27.045   3.080  9.28413E-01  1.01239E+00 -8.39755E-02
    9025.918     27.990   3.120  9.21346E-01  1.01088E+00 -8.95338E-02
    9026.875     28.947   3.160  9.15209E-01  1.00937E+00 -9.41628E-02
    9027.844     29.916   3.200  9.09204E-01  1.00789E+00 -9.86855E-02
    9028.826     30.898   3.240  9.02552E-01  1.00644E+00 -1.03885E-01
    9029.820     31.891   3.280  8.94751E-01  1.00500E+00 -1.10247E-01
    9030.825     32.897   3.320  8.85934E-01  1.00360E+00 -1.17661E-01
    9031.843     33.915   3.360  8.76864E-01  1.00223E+00 -1.25368E-01
    9032.874     34.945   3.400  8.68802E-01  1.00091E+00 -1.32111E-01
    9033.916     35.988   3.440  8.62933E-01  9.99659E-01 -1.36726E-01
    9034.971     37.042   3.480  8.60293E-01  9.98455E-01 -1.38162E-01
    9036.037     38.109   3.520  8.61572E-01  9.97322E-01 -1.35750E-01
    9037.116     39.188   3.560  8.66861E-01  9.96241E-01 -1.29381E-01
    9038.208     40.279   3.600  8.75742E-01  9.95235E-01 -1.19492E-01
    9039.311     41.383   3.640  8.87578E-01  9.94305E-01 -1.06727E-01
    9040.427     42.498   3.680  9.01635E-01  9.93452E-01 -9.18170E-02
    9041.554     43.626   3.720  9.16986E-01  9.92656E-01 -7.56704E-02
    9042.694     44.766   3.760  9.32814E-01  9.91961E-01 -5.91466E-02
    9043.846     45.918   3.800  9.48149E-01  9.91344E-01 -4.31950E-02
    9045.011     47.082   3.840  9.62011E-01  9.90785E-01 -2.87733E-02
    9046.187     48.259   3.880  9.73724E-01  9.90305E-01 -1.65811E-02
    9047.376     49.448   3.920  9.83203E-01  9.89928E-01 -6.72432E-03
    9048.577     50.649   3.960  9.90921E-01  9.89609E-01  1.31127E-03
    9049.790     51.862   4.000  9.98020E-01  9.89390E-01  8.62993E-03
    9051.015     53.087   4.040  1.00581E+00  9.89228E-01  1.65852E-02
    9052.253     54.324   4.080  1.01521E+00  9.89144E-01  2.60705E-02
    9053.502     55.574   4.120  1.02607E+00  9.89134E-01  3.69348E-02
    9054.764     56.836   4.160  1.03710E+00  9.89180E-01  4.79158E-02
    9056.038     58.110   4.200  1.04646E+00  9.89323E-01  5.71369E-02
    9057.325     59.396   4.240  1.05251E+00  9.89518E-01  6.29900E-02
    9058.623     60.695   4.280  1.05472E+00  9.89762E-01  6.49546E-02
    9059.934     62.005   4.320  1.05382E+00  9.90078E-01  6.37380E-02
    9061.257     63.328   4.360  1.05114E+00  9.90467E-01  6.06694E-02
    9062.592     64.663   4.400  1.04813E+00  9.90900E-01  5.72258E-02
    9063.939     66.010   4.440  1.04618E+00  9.91376E-01  5.48083E-02
    9065.298     67.370   4.480  1.04652E+00  9.91896E-01  5.46241E-02
    9066.670     68.741   4.520  1.04993E+00  9.92456E-01  5.74755E-02
    9068.054     70.125   4.560  1.05656E+00  9.93056E-01  6.35042E-02
    9069.449     71.521   4.600  1.06560E+00  9.93718E-01  7.18830E-02
    9070.858     72.929   4.640  1.07519E+00  9.94394E-01  8.08009E-02
    9072.278     74.350   4.680  1.08300E+00  9.95080E-01  8.79226E-02
    9073.711     75.782   4.720  1.08697E+00  9.95820E-01  9.11466E-02
    9075.155     77.227   4.760  1.08579E+00  9.96546E-01  8.92444E-02
    9076.612     78.684   4.800  1.07945E+00  9.97298E-01  8.21527E-02
    9078.081     80.153   4.840  1.06874E+00  9.98056E-01  7.06884E-02
    9079.563     81.634   4.880  1.05485E+00  9.98839E-01  5.60080E-02
    9081.056     83.128   4.920  1.03893E+00  9.99600E-01  3.93312E-02
    9082.562     84.634   4.960  1.02233E+00  1.00038E+00  2.19484E-02
    9084.080     86.152   5.000  1.00643E+00  1.00114E+00  5.29899E-03
    9085.610     87.682   5.040  9.92749E-01  1.00188E+00 -9.13319E-03
    9087.152     89.224   5.080  9.82448E-01  1.00260E+00 -2.01514E-02
    9088.707     90.778   5.120  9.76176E-01  1.00331E+00 -2.71329E-02
    9090.273     92.345   5.160  9.73805E-01  1.00401E+00 -3.02032E-02
    9091.852     93.924   5.200  9.74443E-01  1.00467E+00 -3.02286E-02
    9093.443     95.515   5.240  9.76612E-01  1.00530E+00 -2.86855E-02
    9095.046     97.118   5.280  9.78816E-01  1.00588E+00 -2.70679E-02
    9096.662     98.734   5.320  9.80275E-01  1.00643E+00 -2.61539E-02
    9098.290    100.361   5.360  9.80647E-01  1.00694E+00 -2.62889E-02
    9099.929    102.001   5.400  9.80501E-01  1.00742E+00 -2.69238E-02
    9101.581    103.653   5.440  9.80240E-01  1.00785E+00 -2.76066E-02
    9103.246    105.317   5.480  9.80074E-01  1.00822E+00 -2.81508E-02
    9104.922    106.994   5.520  9.79925E-01  1.00856E+00 -2.86327E-02
    9106.611    108.682   5.560  9.79559E-01  1.00882E+00 -2.92614E-02
    9108.311    110.383   5.600  9.78780E-01  1.00904E+00 -3.02572E-02
    9110.024    112.096   5.640  9.77356E-01  1.00921E+00 -3.18526E-02
    9111.749    113.821   5.680  9.75613E-01  1.00933E+00 -3.37221E-02
    9113.487    115.558   5.720  9.73645E-01  1.00939E+00 -3.57460E-02
    9115.236    117.308   5.760  9.71355E-01  1.00940E+00 -3.80431E-02
    9116.998    119.070   5.800  9.68240E-01  1.00934E+00 -4.10952E-02
    9118.772    120.844   5.840  9.64063E-01  1.00922E+00 -4.51615E-02
    9120.558    122.630   5.880  9.59386E-01  1.00905E+00 -4.96598E-02
    9122.356    124.428   5.920  9.55596E-01  1.00885E+00 -5.32514E-02
    9124.167    126.239   5.960  9.54078E-01  1.00857E+00 -5.44968E-02
    9125.990    128.061   6.000  9.55760E-01  1.00818E+00 -5.24254E-02
