# # comment:                                                     FEFF 9.9.1  
# # Source:
# # Structure
# # Reduced
# # space
# # abc:
# # angles:
# # sites:
# # POT  SCF 100  7.0000   0, screened core-hole, AFOLP (folp(0)= 1.150)
# # Abs   Z=29 Rmt= 1.232 Rnm= 1.299 K  shell
# # Pot 1 Z=30 Rmt= 1.471 Rnm= 1.542
# # Pot 2 Z=29 Rmt= 1.227 Rnm= 1.291
# # Pot 3 Z=15 Rmt= 0.942 Rnm= 1.153
# # Pot 4 Z= 8 Rmt= 0.914 Rnm= 1.033
# # Gam_ch=1.729E+00 H-L exch Vi= 0.000E+00 Vr= 0.000E+00
# # Mu=-7.577E+00eV kf=2.491E+00 Vint=-1.801E+01eV Rs_int= 1.456
# FMS rfms= 9.0000
# # PATH  Rmax=-1.000,  Keep_limit= 0.00, Heap_limit 0.00  Pwcrit= 2.50%
#  S02=0.950  Temp=   0.00  Debye_temp=   0.00  Global_sig2= 0.00000
#  Energy zero shift, vr, vi    0.00000E+00   0.00000E+00
#  Curved wave amplitude ratio filter   4.000%
#     file         sig2 tot  cw amp ratio   deg  nlegs   reff  inp sig2
#     0/   0 paths used
#  xsedge+ 50, used to normalize mu           2.5087E-04
#  -----------------------------------------------------------------------
#  omega    e    k    mu    mu0     chi     @#
    8983.336    -11.387  -1.000  3.09661E-02  4.89379E-02 -1.79718E-02
    8983.635    -11.088  -0.960  3.23293E-02  5.24276E-02 -2.00984E-02
    8983.921    -10.802  -0.920  3.37736E-02  5.63038E-02 -2.25302E-02
    8984.195    -10.527  -0.880  3.53062E-02  6.06234E-02 -2.53172E-02
    8984.458    -10.265  -0.840  3.69352E-02  6.54529E-02 -2.85177E-02
    8984.707    -10.015  -0.800  3.86696E-02  7.08695E-02 -3.21999E-02
    8984.945     -9.778  -0.760  4.05195E-02  7.69617E-02 -3.64422E-02
    8985.171     -9.552  -0.720  4.24958E-02  8.38295E-02 -4.13337E-02
    8985.384     -9.339  -0.680  4.46103E-02  9.15832E-02 -4.69729E-02
    8985.585     -9.137  -0.640  4.68745E-02  1.00339E-01 -5.34647E-02
    8985.774     -8.949  -0.600  4.92991E-02  1.10212E-01 -6.09132E-02
    8985.951     -8.772  -0.560  5.18910E-02  1.21300E-01 -6.94089E-02
    8986.116     -8.607  -0.520  5.46513E-02  1.33661E-01 -7.90093E-02
    8986.268     -8.455  -0.480  5.75701E-02  1.47282E-01 -8.97115E-02
    8986.408     -8.315  -0.440  6.06222E-02  1.62043E-01 -1.01421E-01
    8986.536     -8.187  -0.400  6.37630E-02  1.77688E-01 -1.13925E-01
    8986.652     -8.071  -0.360  6.69274E-02  1.93810E-01 -1.26882E-01
    8986.756     -7.967  -0.320  7.00337E-02  2.09884E-01 -1.39850E-01
    8986.847     -7.876  -0.280  7.29920E-02  2.25326E-01 -1.52334E-01
    8986.926     -7.796  -0.240  7.57152E-02  2.39575E-01 -1.63859E-01
    8986.993     -7.729  -0.200  7.81283E-02  2.52162E-01 -1.74034E-01
    8987.048     -7.674  -0.160  8.01728E-02  2.62747E-01 -1.82574E-01
    8987.091     -7.632  -0.120  8.18064E-02  2.71110E-01 -1.89304E-01
    8987.121     -7.601  -0.080  8.29999E-02  2.77134E-01 -1.94134E-01
    8987.146     -7.577   0.000  8.39855E-02  2.81973E-01 -1.97987E-01
    8987.201     -7.522   0.120  8.62072E-02  2.92875E-01 -2.06668E-01
    8987.243     -7.479   0.160  8.79245E-02  3.01349E-01 -2.13424E-01
    8987.298     -7.425   0.200  9.01090E-02  3.12156E-01 -2.22046E-01
    8987.365     -7.357   0.240  9.27680E-02  3.25141E-01 -2.32373E-01
    8987.445     -7.278   0.280  9.59107E-02  3.40035E-01 -2.44124E-01
    8987.536     -7.187   0.320  9.94936E-02  3.56448E-01 -2.56954E-01
    8987.640     -7.083   0.360  1.03525E-01  3.73896E-01 -2.70371E-01
    8987.755     -6.967   0.400  1.07977E-01  3.91867E-01 -2.83890E-01
    8987.883     -6.839   0.440  1.12812E-01  4.09852E-01 -2.97040E-01
    8988.024     -6.699   0.480  1.18078E-01  4.27530E-01 -3.09452E-01
    8988.176     -6.547   0.520  1.23749E-01  4.44653E-01 -3.20905E-01
    8988.341     -6.382   0.560  1.29846E-01  4.61098E-01 -3.31252E-01
    8988.517     -6.205   0.600  1.36552E-01  4.76857E-01 -3.40305E-01
    8988.706     -6.016   0.640  1.44225E-01  4.92006E-01 -3.47781E-01
    8988.908     -5.815   0.680  1.53336E-01  5.06575E-01 -3.53240E-01
    8989.121     -5.602   0.720  1.64657E-01  5.20706E-01 -3.56048E-01
    8989.346     -5.376   0.760  1.78928E-01  5.34459E-01 -3.55531E-01
    8989.584     -5.139   0.800  1.96821E-01  5.47929E-01 -3.51109E-01
    8989.834     -4.889   0.840  2.18746E-01  5.61198E-01 -3.42451E-01
    8990.096     -4.626   0.880  2.44462E-01  5.74315E-01 -3.29852E-01
    8990.371     -4.352   0.920  2.72712E-01  5.87319E-01 -3.14606E-01
    8990.657     -4.066   0.960  3.01131E-01  6.00256E-01 -2.99125E-01
    8990.956     -3.767   1.000  3.26841E-01  6.13165E-01 -2.86324E-01
    8991.267     -3.456   1.040  3.47868E-01  6.26034E-01 -2.78166E-01
    8991.590     -3.133   1.080  3.63785E-01  6.38867E-01 -2.75082E-01
    8991.925     -2.798   1.120  3.75325E-01  6.51701E-01 -2.76376E-01
    8992.273     -2.450   1.160  3.83597E-01  6.64524E-01 -2.80927E-01
    8992.632     -2.091   1.200  3.90107E-01  6.77306E-01 -2.87198E-01
    8993.004     -1.719   1.240  3.98833E-01  6.90050E-01 -2.91217E-01
    8993.388     -1.335   1.280  4.16288E-01  7.02738E-01 -2.86449E-01
    8993.784     -0.938   1.320  4.47062E-01  7.15367E-01 -2.68305E-01
    8994.193     -0.530   1.360  4.89308E-01  7.27913E-01 -2.38605E-01
    8994.613     -0.109   1.400  5.33898E-01  7.40354E-01 -2.06455E-01
    8995.046      0.323   1.440  5.68398E-01  7.52663E-01 -1.84265E-01
    8995.491      0.768   1.480  5.89561E-01  7.64831E-01 -1.75271E-01
    8995.948      1.226   1.520  6.14212E-01  7.76814E-01 -1.62602E-01
    8996.418      1.695   1.560  6.62872E-01  7.88642E-01 -1.25771E-01
    8996.899      2.177   1.600  7.38369E-01  8.00228E-01 -6.18590E-02
    8997.393      2.670   1.640  8.29131E-01  8.11604E-01  1.75279E-02
    8997.899      3.176   1.680  9.21253E-01  8.22720E-01  9.85323E-02
    8998.417      3.695   1.720  1.00707E+00  8.33591E-01  1.73481E-01
    8998.948      4.225   1.760  1.08877E+00  8.44147E-01  2.44622E-01
    8999.490      4.767   1.800  1.15902E+00  8.54424E-01  3.04594E-01
    9000.045      5.322   1.840  1.20307E+00  8.64374E-01  3.38693E-01
    9000.612      5.889   1.880  1.22954E+00  8.74011E-01  3.55534E-01
    9001.191      6.468   1.920  1.24863E+00  8.83289E-01  3.65342E-01
    9001.782      7.060   1.960  1.24968E+00  8.92205E-01  3.57472E-01
    9002.386      7.663   2.000  1.22160E+00  9.00775E-01  3.20829E-01
    9003.001      8.279   2.040  1.17128E+00  9.08975E-01  2.62305E-01
    9003.629      8.907   2.080  1.11779E+00  9.16803E-01  2.00991E-01
    9004.269      9.547   2.120  1.07806E+00  9.24259E-01  1.53801E-01
    9004.922     10.199   2.160  1.06212E+00  9.31321E-01  1.30800E-01
    9005.586     10.863   2.200  1.07754E+00  9.38007E-01  1.39536E-01
    9006.263     11.540   2.240  1.11972E+00  9.44321E-01  1.75402E-01
    9006.952     12.229   2.280  1.16772E+00  9.50242E-01  2.17476E-01
    9007.653     12.930   2.320  1.20482E+00  9.55792E-01  2.49023E-01
    9008.366     13.643   2.360  1.22739E+00  9.60975E-01  2.66411E-01
    9009.091     14.369   2.400  1.23425E+00  9.65794E-01  2.68454E-01
    9009.829     15.106   2.440  1.22134E+00  9.70251E-01  2.51085E-01
    9010.579     15.856   2.480  1.19025E+00  9.74372E-01  2.15883E-01
    9011.341     16.618   2.520  1.15528E+00  9.78141E-01  1.77136E-01
    9012.115     17.392   2.560  1.13769E+00  9.81581E-01  1.56104E-01
    9012.901     18.179   2.600  1.14730E+00  9.84699E-01  1.62601E-01
    9013.700     18.977   2.640  1.17274E+00  9.87500E-01  1.85238E-01
    9014.511     19.788   2.680  1.18580E+00  9.90010E-01  1.95785E-01
    9015.334     20.611   2.720  1.16080E+00  9.92236E-01  1.68564E-01
    9016.169     21.446   2.760  1.10185E+00  9.94183E-01  1.07664E-01
    9017.016     22.293   2.800  1.03395E+00  9.95857E-01  3.80884E-02
    9017.876     23.153   2.840  9.72794E-01  9.97307E-01 -2.45124E-02
    9018.747     24.025   2.880  9.22687E-01  9.98498E-01 -7.58114E-02
    9019.631     24.909   2.920  8.87919E-01  9.99497E-01 -1.11578E-01
    9020.527     25.805   2.960  8.64421E-01  1.00027E+00 -1.35849E-01
    9021.436     26.713   3.000  8.47285E-01  1.00084E+00 -1.53557E-01
    9022.356     27.633   3.040  8.34122E-01  1.00122E+00 -1.67100E-01
    9023.289     28.566   3.080  8.23679E-01  1.00146E+00 -1.77776E-01
    9024.234     29.511   3.120  8.15594E-01  1.00151E+00 -1.85914E-01
    9025.191     30.468   3.160  8.10143E-01  1.00143E+00 -1.91285E-01
    9026.160     31.437   3.200  8.07493E-01  1.00122E+00 -1.93727E-01
    9027.142     32.419   3.240  8.07840E-01  1.00087E+00 -1.93030E-01
    9028.135     33.412   3.280  8.11499E-01  1.00042E+00 -1.88924E-01
    9029.141     34.418   3.320  8.18175E-01  9.99887E-01 -1.81712E-01
    9030.159     35.436   3.360  8.27501E-01  9.99245E-01 -1.71744E-01
    9031.189     36.467   3.400  8.39417E-01  9.98522E-01 -1.59105E-01
    9032.232     37.509   3.440  8.53632E-01  9.97746E-01 -1.44114E-01
    9033.286     38.564   3.480  8.69532E-01  9.96920E-01 -1.27388E-01
    9034.353     39.630   3.520  8.86720E-01  9.96028E-01 -1.09308E-01
    9035.432     40.709   3.560  9.05003E-01  9.95092E-01 -9.00883E-02
    9036.523     41.800   3.600  9.23947E-01  9.94119E-01 -7.01727E-02
    9037.627     42.904   3.640  9.43095E-01  9.93135E-01 -5.00400E-02
    9038.742     44.019   3.680  9.61890E-01  9.92141E-01 -3.02516E-02
    9039.870     45.147   3.720  9.79518E-01  9.91120E-01 -1.16028E-02
    9041.010     46.287   3.760  9.95111E-01  9.90096E-01  5.01537E-03
    9042.162     47.439   3.800  1.00790E+00  9.89073E-01  1.88243E-02
    9043.326     48.604   3.840  1.01730E+00  9.88073E-01  2.92236E-02
    9044.503     49.780   3.880  1.02316E+00  9.87078E-01  3.60836E-02
    9045.692     50.969   3.920  1.02590E+00  9.86091E-01  3.98094E-02
    9046.892     52.170   3.960  1.02627E+00  9.85135E-01  4.11346E-02
    9048.106     53.383   4.000  1.02505E+00  9.84210E-01  4.08446E-02
    9049.331     54.608   4.040  1.02301E+00  9.83298E-01  3.97080E-02
    9050.568     55.846   4.080  1.02071E+00  9.82421E-01  3.82925E-02
    9051.818     57.095   4.120  1.01859E+00  9.81584E-01  3.70032E-02
    9053.080     58.357   4.160  1.01701E+00  9.80806E-01  3.62091E-02
    9054.354     59.631   4.200  1.01641E+00  9.80046E-01  3.63690E-02
    9055.640     60.917   4.240  1.01725E+00  9.79326E-01  3.79214E-02
    9056.939     62.216   4.280  1.01983E+00  9.78669E-01  4.11662E-02
    9058.249     63.527   4.320  1.02424E+00  9.78032E-01  4.62056E-02
    9059.572     64.849   4.360  1.03030E+00  9.77459E-01  5.28372E-02
    9060.907     66.184   4.400  1.03752E+00  9.76930E-01  6.05847E-02
    9062.254     67.532   4.440  1.04520E+00  9.76466E-01  6.87344E-02
    9063.614     68.891   4.480  1.05236E+00  9.76024E-01  7.63395E-02
    9064.985     70.263   4.520  1.05788E+00  9.75646E-01  8.22385E-02
    9066.369     71.646   4.560  1.06053E+00  9.75312E-01  8.52209E-02
    9067.765     73.042   4.600  1.05942E+00  9.75043E-01  8.43795E-02
    9069.173     74.451   4.640  1.05411E+00  9.74796E-01  7.93111E-02
    9070.594     75.871   4.680  1.04498E+00  9.74612E-01  7.03682E-02
    9072.026     77.303   4.720  1.03311E+00  9.74470E-01  5.86393E-02
    9073.471     78.748   4.760  1.01993E+00  9.74368E-01  4.55633E-02
    9074.928     80.205   4.800  1.00685E+00  9.74306E-01  3.25407E-02
    9076.397     81.674   4.840  9.94945E-01  9.74284E-01  2.06611E-02
    9077.878     83.156   4.880  9.84927E-01  9.74301E-01  1.06260E-02
    9079.372     84.649   4.920  9.77242E-01  9.74357E-01  2.88538E-03
    9080.878     86.155   4.960  9.71984E-01  9.74450E-01 -2.46536E-03
    9082.395     87.673   5.000  9.68750E-01  9.74579E-01 -5.82934E-03
    9083.926     89.203   5.040  9.66673E-01  9.74745E-01 -8.07236E-03
    9085.468     90.745   5.080  9.64654E-01  9.74922E-01 -1.02682E-02
    9087.022     92.300   5.120  9.61831E-01  9.75129E-01 -1.32984E-02
    9088.589     93.866   5.160  9.57732E-01  9.75347E-01 -1.76149E-02
    9090.168     95.445   5.200  9.52430E-01  9.75597E-01 -2.31674E-02
    9091.759     97.036   5.240  9.46382E-01  9.75876E-01 -2.94947E-02
    9093.362     98.639   5.280  9.40276E-01  9.76161E-01 -3.58855E-02
    9094.978    100.255   5.320  9.34912E-01  9.76450E-01 -4.15379E-02
    9096.605    101.882   5.360  9.30953E-01  9.76740E-01 -4.57870E-02
    9098.245    103.522   5.400  9.28750E-01  9.77032E-01 -4.82822E-02
    9099.897    105.174   5.440  9.28260E-01  9.77347E-01 -4.90877E-02
    9101.561    106.838   5.480  9.29084E-01  9.77642E-01 -4.85586E-02
    9103.238    108.515   5.520  9.30752E-01  9.77957E-01 -4.72056E-02
    9104.926    110.203   5.560  9.32710E-01  9.78248E-01 -4.55377E-02
    9106.627    111.904   5.600  9.34602E-01  9.78534E-01 -4.39315E-02
    9108.340    113.617   5.640  9.36273E-01  9.78815E-01 -4.25425E-02
    9110.065    115.342   5.680  9.37764E-01  9.79090E-01 -4.13263E-02
    9111.802    117.080   5.720  9.39231E-01  9.79335E-01 -4.01036E-02
    9113.552    118.829   5.760  9.40958E-01  9.79547E-01 -3.85886E-02
    9115.314    120.591   5.800  9.43335E-01  9.79750E-01 -3.64154E-02
    9117.088    122.365   5.840  9.46727E-01  9.79946E-01 -3.32182E-02
    9118.874    124.151   5.880  9.51315E-01  9.80106E-01 -2.87916E-02
    9120.672    125.949   5.920  9.56958E-01  9.80230E-01 -2.32713E-02
    9122.483    127.760   5.960  9.63118E-01  9.80313E-01 -1.71942E-02
    9124.305    129.583   6.000  9.69169E-01  9.80372E-01 -1.12035E-02
