# # comment:                                                     FEFF 9.9.1  
# # Source:
# # Structure
# # Reduced
# # space
# # abc:
# # angles:
# # sites:
# # POT  SCF 100  7.0000   0, screened core-hole, AFOLP (folp(0)= 1.150)
# # Abs   Z=29 Rmt= 1.274 Rnm= 1.344 K  shell
# # Pot 1 Z=38 Rmt= 1.831 Rnm= 1.896
# # Pot 2 Z=29 Rmt= 1.285 Rnm= 1.349
# # Pot 3 Z=15 Rmt= 0.940 Rnm= 1.154
# # Pot 4 Z= 8 Rmt= 0.929 Rnm= 1.043
# # Gam_ch=1.729E+00 H-L exch Vi= 0.000E+00 Vr= 0.000E+00
# # Mu=-6.833E+00eV kf=2.390E+00 Vint=-1.786E+01eV Rs_int= 1.517
# FMS rfms= 9.0000
# # PATH  Rmax=-1.000,  Keep_limit= 0.00, Heap_limit 0.00  Pwcrit= 2.50%
#  S02=0.950  Temp=   0.00  Debye_temp=   0.00  Global_sig2= 0.00000
#  Energy zero shift, vr, vi    0.00000E+00   0.00000E+00
#  Curved wave amplitude ratio filter   4.000%
#     file         sig2 tot  cw amp ratio   deg  nlegs   reff  inp sig2
#     0/   0 paths used
#  xsedge+ 50, used to normalize mu           2.4938E-04
#  -----------------------------------------------------------------------
#  omega    e    k    mu    mu0     chi     @#
    8983.524    -10.643  -1.000  4.51150E-02  5.21548E-02 -7.03980E-03
    8983.822    -10.345  -0.960  4.82226E-02  5.59374E-02 -7.71481E-03
    8984.109    -10.058  -0.920  5.16972E-02  6.01431E-02 -8.44593E-03
    8984.383     -9.784  -0.880  5.56018E-02  6.48347E-02 -9.23285E-03
    8984.645     -9.522  -0.840  6.00122E-02  7.00853E-02 -1.00730E-02
    8984.895     -9.272  -0.800  6.50189E-02  7.59798E-02 -1.09610E-02
    8985.133     -9.034  -0.760  7.07287E-02  8.26158E-02 -1.18871E-02
    8985.359     -8.808  -0.720  7.72664E-02  9.01034E-02 -1.28370E-02
    8985.572     -8.595  -0.680  8.47737E-02  9.85643E-02 -1.37906E-02
    8985.773     -8.394  -0.640  9.34048E-02  1.08127E-01 -1.47222E-02
    8985.962     -8.205  -0.600  1.03316E-01  1.18918E-01 -1.56017E-02
    8986.139     -8.028  -0.560  1.14646E-01  1.31044E-01 -1.63988E-02
    8986.303     -7.863  -0.520  1.27482E-01  1.44572E-01 -1.70900E-02
    8986.456     -7.711  -0.480  1.41817E-01  1.59487E-01 -1.76696E-02
    8986.596     -7.571  -0.440  1.57495E-01  1.75658E-01 -1.81625E-02
    8986.724     -7.443  -0.400  1.74168E-01  1.92801E-01 -1.86330E-02
    8986.840     -7.327  -0.360  1.91290E-01  2.10472E-01 -1.91826E-02
    8986.943     -7.223  -0.320  2.08164E-01  2.28092E-01 -1.99279E-02
    8987.035     -7.132  -0.280  2.24056E-01  2.45019E-01 -2.09631E-02
    8987.114     -7.053  -0.240  2.38318E-01  2.60637E-01 -2.23193E-02
    8987.181     -6.986  -0.200  2.50493E-01  2.74432E-01 -2.39392E-02
    8987.236     -6.931  -0.160  2.60350E-01  2.86030E-01 -2.56801E-02
    8987.279     -6.888  -0.120  2.67848E-01  2.95193E-01 -2.73445E-02
    8987.309     -6.858  -0.080  2.73062E-01  3.01791E-01 -2.87295E-02
    8987.334     -6.833   0.000  2.77066E-01  3.07091E-01 -3.00249E-02
    8987.388     -6.778   0.120  2.85366E-01  3.19029E-01 -3.36629E-02
    8987.431     -6.736   0.160  2.91618E-01  3.28288E-01 -3.66702E-02
    8987.486     -6.681   0.200  2.99114E-01  3.40112E-01 -4.09977E-02
    8987.553     -6.614   0.240  3.07296E-01  3.54327E-01 -4.70307E-02
    8987.632     -6.535   0.280  3.15375E-01  3.70594E-01 -5.52184E-02
    8987.724     -6.443   0.320  3.22543E-01  3.88516E-01 -6.59738E-02
    8987.827     -6.339   0.360  3.27970E-01  4.07539E-01 -7.95689E-02
    8987.943     -6.224   0.400  3.31117E-01  4.27068E-01 -9.59509E-02
    8988.071     -6.096   0.440  3.31938E-01  4.46588E-01 -1.14650E-01
    8988.211     -5.955   0.480  3.30975E-01  4.65716E-01 -1.34741E-01
    8988.364     -5.803   0.520  3.29179E-01  4.84179E-01 -1.55000E-01
    8988.528     -5.638   0.560  3.27724E-01  5.01842E-01 -1.74118E-01
    8988.705     -5.462   0.600  3.27710E-01  5.18696E-01 -1.90986E-01
    8988.894     -5.273   0.640  3.29817E-01  5.34803E-01 -2.04987E-01
    8989.095     -5.072   0.680  3.34265E-01  5.50263E-01 -2.15998E-01
    8989.309     -4.858   0.720  3.41059E-01  5.65147E-01 -2.24088E-01
    8989.534     -4.633   0.760  3.50324E-01  5.79588E-01 -2.29264E-01
    8989.772     -4.395   0.800  3.61948E-01  5.93650E-01 -2.31702E-01
    8990.022     -4.145   0.840  3.75085E-01  6.07445E-01 -2.32360E-01
    8990.284     -3.883   0.880  3.88191E-01  6.21031E-01 -2.32839E-01
    8990.558     -3.608   0.920  4.00215E-01  6.34450E-01 -2.34236E-01
    8990.845     -3.322   0.960  4.11653E-01  6.47737E-01 -2.36084E-01
    8991.144     -3.023   1.000  4.24190E-01  6.60933E-01 -2.36743E-01
    8991.454     -2.712   1.040  4.38994E-01  6.74052E-01 -2.35058E-01
    8991.778     -2.389   1.080  4.54951E-01  6.87100E-01 -2.32149E-01
    8992.113     -2.054   1.120  4.69873E-01  7.00094E-01 -2.30221E-01
    8992.460     -1.707   1.160  4.84096E-01  7.13028E-01 -2.28932E-01
    8992.820     -1.347   1.200  5.01267E-01  7.25891E-01 -2.24624E-01
    8993.192     -0.975   1.240  5.24907E-01  7.38667E-01 -2.13760E-01
    8993.576     -0.591   1.280  5.56340E-01  7.51359E-01 -1.95019E-01
    8993.972     -0.195   1.320  5.94300E-01  7.63946E-01 -1.69646E-01
    8994.381      0.214   1.360  6.33534E-01  7.76383E-01 -1.42848E-01
    8994.801      0.634   1.400  6.67282E-01  7.88686E-01 -1.21404E-01
    8995.234      1.067   1.440  6.93279E-01  8.00811E-01 -1.07532E-01
    8995.679      1.512   1.480  7.17848E-01  8.12751E-01 -9.49022E-02
    8996.136      1.969   1.520  7.50271E-01  8.24456E-01 -7.41843E-02
    8996.606      2.439   1.560  7.96922E-01  8.35959E-01 -3.90372E-02
    8997.087      2.920   1.600  8.59510E-01  8.47172E-01  1.23379E-02
    8997.581      3.414   1.640  9.33069E-01  8.58129E-01  7.49395E-02
    8998.087      3.920   1.680  1.00812E+00  8.68780E-01  1.39340E-01
    8998.605      4.438   1.720  1.07605E+00  8.79118E-01  1.96928E-01
    8999.135      4.969   1.760  1.12905E+00  8.89115E-01  2.39933E-01
    8999.678      5.511   1.800  1.16605E+00  8.98764E-01  2.67287E-01
    9000.233      6.066   1.840  1.18912E+00  9.08061E-01  2.81063E-01
    9000.800      6.633   1.880  1.19646E+00  9.16958E-01  2.79499E-01
    9001.379      7.212   1.920  1.19314E+00  9.25492E-01  2.67644E-01
    9001.970      7.803   1.960  1.19083E+00  9.33598E-01  2.57229E-01
    9002.574      8.407   2.000  1.19746E+00  9.41334E-01  2.56121E-01
    9003.189      9.022   2.040  1.21080E+00  9.48638E-01  2.62161E-01
    9003.817      9.650   2.080  1.22302E+00  9.55529E-01  2.67495E-01
    9004.457     10.290   2.120  1.23105E+00  9.62005E-01  2.69044E-01
    9005.109     10.943   2.160  1.24056E+00  9.68067E-01  2.72498E-01
    9005.774     11.607   2.200  1.25463E+00  9.73718E-01  2.80910E-01
    9006.451     12.284   2.240  1.26654E+00  9.78957E-01  2.87583E-01
    9007.139     12.973   2.280  1.26386E+00  9.83789E-01  2.80069E-01
    9007.840     13.674   2.320  1.23789E+00  9.88217E-01  2.49677E-01
    9008.554     14.387   2.360  1.19408E+00  9.92263E-01  2.01819E-01
    9009.279     15.112   2.400  1.14614E+00  9.95914E-01  1.50226E-01
    9010.017     15.850   2.440  1.10203E+00  9.99195E-01  1.02836E-01
    9010.767     16.600   2.480  1.06346E+00  1.00211E+00  6.13479E-02
    9011.529     17.362   2.520  1.03019E+00  1.00469E+00  2.55050E-02
    9012.303     18.136   2.560  1.00207E+00  1.00691E+00 -4.84376E-03
    9013.089     18.922   2.600  9.78958E-01  1.00881E+00 -2.98550E-02
    9013.888     19.721   2.640  9.60594E-01  1.01042E+00 -4.98224E-02
    9014.698     20.532   2.680  9.47382E-01  1.01171E+00 -6.43272E-02
    9015.521     21.355   2.720  9.42501E-01  1.01274E+00 -7.02402E-02
    9016.357     22.190   2.760  9.46624E-01  1.01350E+00 -6.68739E-02
    9017.204     23.037   2.800  9.50730E-01  1.01401E+00 -6.32780E-02
    9018.063     23.897   2.840  9.44333E-01  1.01430E+00 -6.99684E-02
    9018.935     24.768   2.880  9.31851E-01  1.01436E+00 -8.25116E-02
    9019.819     25.652   2.920  9.19702E-01  1.01422E+00 -9.45187E-02
    9020.715     26.548   2.960  9.10764E-01  1.01388E+00 -1.03118E-01
    9021.623     27.457   3.000  9.05108E-01  1.01338E+00 -1.08268E-01
    9022.544     28.377   3.040  9.01664E-01  1.01273E+00 -1.11069E-01
    9023.477     29.310   3.080  8.99176E-01  1.01194E+00 -1.12761E-01
    9024.422     30.255   3.120  8.97043E-01  1.01102E+00 -1.13973E-01
    9025.379     31.212   3.160  8.95497E-01  1.00998E+00 -1.14481E-01
    9026.348     32.181   3.200  8.94742E-01  1.00885E+00 -1.14107E-01
    9027.329     33.162   3.240  8.95170E-01  1.00764E+00 -1.12467E-01
    9028.323     34.156   3.280  8.96977E-01  1.00635E+00 -1.09370E-01
    9029.329     35.162   3.320  8.99972E-01  1.00501E+00 -1.05034E-01
    9030.347     36.180   3.360  9.03740E-01  1.00360E+00 -9.98589E-02
    9031.377     37.210   3.400  9.08175E-01  1.00217E+00 -9.39984E-02
    9032.419     38.253   3.440  9.13233E-01  1.00071E+00 -8.74784E-02
    9033.474     39.307   3.480  9.18976E-01  9.99240E-01 -8.02643E-02
    9034.541     40.374   3.520  9.25563E-01  9.97744E-01 -7.21814E-02
    9035.620     41.453   3.560  9.33129E-01  9.96266E-01 -6.31377E-02
    9036.711     42.544   3.600  9.41569E-01  9.94771E-01 -5.32020E-02
    9037.814     43.647   3.640  9.50888E-01  9.93324E-01 -4.24362E-02
    9038.930     44.763   3.680  9.60951E-01  9.91867E-01 -3.09166E-02
    9040.058     45.891   3.720  9.71672E-01  9.90467E-01 -1.87949E-02
    9041.198     47.031   3.760  9.82813E-01  9.89107E-01 -6.29387E-03
    9042.350     48.183   3.800  9.94152E-01  9.87786E-01  6.36649E-03
    9043.514     49.347   3.840  1.00535E+00  9.86506E-01  1.88403E-02
    9044.691     50.524   3.880  1.01606E+00  9.85272E-01  3.07909E-02
    9045.879     51.712   3.920  1.02609E+00  9.84105E-01  4.19863E-02
    9047.080     52.913   3.960  1.03528E+00  9.82988E-01  5.22945E-02
    9048.293     54.126   4.000  1.04355E+00  9.81943E-01  6.16027E-02
    9049.519     55.352   4.040  1.05088E+00  9.80972E-01  6.99113E-02
    9050.756     56.589   4.080  1.05719E+00  9.80054E-01  7.71385E-02
    9052.006     57.839   4.120  1.06221E+00  9.79232E-01  8.29800E-02
    9053.268     59.101   4.160  1.06546E+00  9.78466E-01  8.69910E-02
    9054.542     60.375   4.200  1.06654E+00  9.77774E-01  8.87701E-02
    9055.828     61.661   4.240  1.06518E+00  9.77137E-01  8.80427E-02
    9057.126     62.960   4.280  1.06141E+00  9.76599E-01  8.48136E-02
    9058.437     64.270   4.320  1.05559E+00  9.76139E-01  7.94482E-02
    9059.760     65.593   4.360  1.04824E+00  9.75735E-01  7.25071E-02
    9061.095     66.928   4.400  1.04003E+00  9.75430E-01  6.46021E-02
    9062.442     68.275   4.440  1.03142E+00  9.75179E-01  5.62394E-02
    9063.802     69.635   4.480  1.02263E+00  9.75002E-01  4.76297E-02
    9065.173     71.006   4.520  1.01367E+00  9.74900E-01  3.87695E-02
    9066.557     72.390   4.560  1.00455E+00  9.74851E-01  2.96962E-02
    9067.953     73.786   4.600  9.95511E-01  9.74874E-01  2.06374E-02
    9069.361     75.194   4.640  9.86929E-01  9.74969E-01  1.19599E-02
    9070.781     76.615   4.680  9.79155E-01  9.75115E-01  4.04010E-03
    9072.214     78.047   4.720  9.72410E-01  9.75330E-01 -2.91986E-03
    9073.659     79.492   4.760  9.66666E-01  9.75591E-01 -8.92504E-03
    9075.116     80.949   4.800  9.61937E-01  9.75919E-01 -1.39821E-02
    9076.585     82.418   4.840  9.58302E-01  9.76270E-01 -1.79672E-02
    9078.066     83.899   4.880  9.56055E-01  9.76681E-01 -2.06259E-02
    9079.560     85.393   4.920  9.55348E-01  9.77133E-01 -2.17849E-02
    9081.065     86.898   4.960  9.55941E-01  9.77601E-01 -2.16605E-02
    9082.583     88.416   5.000  9.57307E-01  9.78127E-01 -2.08198E-02
    9084.113     89.946   5.040  9.58755E-01  9.78666E-01 -1.99109E-02
    9085.656     91.489   5.080  9.59870E-01  9.79236E-01 -1.93661E-02
    9087.210     93.043   5.120  9.60515E-01  9.79816E-01 -1.93010E-02
    9088.777     94.610   5.160  9.60711E-01  9.80424E-01 -1.97136E-02
    9090.356     96.189   5.200  9.60524E-01  9.81036E-01 -2.05114E-02
    9091.947     97.780   5.240  9.60104E-01  9.81650E-01 -2.15456E-02
    9093.550     99.383   5.280  9.59670E-01  9.82264E-01 -2.25940E-02
    9095.165    100.998   5.320  9.59394E-01  9.82876E-01 -2.34827E-02
    9096.793    102.626   5.360  9.59232E-01  9.83486E-01 -2.42545E-02
    9098.433    104.266   5.400  9.58875E-01  9.84091E-01 -2.52157E-02
    9100.085    105.918   5.440  9.57856E-01  9.84666E-01 -2.68102E-02
    9101.749    107.582   5.480  9.55914E-01  9.85231E-01 -2.93173E-02
    9103.425    109.258   5.520  9.53132E-01  9.85762E-01 -3.26307E-02
    9105.114    110.947   5.560  9.49985E-01  9.86259E-01 -3.62735E-02
    9106.815    112.648   5.600  9.47088E-01  9.86742E-01 -3.96544E-02
    9108.528    114.361   5.640  9.44912E-01  9.87189E-01 -4.22778E-02
    9110.253    116.086   5.680  9.43859E-01  9.87597E-01 -4.37383E-02
    9111.990    117.823   5.720  9.44349E-01  9.87962E-01 -4.36123E-02
    9113.740    119.573   5.760  9.46836E-01  9.88263E-01 -4.14267E-02
    9115.501    121.335   5.800  9.51757E-01  9.88544E-01 -3.67871E-02
    9117.275    123.109   5.840  9.59173E-01  9.88784E-01 -2.96109E-02
    9119.062    124.895   5.880  9.68631E-01  9.88956E-01 -2.03251E-02
    9120.860    126.693   5.920  9.79215E-01  9.89078E-01 -9.86322E-03
    9122.670    128.503   5.960  9.89536E-01  9.89122E-01  4.13822E-04
    9124.493    130.326   6.000  9.98607E-01  9.89117E-01  9.49011E-03
