# # comment:                                                     FEFF 9.9.1  
# # Source:
# # Structure
# # Reduced
# # space
# # abc:
# # angles:
# # sites:
# # POT  SCF 100  7.0000   0, screened core-hole, AFOLP (folp(0)= 1.150)
# # Abs   Z=29 Rmt= 1.031 Rnm= 1.243 K  shell
# # Pot 1 Z=23 Rmt= 1.124 Rnm= 1.333
# # Pot 2 Z=29 Rmt= 1.031 Rnm= 1.244
# # Pot 3 Z=15 Rmt= 0.882 Rnm= 1.150
# # Pot 4 Z= 8 Rmt= 0.970 Rnm= 1.172
# # Gam_ch=1.729E+00 H-L exch Vi= 0.000E+00 Vr= 0.000E+00
# # Mu=-8.611E+00eV kf=2.170E+00 Vint=-1.364E+01eV Rs_int= 1.671
# FMS rfms= 9.0000
# # PATH  Rmax=-1.000,  Keep_limit= 0.00, Heap_limit 0.00  Pwcrit= 2.50%
#  S02=0.950  Temp=   0.00  Debye_temp=   0.00  Global_sig2= 0.00000
#  Energy zero shift, vr, vi    0.00000E+00   0.00000E+00
#  Curved wave amplitude ratio filter   4.000%
#     file         sig2 tot  cw amp ratio   deg  nlegs   reff  inp sig2
#     0/   0 paths used
#  xsedge+ 50, used to normalize mu           2.4797E-04
#  -----------------------------------------------------------------------
#  omega    e    k    mu    mu0     chi     @#
    8983.499    -12.421  -1.000  2.63528E-02  4.62848E-02 -1.99321E-02
    8983.798    -12.123  -0.960  2.73119E-02  4.92693E-02 -2.19574E-02
    8984.084    -11.836  -0.920  2.83142E-02  5.25484E-02 -2.42342E-02
    8984.359    -11.562  -0.880  2.93624E-02  5.61621E-02 -2.67997E-02
    8984.621    -11.300  -0.840  3.04595E-02  6.01565E-02 -2.96970E-02
    8984.871    -11.050  -0.800  3.16088E-02  6.45844E-02 -3.29756E-02
    8985.108    -10.812  -0.760  3.28136E-02  6.95060E-02 -3.66924E-02
    8985.334    -10.587  -0.720  3.40777E-02  7.49889E-02 -4.09112E-02
    8985.547    -10.373  -0.680  3.54046E-02  8.11066E-02 -4.57020E-02
    8985.749    -10.172  -0.640  3.67975E-02  8.79362E-02 -5.11387E-02
    8985.938     -9.983  -0.600  3.82587E-02  9.55523E-02 -5.72935E-02
    8986.114     -9.806  -0.560  3.97887E-02  1.04017E-01 -6.42282E-02
    8986.279     -9.642  -0.520  4.13845E-02  1.13365E-01 -7.19800E-02
    8986.431     -9.489  -0.480  4.30385E-02  1.23580E-01 -8.05419E-02
    8986.572     -9.349  -0.440  4.47359E-02  1.34577E-01 -8.98410E-02
    8986.700     -9.221  -0.400  4.64533E-02  1.46172E-01 -9.97186E-02
    8986.815     -9.105  -0.360  4.81587E-02  1.58083E-01 -1.09924E-01
    8986.919     -9.002  -0.320  4.98130E-02  1.69943E-01 -1.20130E-01
    8987.010     -8.910  -0.280  5.13747E-02  1.81344E-01 -1.29969E-01
    8987.090     -8.831  -0.240  5.28053E-02  1.91886E-01 -1.39081E-01
    8987.157     -8.764  -0.200  5.40713E-02  2.01229E-01 -1.47158E-01
    8987.212     -8.709  -0.160  5.51402E-02  2.09117E-01 -1.53976E-01
    8987.254     -8.666  -0.120  5.59768E-02  2.15374E-01 -1.59397E-01
    8987.285     -8.636  -0.080  5.65559E-02  2.19898E-01 -1.63342E-01
    8987.309     -8.611   0.000  5.69862E-02  2.23545E-01 -1.66558E-01
    8987.364     -8.557   0.120  5.93488E-02  2.31793E-01 -1.72444E-01
    8987.407     -8.514   0.160  6.08928E-02  2.38240E-01 -1.77347E-01
    8987.462     -8.459   0.200  6.27821E-02  2.46529E-01 -1.83747E-01
    8987.529     -8.392   0.240  6.49538E-02  2.56599E-01 -1.91645E-01
    8987.608     -8.313   0.280  6.73284E-02  2.68316E-01 -2.00988E-01
    8987.699     -8.221   0.320  6.98416E-02  2.81483E-01 -2.11641E-01
    8987.803     -8.118   0.360  7.24479E-02  2.95834E-01 -2.23386E-01
    8987.919     -8.002   0.400  7.51322E-02  3.11084E-01 -2.35952E-01
    8988.047     -7.874   0.440  7.79338E-02  3.26973E-01 -2.49040E-01
    8988.187     -7.734   0.480  8.09184E-02  3.43293E-01 -2.62374E-01
    8988.339     -7.581   0.520  8.41605E-02  3.59907E-01 -2.75747E-01
    8988.504     -7.417   0.560  8.77804E-02  3.76772E-01 -2.88992E-01
    8988.681     -7.240   0.600  9.18715E-02  3.93886E-01 -3.02015E-01
    8988.870     -7.051   0.640  9.64308E-02  4.11239E-01 -3.14808E-01
    8989.071     -6.850   0.680  1.01532E-01  4.28920E-01 -3.27388E-01
    8989.284     -6.636   0.720  1.07149E-01  4.46924E-01 -3.39775E-01
    8989.510     -6.411   0.760  1.13604E-01  4.65321E-01 -3.51717E-01
    8989.748     -6.173   0.800  1.21287E-01  4.84115E-01 -3.62828E-01
    8989.997     -5.923   0.840  1.30322E-01  5.03338E-01 -3.73016E-01
    8990.260     -5.661   0.880  1.40203E-01  5.22992E-01 -3.82789E-01
    8990.534     -5.387   0.920  1.50195E-01  5.43052E-01 -3.92858E-01
    8990.820     -5.100   0.960  1.60410E-01  5.63502E-01 -4.03092E-01
    8991.119     -4.801   1.000  1.71893E-01  5.84299E-01 -4.12406E-01
    8991.430     -4.491   1.040  1.85518E-01  6.05390E-01 -4.19872E-01
    8991.753     -4.167   1.080  2.00949E-01  6.26758E-01 -4.25808E-01
    8992.088     -3.832   1.120  2.16335E-01  6.48301E-01 -4.31966E-01
    8992.436     -3.485   1.160  2.31628E-01  6.69991E-01 -4.38362E-01
    8992.795     -3.125   1.200  2.51705E-01  6.91715E-01 -4.40010E-01
    8993.167     -2.753   1.240  2.83354E-01  7.13422E-01 -4.30068E-01
    8993.551     -2.369   1.280  3.30638E-01  7.35036E-01 -4.04398E-01
    8993.948     -1.973   1.320  3.94145E-01  7.56457E-01 -3.62312E-01
    8994.356     -1.565   1.360  4.69012E-01  7.77629E-01 -3.08617E-01
    8994.777     -1.144   1.400  5.39482E-01  7.98433E-01 -2.58951E-01
    8995.210     -0.711   1.440  5.91832E-01  8.18831E-01 -2.26999E-01
    8995.655     -0.266   1.480  6.38172E-01  8.38727E-01 -2.00555E-01
    8996.112      0.191   1.520  6.92023E-01  8.58047E-01 -1.66024E-01
    8996.581      0.661   1.560  7.33525E-01  8.76739E-01 -1.43214E-01
    8997.063      1.142   1.600  7.37306E-01  8.94754E-01 -1.57448E-01
    8997.556      1.636   1.640  7.16522E-01  9.12004E-01 -1.95481E-01
    8998.062      2.142   1.680  6.93527E-01  9.28446E-01 -2.34919E-01
    8998.581      2.660   1.720  6.76715E-01  9.44061E-01 -2.67346E-01
    8999.111      3.190   1.760  6.77461E-01  9.58814E-01 -2.81353E-01
    8999.653      3.733   1.800  6.95755E-01  9.72672E-01 -2.76917E-01
    9000.208      4.288   1.840  7.18328E-01  9.85604E-01 -2.67276E-01
    9000.775      4.855   1.880  7.36445E-01  9.97627E-01 -2.61182E-01
    9001.354      5.434   1.920  7.54886E-01  1.00872E+00 -2.53832E-01
    9001.946      6.025   1.960  7.82875E-01  1.01888E+00 -2.36005E-01
    9002.549      6.628   2.000  8.15995E-01  1.02811E+00 -2.12120E-01
    9003.165      7.244   2.040  8.40114E-01  1.03645E+00 -1.96336E-01
    9003.793      7.872   2.080  8.53107E-01  1.04392E+00 -1.90812E-01
    9004.433      8.512   2.120  8.70292E-01  1.05051E+00 -1.80218E-01
    9005.085      9.164   2.160  9.07919E-01  1.05626E+00 -1.48337E-01
    9005.749      9.829   2.200  9.70525E-01  1.06121E+00 -9.06891E-02
    9006.426     10.506   2.240  1.05274E+00  1.06538E+00 -1.26394E-02
    9007.115     11.194   2.280  1.14550E+00  1.06884E+00  7.66659E-02
    9007.816     11.895   2.320  1.23728E+00  1.07158E+00  1.65699E-01
    9008.529     12.609   2.360  1.31166E+00  1.07366E+00  2.37994E-01
    9009.255     13.334   2.400  1.35688E+00  1.07511E+00  2.81765E-01
    9009.992     14.072   2.440  1.37530E+00  1.07601E+00  2.99294E-01
    9010.742     14.821   2.480  1.38228E+00  1.07635E+00  3.05925E-01
    9011.504     15.583   2.520  1.38806E+00  1.07618E+00  3.11885E-01
    9012.278     16.358   2.560  1.37590E+00  1.07557E+00  3.00330E-01
    9013.065     17.144   2.600  1.33625E+00  1.07451E+00  2.61738E-01
    9013.863     17.943   2.640  1.30453E+00  1.07309E+00  2.31440E-01
    9014.674     18.753   2.680  1.28999E+00  1.07130E+00  2.18690E-01
    9015.497     19.576   2.720  1.28817E+00  1.06920E+00  2.18972E-01
    9016.332     20.411   2.760  1.29046E+00  1.06682E+00  2.23640E-01
    9017.179     21.259   2.800  1.28869E+00  1.06419E+00  2.24503E-01
    9018.039     22.118   2.840  1.27795E+00  1.06132E+00  2.16628E-01
    9018.911     22.990   2.880  1.25841E+00  1.05828E+00  2.00126E-01
    9019.795     23.874   2.920  1.23455E+00  1.05506E+00  1.79486E-01
    9020.691     24.770   2.960  1.21018E+00  1.05171E+00  1.58471E-01
    9021.599     25.678   3.000  1.18686E+00  1.04825E+00  1.38610E-01
    9022.519     26.599   3.040  1.16450E+00  1.04469E+00  1.19802E-01
    9023.452     27.532   3.080  1.14219E+00  1.04108E+00  1.01110E-01
    9024.397     28.476   3.120  1.11888E+00  1.03740E+00  8.14832E-02
    9025.354     29.434   3.160  1.09406E+00  1.03370E+00  6.03625E-02
    9026.323     30.403   3.200  1.06795E+00  1.02998E+00  3.79729E-02
    9027.305     31.384   3.240  1.04095E+00  1.02628E+00  1.46717E-02
    9028.298     32.378   3.280  1.01351E+00  1.02257E+00 -9.05907E-03
    9029.304     33.384   3.320  9.86445E-01  1.01891E+00 -3.24682E-02
    9030.322     34.402   3.360  9.60633E-01  1.01530E+00 -5.46630E-02
    9031.353     35.432   3.400  9.37032E-01  1.01173E+00 -7.46951E-02
    9032.395     36.474   3.440  9.16662E-01  1.00823E+00 -9.15639E-02
    9033.450     37.529   3.480  9.00298E-01  1.00480E+00 -1.04499E-01
    9034.516     38.596   3.520  8.88125E-01  1.00146E+00 -1.13332E-01
    9035.595     39.675   3.560  8.79994E-01  9.98198E-01 -1.18204E-01
    9036.687     40.766   3.600  8.75661E-01  9.95047E-01 -1.19386E-01
    9037.790     41.869   3.640  8.74582E-01  9.92016E-01 -1.17435E-01
    9038.905     42.985   3.680  8.75981E-01  9.89083E-01 -1.13102E-01
    9040.033     44.113   3.720  8.79108E-01  9.86256E-01 -1.07148E-01
    9041.173     45.253   3.760  8.83409E-01  9.83551E-01 -1.00142E-01
    9042.325     46.405   3.800  8.88349E-01  9.80993E-01 -9.26434E-02
    9043.490     47.569   3.840  8.93488E-01  9.78540E-01 -8.50525E-02
    9044.666     48.746   3.880  8.98391E-01  9.76230E-01 -7.78389E-02
    9045.855     49.934   3.920  9.02448E-01  9.74049E-01 -7.16013E-02
    9047.056     51.135   3.960  9.05127E-01  9.72014E-01 -6.68868E-02
    9048.269     52.348   4.000  9.06318E-01  9.70108E-01 -6.37898E-02
    9049.494     53.574   4.040  9.06442E-01  9.68333E-01 -6.18905E-02
    9050.732     54.811   4.080  9.06301E-01  9.66697E-01 -6.03955E-02
    9051.981     56.061   4.120  9.06693E-01  9.65196E-01 -5.85036E-02
    9053.243     57.323   4.160  9.08168E-01  9.63848E-01 -5.56795E-02
    9054.517     58.597   4.200  9.10902E-01  9.62626E-01 -5.17237E-02
    9055.803     59.883   4.240  9.14914E-01  9.61553E-01 -4.66397E-02
    9057.102     61.181   4.280  9.20148E-01  9.60608E-01 -4.04593E-02
    9058.413     62.492   4.320  9.26509E-01  9.59787E-01 -3.32779E-02
    9059.735     63.815   4.360  9.33759E-01  9.59093E-01 -2.53337E-02
    9061.070     65.150   4.400  9.41518E-01  9.58547E-01 -1.70287E-02
    9062.418     66.497   4.440  9.49278E-01  9.58148E-01 -8.87026E-03
    9063.777     67.856   4.480  9.56424E-01  9.57851E-01 -1.42652E-03
    9065.149     69.228   4.520  9.62539E-01  9.57674E-01  4.86525E-03
    9066.532     70.612   4.560  9.67437E-01  9.57639E-01  9.79798E-03
    9067.928     72.008   4.600  9.71161E-01  9.57702E-01  1.34581E-02
    9069.337     73.416   4.640  9.74125E-01  9.57883E-01  1.62422E-02
    9070.757     74.836   4.680  9.76886E-01  9.58180E-01  1.87062E-02
    9072.189     76.269   4.720  9.79886E-01  9.58592E-01  2.12942E-02
    9073.634     77.714   4.760  9.83248E-01  9.59094E-01  2.41535E-02
    9075.091     79.171   4.800  9.86792E-01  9.59707E-01  2.70848E-02
    9076.560     80.640   4.840  9.90046E-01  9.60407E-01  2.96392E-02
    9078.042     82.121   4.880  9.92535E-01  9.61191E-01  3.13438E-02
    9079.535     83.615   4.920  9.94026E-01  9.62080E-01  3.19462E-02
    9081.041     85.120   4.960  9.94581E-01  9.63029E-01  3.15520E-02
    9082.559     86.638   5.000  9.94735E-01  9.64077E-01  3.06585E-02
    9084.089     88.168   5.040  9.95103E-01  9.65179E-01  2.99244E-02
    9085.631     89.711   5.080  9.96282E-01  9.66352E-01  2.99303E-02
    9087.186     91.265   5.120  9.98588E-01  9.67573E-01  3.10150E-02
    9088.752     92.832   5.160  1.00207E+00  9.68839E-01  3.32326E-02
    9090.331     94.411   5.200  1.00662E+00  9.70172E-01  3.64483E-02
    9091.922     96.002   5.240  1.01186E+00  9.71544E-01  4.03181E-02
    9093.525     97.605   5.280  1.01733E+00  9.72934E-01  4.43923E-02
    9095.141     99.220   5.320  1.02260E+00  9.74381E-01  4.82236E-02
    9096.768    100.848   5.360  1.02732E+00  9.75837E-01  5.14827E-02
    9098.408    102.488   5.400  1.03122E+00  9.77301E-01  5.39179E-02
    9100.060    104.140   5.440  1.03413E+00  9.78792E-01  5.53424E-02
    9101.724    105.804   5.480  1.03591E+00  9.80286E-01  5.56213E-02
    9103.401    107.480   5.520  1.03652E+00  9.81776E-01  5.47439E-02
    9105.089    109.169   5.560  1.03603E+00  9.83238E-01  5.27892E-02
    9106.790    110.870   5.600  1.03455E+00  9.84694E-01  4.98557E-02
    9108.503    112.583   5.640  1.03202E+00  9.86140E-01  4.58767E-02
    9110.228    114.308   5.680  1.02816E+00  9.87553E-01  4.06038E-02
    9111.966    116.045   5.720  1.02274E+00  9.88949E-01  3.37923E-02
    9113.715    117.795   5.760  1.01573E+00  9.90281E-01  2.54452E-02
    9115.477    119.556   5.800  1.00744E+00  9.91565E-01  1.58769E-02
    9117.251    121.330   5.840  9.98448E-01  9.92801E-01  5.64645E-03
    9119.037    123.116   5.880  9.89401E-01  9.93984E-01 -4.58285E-03
    9120.835    124.915   5.920  9.80894E-01  9.95078E-01 -1.41846E-02
    9122.646    126.725   5.960  9.73496E-01  9.96091E-01 -2.25945E-02
    9124.469    128.548   6.000  9.67632E-01  9.96987E-01 -2.93545E-02
