# # comment:                                                     FEFF 9.9.1  
# # Source:
# # Structure
# # Reduced
# # space
# # abc:
# # angles:
# # sites:
# # POT  SCF 100  7.0000   0, screened core-hole, AFOLP (folp(0)= 1.150)
# # Abs   Z=29 Rmt= 1.374 Rnm= 1.426 K  shell
# # Pot 1 Z= 3 Rmt= 1.276 Rnm= 1.338
# # Pot 2 Z=29 Rmt= 1.305 Rnm= 1.376
# # Pot 3 Z=15 Rmt= 0.945 Rnm= 1.156
# # Pot 4 Z= 8 Rmt= 0.916 Rnm= 1.039
# # Gam_ch=1.729E+00 H-L exch Vi= 0.000E+00 Vr= 0.000E+00
# # Mu=-5.871E+00eV kf=2.401E+00 Vint=-1.695E+01eV Rs_int= 1.510
# FMS rfms= 9.0000
# # PATH  Rmax=-1.000,  Keep_limit= 0.00, Heap_limit 0.00  Pwcrit= 2.50%
#  S02=0.950  Temp=   0.00  Debye_temp=   0.00  Global_sig2= 0.00000
#  Energy zero shift, vr, vi    0.00000E+00   0.00000E+00
#  Curved wave amplitude ratio filter   4.000%
#     file         sig2 tot  cw amp ratio   deg  nlegs   reff  inp sig2
#     0/   0 paths used
#  xsedge+ 50, used to normalize mu           2.4461E-04
#  -----------------------------------------------------------------------
#  omega    e    k    mu    mu0     chi     @#
    8983.581     -9.681  -1.000  5.30716E-02  5.70317E-02 -3.96016E-03
    8983.879     -9.382  -0.960  5.65732E-02  6.12417E-02 -4.66843E-03
    8984.166     -9.096  -0.920  6.04195E-02  6.59260E-02 -5.50655E-03
    8984.440     -8.821  -0.880  6.46563E-02  7.11552E-02 -6.49897E-03
    8984.702     -8.559  -0.840  6.93368E-02  7.70115E-02 -7.67475E-03
    8984.952     -8.309  -0.800  7.45219E-02  8.35901E-02 -9.06817E-03
    8985.190     -8.071  -0.760  8.02811E-02  9.10005E-02 -1.07193E-02
    8985.416     -7.846  -0.720  8.66920E-02  9.93664E-02 -1.26744E-02
    8985.629     -7.633  -0.680  9.38391E-02  1.08824E-01 -1.49852E-02
    8985.830     -7.431  -0.640  1.01811E-01  1.19519E-01 -1.77077E-02
    8986.019     -7.242  -0.600  1.10693E-01  1.31591E-01 -2.08982E-02
    8986.196     -7.066  -0.560  1.20555E-01  1.45162E-01 -2.46073E-02
    8986.361     -6.901  -0.520  1.31437E-01  1.60306E-01 -2.88692E-02
    8986.513     -6.749  -0.480  1.43320E-01  1.77007E-01 -3.36871E-02
    8986.653     -6.608  -0.440  1.56101E-01  1.95118E-01 -3.90167E-02
    8986.781     -6.480  -0.400  1.69570E-01  2.14322E-01 -4.47518E-02
    8986.897     -6.365  -0.360  1.83398E-01  2.34119E-01 -5.07204E-02
    8987.001     -6.261  -0.320  1.97163E-01  2.53860E-01 -5.66972E-02
    8987.092     -6.170  -0.280  2.10392E-01  2.72826E-01 -6.24341E-02
    8987.171     -6.090  -0.240  2.22628E-01  2.90327E-01 -6.76986E-02
    8987.238     -6.023  -0.200  2.33479E-01  3.05784E-01 -7.23058E-02
    8987.293     -5.968  -0.160  2.42646E-01  3.18780E-01 -7.61336E-02
    8987.336     -5.926  -0.120  2.49927E-01  3.29046E-01 -7.91192E-02
    8987.366     -5.895  -0.080  2.55195E-01  3.36439E-01 -8.12438E-02
    8987.391     -5.871   0.000  2.59441E-01  3.42375E-01 -8.29342E-02
    8987.446     -5.816   0.120  2.69028E-01  3.55765E-01 -8.67374E-02
    8987.488     -5.773   0.160  2.76522E-01  3.66144E-01 -8.96218E-02
    8987.543     -5.718   0.200  2.86199E-01  3.79408E-01 -9.32084E-02
    8987.610     -5.651   0.240  2.97991E-01  3.95323E-01 -9.73317E-02
    8987.689     -5.572   0.280  3.11784E-01  4.13553E-01 -1.01769E-01
    8987.781     -5.481   0.320  3.27431E-01  4.33631E-01 -1.06199E-01
    8987.885     -5.377   0.360  3.44678E-01  4.54932E-01 -1.10254E-01
    8988.000     -5.261   0.400  3.63236E-01  4.76797E-01 -1.13561E-01
    8988.128     -5.133   0.440  3.82850E-01  4.98684E-01 -1.15834E-01
    8988.269     -4.993   0.480  4.03121E-01  5.20082E-01 -1.16961E-01
    8988.421     -4.841   0.520  4.23629E-01  5.40727E-01 -1.17098E-01
    8988.586     -4.676   0.560  4.43854E-01  5.60487E-01 -1.16633E-01
    8988.762     -4.499   0.600  4.63182E-01  5.79333E-01 -1.16151E-01
    8988.951     -4.310   0.640  4.81172E-01  5.97311E-01 -1.16139E-01
    8989.152     -4.109   0.680  4.97934E-01  6.14532E-01 -1.16598E-01
    8989.366     -3.896   0.720  5.14394E-01  6.31120E-01 -1.16726E-01
    8989.591     -3.670   0.760  5.32264E-01  6.47157E-01 -1.14893E-01
    8989.829     -3.432   0.800  5.53705E-01  6.62758E-01 -1.09053E-01
    8990.079     -3.182   0.840  5.80532E-01  6.78003E-01 -9.74712E-02
    8990.341     -2.920   0.880  6.12884E-01  6.92978E-01 -8.00942E-02
    8990.616     -2.646   0.920  6.47595E-01  7.07731E-01 -6.01360E-02
    8990.902     -2.360   0.960  6.78513E-01  7.22298E-01 -4.37847E-02
    8991.201     -2.061   1.000  7.00888E-01  7.36682E-01 -3.57942E-02
    8991.512     -1.750   1.040  7.16452E-01  7.50939E-01 -3.44873E-02
    8991.835     -1.427   1.080  7.32201E-01  7.65053E-01 -3.28513E-02
    8992.170     -1.092   1.120  7.54695E-01  7.79020E-01 -2.43259E-02
    8992.517     -0.744   1.160  7.85110E-01  7.92833E-01 -7.72379E-03
    8992.877     -0.384   1.200  8.18311E-01  8.06478E-01  1.18334E-02
    8993.249     -0.013   1.240  8.48453E-01  8.19935E-01  2.85177E-02
    8993.633      0.371   1.280  8.76130E-01  8.33205E-01  4.29250E-02
    8994.029      0.768   1.320  9.05577E-01  8.46243E-01  5.93340E-02
    8994.438      1.176   1.360  9.37582E-01  8.59022E-01  7.85591E-02
    8994.858      1.597   1.400  9.72288E-01  8.71514E-01  1.00774E-01
    8995.291      2.030   1.440  1.01586E+00  8.83689E-01  1.32170E-01
    8995.736      2.475   1.480  1.07367E+00  8.95541E-01  1.78126E-01
    8996.193      2.932   1.520  1.14346E+00  9.07016E-01  2.36443E-01
    8996.663      3.401   1.560  1.21723E+00  9.18107E-01  2.99128E-01
    8997.144      3.883   1.600  1.28244E+00  9.28782E-01  3.53657E-01
    8997.638      4.377   1.640  1.32694E+00  9.39012E-01  3.87931E-01
    8998.144      4.882   1.680  1.34484E+00  9.48790E-01  3.96045E-01
    8998.662      5.401   1.720  1.33921E+00  9.58089E-01  3.81119E-01
    8999.193      5.931   1.760  1.31681E+00  9.66901E-01  3.49908E-01
    8999.735      6.474   1.800  1.28125E+00  9.75200E-01  3.06049E-01
    9000.290      7.028   1.840  1.23610E+00  9.82984E-01  2.53112E-01
    9000.857      7.595   1.880  1.18985E+00  9.90249E-01  1.99605E-01
    9001.436      8.174   1.920  1.15353E+00  9.96974E-01  1.56553E-01
    9002.027      8.766   1.960  1.13402E+00  1.00316E+00  1.30866E-01
    9002.631      9.369   2.000  1.13096E+00  1.00884E+00  1.22111E-01
    9003.246      9.985   2.040  1.13632E+00  1.01397E+00  1.22350E-01
    9003.874     10.613   2.080  1.13647E+00  1.01859E+00  1.17877E-01
    9004.514     11.253   2.120  1.12151E+00  1.02273E+00  9.87843E-02
    9005.167     11.905   2.160  1.09502E+00  1.02634E+00  6.86845E-02
    9005.831     12.569   2.200  1.06572E+00  1.02948E+00  3.62400E-02
    9006.508     13.246   2.240  1.03880E+00  1.03213E+00  6.66156E-03
    9007.197     13.935   2.280  1.01851E+00  1.03436E+00 -1.58418E-02
    9007.898     14.636   2.320  1.00506E+00  1.03613E+00 -3.10686E-02
    9008.611     15.349   2.360  9.93028E-01  1.03751E+00 -4.44870E-02
    9009.336     16.075   2.400  9.79092E-01  1.03849E+00 -5.94013E-02
    9010.074     16.812   2.440  9.65758E-01  1.03910E+00 -7.33446E-02
    9010.824     17.562   2.480  9.56169E-01  1.03937E+00 -8.32048E-02
    9011.586     18.324   2.520  9.48584E-01  1.03934E+00 -9.07558E-02
    9012.360     19.098   2.560  9.38840E-01  1.03899E+00 -1.00151E-01
    9013.146     19.885   2.600  9.26372E-01  1.03838E+00 -1.12008E-01
    9013.945     20.683   2.640  9.14576E-01  1.03752E+00 -1.22945E-01
    9014.756     21.494   2.680  9.07348E-01  1.03644E+00 -1.29097E-01
    9015.579     22.317   2.720  9.05007E-01  1.03514E+00 -1.30136E-01
    9016.414     23.152   2.760  9.04672E-01  1.03369E+00 -1.29019E-01
    9017.261     23.999   2.800  9.07502E-01  1.03208E+00 -1.24577E-01
    9018.121     24.859   2.840  9.13374E-01  1.03034E+00 -1.16963E-01
    9018.992     25.731   2.880  9.19435E-01  1.02847E+00 -1.09039E-01
    9019.876     26.615   2.920  9.24549E-01  1.02653E+00 -1.01976E-01
    9020.772     27.511   2.960  9.28889E-01  1.02450E+00 -9.56091E-02
    9021.681     28.419   3.000  9.33270E-01  1.02244E+00 -8.91726E-02
    9022.601     29.340   3.040  9.38273E-01  1.02033E+00 -8.20544E-02
    9023.534     30.272   3.080  9.44309E-01  1.01820E+00 -7.38939E-02
    9024.479     31.217   3.120  9.51834E-01  1.01608E+00 -6.42416E-02
    9025.436     32.174   3.160  9.61070E-01  1.01397E+00 -5.29027E-02
    9026.405     33.143   3.200  9.71726E-01  1.01188E+00 -4.01555E-02
    9027.386     34.125   3.240  9.83161E-01  1.00983E+00 -2.66671E-02
    9028.380     35.119   3.280  9.94449E-01  1.00782E+00 -1.33687E-02
    9029.386     36.124   3.320  1.00475E+00  1.00588E+00 -1.13244E-03
    9030.404     37.142   3.360  1.01373E+00  1.00402E+00  9.71266E-03
    9031.434     38.173   3.400  1.02152E+00  1.00221E+00  1.93125E-02
    9032.477     39.215   3.440  1.02851E+00  1.00051E+00  2.80045E-02
    9033.531     40.270   3.480  1.03502E+00  9.98896E-01  3.61222E-02
    9034.598     41.336   3.520  1.04121E+00  9.97396E-01  4.38145E-02
    9035.677     42.415   3.560  1.04701E+00  9.96011E-01  5.09956E-02
    9036.768     43.507   3.600  1.05232E+00  9.94719E-01  5.75972E-02
    9037.872     44.610   3.640  1.05715E+00  9.93545E-01  6.36047E-02
    9038.987     45.726   3.680  1.06151E+00  9.92492E-01  6.90209E-02
    9040.115     46.853   3.720  1.06539E+00  9.91559E-01  7.38298E-02
    9041.255     47.993   3.760  1.06871E+00  9.90747E-01  7.79584E-02
    9042.407     49.145   3.800  1.07122E+00  9.90057E-01  8.11587E-02
    9043.571     50.310   3.840  1.07249E+00  9.89488E-01  8.30036E-02
    9044.748     51.486   3.880  1.07216E+00  9.89041E-01  8.31198E-02
    9045.936     52.675   3.920  1.06995E+00  9.88715E-01  8.12347E-02
    9047.137     53.876   3.960  1.06572E+00  9.88507E-01  7.72132E-02
    9048.351     55.089   4.000  1.05946E+00  9.88398E-01  7.10609E-02
    9049.576     56.314   4.040  1.05141E+00  9.88428E-01  6.29773E-02
    9050.813     57.552   4.080  1.04175E+00  9.88554E-01  5.31911E-02
    9052.063     58.801   4.120  1.03083E+00  9.88795E-01  4.20354E-02
    9053.325     60.063   4.160  1.01910E+00  9.89150E-01  2.99525E-02
    9054.599     61.337   4.200  1.00699E+00  9.89592E-01  1.73939E-02
    9055.885     62.624   4.240  9.94841E-01  9.90121E-01  4.71964E-03
    9057.184     63.922   4.280  9.83016E-01  9.90733E-01 -7.71746E-03
    9058.494     65.233   4.320  9.71842E-01  9.91448E-01 -1.96064E-02
    9059.817     66.555   4.360  9.61624E-01  9.92220E-01 -3.05956E-02
    9061.152     67.890   4.400  9.52818E-01  9.93065E-01 -4.02470E-02
    9062.499     69.238   4.440  9.45819E-01  9.93960E-01 -4.81416E-02
    9063.859     70.597   4.480  9.40962E-01  9.94923E-01 -5.39618E-02
    9065.230     71.969   4.520  9.38423E-01  9.95928E-01 -5.75048E-02
    9066.614     73.352   4.560  9.38261E-01  9.96950E-01 -5.86881E-02
    9068.010     74.748   4.600  9.40423E-01  9.98029E-01 -5.76060E-02
    9069.418     76.157   4.640  9.44647E-01  9.99119E-01 -5.44722E-02
    9070.839     77.577   4.680  9.50555E-01  1.00021E+00 -4.96598E-02
    9072.271     79.010   4.720  9.57634E-01  1.00134E+00 -4.37019E-02
    9073.716     80.454   4.760  9.65275E-01  1.00246E+00 -3.71819E-02
    9075.173     81.911   4.800  9.72932E-01  1.00355E+00 -3.06185E-02
    9076.642     83.380   4.840  9.80197E-01  1.00463E+00 -2.44372E-02
    9078.123     84.862   4.880  9.86786E-01  1.00569E+00 -1.88992E-02
    9079.617     86.355   4.920  9.92593E-01  1.00672E+00 -1.41305E-02
    9081.122     87.861   4.960  9.97606E-01  1.00772E+00 -1.01159E-02
    9082.640     89.379   5.000  1.00191E+00  1.00868E+00 -6.76818E-03
    9084.170     90.909   5.040  1.00549E+00  1.00956E+00 -4.07581E-03
    9085.713     92.451   5.080  1.00829E+00  1.01040E+00 -2.11558E-03
    9087.267     94.006   5.120  1.01029E+00  1.01119E+00 -9.01655E-04
    9088.834     95.572   5.160  1.01167E+00  1.01190E+00 -2.35766E-04
    9090.413     97.151   5.200  1.01279E+00  1.01254E+00  2.51845E-04
    9092.004     98.742   5.240  1.01400E+00  1.01312E+00  8.85225E-04
    9093.607    100.345   5.280  1.01535E+00  1.01359E+00  1.76272E-03
    9095.222    101.961   5.320  1.01672E+00  1.01401E+00  2.70964E-03
    9096.850    103.588   5.360  1.01769E+00  1.01432E+00  3.36967E-03
    9098.490    105.228   5.400  1.01800E+00  1.01457E+00  3.43773E-03
    9100.142    106.880   5.440  1.01764E+00  1.01471E+00  2.93517E-03
    9101.806    108.545   5.480  1.01712E+00  1.01477E+00  2.35031E-03
    9103.482    110.221   5.520  1.01719E+00  1.01474E+00  2.45574E-03
    9105.171    111.909   5.560  1.01849E+00  1.01463E+00  3.86012E-03
    9106.872    113.610   5.600  1.02109E+00  1.01444E+00  6.65319E-03
    9108.585    115.323   5.640  1.02454E+00  1.01417E+00  1.03763E-02
    9110.310    117.048   5.680  1.02814E+00  1.01381E+00  1.43288E-02
    9112.047    118.786   5.720  1.03134E+00  1.01338E+00  1.79539E-02
    9113.797    120.535   5.760  1.03395E+00  1.01290E+00  2.10478E-02
    9115.559    122.297   5.800  1.03603E+00  1.01232E+00  2.37150E-02
    9117.333    124.071   5.840  1.03790E+00  1.01169E+00  2.62088E-02
    9119.119    125.857   5.880  1.03973E+00  1.01102E+00  2.87140E-02
    9120.917    127.655   5.920  1.04139E+00  1.01028E+00  3.11057E-02
    9122.727    129.466   5.960  1.04230E+00  1.00951E+00  3.27917E-02
    9124.550    131.289   6.000  1.04146E+00  1.00866E+00  3.27969E-02
