# # comment:                                                     FEFF 9.9.1  
# # Source:
# # Structure
# # Reduced
# # space
# # abc:
# # angles:
# # sites:
# # POT  SCF 100  7.0000   0, screened core-hole, AFOLP (folp(0)= 1.150)
# # Abs   Z=29 Rmt= 1.333 Rnm= 1.400 K  shell
# # Pot 1 Z=29 Rmt= 1.327 Rnm= 1.397
# # Pot 2 Z=75 Rmt= 1.148 Rnm= 1.368
# # Pot 3 Z= 8 Rmt= 0.919 Rnm= 1.062
# # Gam_ch=1.729E+00 H-L exch Vi= 0.000E+00 Vr= 0.000E+00
# # Mu=-5.000E+00eV kf=2.342E+00 Vint=-1.557E+01eV Rs_int= 1.549
# FMS rfms= 9.0000
# # PATH  Rmax=-1.000,  Keep_limit= 0.00, Heap_limit 0.00  Pwcrit= 2.50%
#  S02=0.950  Temp=   0.00  Debye_temp=   0.00  Global_sig2= 0.00000
#  Energy zero shift, vr, vi    0.00000E+00   0.00000E+00
#  Curved wave amplitude ratio filter   4.000%
#     file         sig2 tot  cw amp ratio   deg  nlegs   reff  inp sig2
#     0/   0 paths used
#  xsedge+ 50, used to normalize mu           2.4601E-04
#  -----------------------------------------------------------------------
#  omega    e    k    mu    mu0     chi     @#
    8983.268     -8.810  -1.000  5.15975E-02  5.92382E-02 -7.64072E-03
    8983.567     -8.512  -0.960  5.48133E-02  6.37070E-02 -8.89367E-03
    8983.853     -8.225  -0.920  5.83237E-02  6.86873E-02 -1.03636E-02
    8984.127     -7.951  -0.880  6.21665E-02  7.42559E-02 -1.20894E-02
    8984.390     -7.689  -0.840  6.63852E-02  8.05020E-02 -1.41168E-02
    8984.639     -7.439  -0.800  7.10301E-02  8.75293E-02 -1.64992E-02
    8984.877     -7.201  -0.760  7.61583E-02  9.54571E-02 -1.92987E-02
    8985.103     -6.975  -0.720  8.18340E-02  1.04420E-01 -2.25862E-02
    8985.316     -6.762  -0.680  8.81270E-02  1.14567E-01 -2.64403E-02
    8985.517     -6.561  -0.640  9.51104E-02  1.26056E-01 -3.09454E-02
    8985.706     -6.372  -0.600  1.02855E-01  1.39041E-01 -3.61859E-02
    8985.883     -6.195  -0.560  1.11418E-01  1.53655E-01 -4.22366E-02
    8986.048     -6.031  -0.520  1.20830E-01  1.69977E-01 -4.91471E-02
    8986.200     -5.878  -0.480  1.31073E-01  1.87994E-01 -5.69210E-02
    8986.340     -5.738  -0.440  1.42055E-01  2.07545E-01 -6.54907E-02
    8986.468     -5.610  -0.400  1.53591E-01  2.28287E-01 -7.46963E-02
    8986.584     -5.494  -0.360  1.65400E-01  2.49678E-01 -8.42787E-02
    8986.688     -5.390  -0.320  1.77117E-01  2.71014E-01 -9.38964E-02
    8986.779     -5.299  -0.280  1.88344E-01  2.91513E-01 -1.03168E-01
    8986.858     -5.220  -0.240  1.98697E-01  3.10426E-01 -1.11730E-01
    8986.925     -5.153  -0.200  2.07851E-01  3.27129E-01 -1.19278E-01
    8986.980     -5.098  -0.160  2.15566E-01  3.41168E-01 -1.25602E-01
    8987.023     -5.055  -0.120  2.21681E-01  3.52256E-01 -1.30576E-01
    8987.053     -5.025  -0.080  2.26093E-01  3.60238E-01 -1.34145E-01
    8987.078     -5.000   0.000  2.29623E-01  3.66646E-01 -1.37022E-01
    8987.133     -4.945   0.120  2.37621E-01  3.81083E-01 -1.43462E-01
    8987.175     -4.903   0.160  2.43918E-01  3.92298E-01 -1.48380E-01
    8987.230     -4.848   0.200  2.52034E-01  4.06572E-01 -1.54538E-01
    8987.297     -4.781   0.240  2.61965E-01  4.23731E-01 -1.61766E-01
    8987.377     -4.702   0.280  2.73577E-01  4.43344E-01 -1.69766E-01
    8987.468     -4.610   0.320  2.86791E-01  4.64914E-01 -1.78123E-01
    8987.572     -4.507   0.360  3.01416E-01  4.87758E-01 -1.86341E-01
    8987.687     -4.391   0.400  3.17235E-01  5.11173E-01 -1.93938E-01
    8987.815     -4.263   0.440  3.33970E-01  5.34479E-01 -2.00509E-01
    8987.956     -4.122   0.480  3.51309E-01  5.57201E-01 -2.05892E-01
    8988.108     -3.970   0.520  3.68813E-01  5.78983E-01 -2.10170E-01
    8988.273     -3.805   0.560  3.86087E-01  5.99700E-01 -2.13613E-01
    8988.449     -3.629   0.600  4.02709E-01  6.19297E-01 -2.16588E-01
    8988.638     -3.440   0.640  4.18420E-01  6.37865E-01 -2.19444E-01
    8988.840     -3.239   0.680  4.33063E-01  6.55459E-01 -2.22396E-01
    8989.053     -3.025   0.720  4.46656E-01  6.72233E-01 -2.25577E-01
    8989.278     -2.800   0.760  4.59158E-01  6.88281E-01 -2.29123E-01
    8989.516     -2.562   0.800  4.70806E-01  7.03724E-01 -2.32917E-01
    8989.766     -2.312   0.840  4.82696E-01  7.18649E-01 -2.35953E-01
    8990.028     -2.050   0.880  4.96981E-01  7.33108E-01 -2.36127E-01
    8990.303     -1.776   0.920  5.15953E-01  7.47174E-01 -2.31221E-01
    8990.589     -1.489   0.960  5.41177E-01  7.60889E-01 -2.19712E-01
    8990.888     -1.190   1.000  5.73787E-01  7.74283E-01 -2.00496E-01
    8991.199     -0.879   1.040  6.15135E-01  7.87353E-01 -1.72219E-01
    8991.522     -0.556   1.080  6.67120E-01  8.00147E-01 -1.33026E-01
    8991.857     -0.221   1.120  7.31990E-01  8.12646E-01 -8.06562E-02
    8992.205      0.126   1.160  8.12812E-01  8.24848E-01 -1.20362E-02
    8992.564      0.486   1.200  9.12847E-01  8.36722E-01  7.61254E-02
    8992.936      0.858   1.240  1.02930E+00  8.48317E-01  1.80984E-01
    8993.320      1.242   1.280  1.14467E+00  8.59555E-01  2.85119E-01
    8993.716      1.638   1.320  1.23368E+00  8.70481E-01  3.63200E-01
    8994.125      2.047   1.360  1.28509E+00  8.81032E-01  4.04059E-01
    8994.545      2.467   1.400  1.30789E+00  8.91211E-01  4.16674E-01
    8994.978      2.900   1.440  1.31709E+00  9.01035E-01  4.16053E-01
    8995.423      3.345   1.480  1.32354E+00  9.10443E-01  4.13102E-01
    8995.880      3.802   1.520  1.32948E+00  9.19452E-01  4.10025E-01
    8996.350      4.272   1.560  1.33187E+00  9.28044E-01  4.03822E-01
    8996.831      4.753   1.600  1.33143E+00  9.36217E-01  3.95210E-01
    8997.325      5.247   1.640  1.33193E+00  9.43969E-01  3.87964E-01
    8997.831      5.753   1.680  1.33620E+00  9.51282E-01  3.84921E-01
    8998.349      6.271   1.720  1.34760E+00  9.58156E-01  3.89442E-01
    8998.880      6.802   1.760  1.36378E+00  9.64615E-01  3.99160E-01
    8999.422      7.344   1.800  1.36874E+00  9.70619E-01  3.98121E-01
    8999.977      7.899   1.840  1.34366E+00  9.76214E-01  3.67446E-01
    9000.544      8.466   1.880  1.28763E+00  9.81361E-01  3.06265E-01
    9001.123      9.045   1.920  1.21666E+00  9.86127E-01  2.30533E-01
    9001.714      9.636   1.960  1.14610E+00  9.90459E-01  1.55638E-01
    9002.318     10.240   2.000  1.08460E+00  9.94422E-01  9.01772E-02
    9002.933     10.855   2.040  1.03683E+00  9.97981E-01  3.88531E-02
    9003.561     11.483   2.080  1.00633E+00  1.00119E+00  5.14694E-03
    9004.201     12.123   2.120  9.94482E-01  1.00402E+00 -9.54190E-03
    9004.854     12.776   2.160  9.99085E-01  1.00652E+00 -7.43714E-03
    9005.518     13.440   2.200  1.01430E+00  1.00869E+00  5.61470E-03
    9006.195     14.117   2.240  1.03180E+00  1.01055E+00  2.12447E-02
    9006.884     14.806   2.280  1.04220E+00  1.01215E+00  3.00503E-02
    9007.585     15.507   2.320  1.03856E+00  1.01343E+00  2.51211E-02
    9008.298     16.220   2.360  1.02255E+00  1.01449E+00  8.06438E-03
    9009.023     16.945   2.400  1.00095E+00  1.01528E+00 -1.43304E-02
    9009.761     17.683   2.440  9.77189E-01  1.01587E+00 -3.86766E-02
    9010.511     18.433   2.480  9.50823E-01  1.01623E+00 -6.54047E-02
    9011.273     19.195   2.520  9.21540E-01  1.01641E+00 -9.48692E-02
    9012.047     19.969   2.560  8.89966E-01  1.01642E+00 -1.26453E-01
    9012.833     20.755   2.600  8.59274E-01  1.01627E+00 -1.56993E-01
    9013.632     21.554   2.640  8.35207E-01  1.01598E+00 -1.80772E-01
    9014.443     22.365   2.680  8.22631E-01  1.01554E+00 -1.92911E-01
    9015.266     23.187   2.720  8.23410E-01  1.01501E+00 -1.91596E-01
    9016.101     24.023   2.760  8.40353E-01  1.01438E+00 -1.74025E-01
    9016.948     24.870   2.800  8.58655E-01  1.01364E+00 -1.54988E-01
    9017.808     25.730   2.840  8.76254E-01  1.01285E+00 -1.36596E-01
    9018.679     26.601   2.880  8.91869E-01  1.01200E+00 -1.20135E-01
    9019.563     27.485   2.920  9.05459E-01  1.01109E+00 -1.05631E-01
    9020.459     28.381   2.960  9.17441E-01  1.01013E+00 -9.26917E-02
    9021.368     29.290   3.000  9.28040E-01  1.00916E+00 -8.11203E-02
    9022.288     30.210   3.040  9.37591E-01  1.00816E+00 -7.05656E-02
    9023.221     31.143   3.080  9.46654E-01  1.00715E+00 -6.04920E-02
    9024.166     32.088   3.120  9.55595E-01  1.00616E+00 -5.05603E-02
    9025.123     33.045   3.160  9.64487E-01  1.00514E+00 -4.06576E-02
    9026.092     34.014   3.200  9.73527E-01  1.00416E+00 -3.06326E-02
    9027.074     34.995   3.240  9.82618E-01  1.00318E+00 -2.05646E-02
    9028.067     35.989   3.280  9.91571E-01  1.00224E+00 -1.06654E-02
    9029.073     36.995   3.320  1.00029E+00  1.00132E+00 -1.03371E-03
    9030.091     38.013   3.360  1.00881E+00  1.00043E+00  8.37666E-03
    9031.121     39.043   3.400  1.01719E+00  9.99593E-01  1.76016E-02
    9032.164     40.086   3.440  1.02551E+00  9.98799E-01  2.67154E-02
    9033.218     41.140   3.480  1.03380E+00  9.98048E-01  3.57522E-02
    9034.285     42.207   3.520  1.04175E+00  9.97341E-01  4.44097E-02
    9035.364     43.286   3.560  1.04903E+00  9.96700E-01  5.23271E-02
    9036.455     44.377   3.600  1.05537E+00  9.96105E-01  5.92666E-02
    9037.559     45.480   3.640  1.06071E+00  9.95556E-01  6.51550E-02
    9038.674     46.596   3.680  1.06503E+00  9.95077E-01  6.99500E-02
    9039.802     47.724   3.720  1.06840E+00  9.94646E-01  7.37519E-02
    9040.942     48.864   3.760  1.07083E+00  9.94285E-01  7.65443E-02
    9042.094     50.016   3.800  1.07206E+00  9.93995E-01  7.80638E-02
    9043.258     51.180   3.840  1.07158E+00  9.93731E-01  7.78505E-02
    9044.435     52.357   3.880  1.06902E+00  9.93557E-01  7.54638E-02
    9045.624     53.545   3.920  1.06402E+00  9.93410E-01  7.06145E-02
    9046.824     54.746   3.960  1.05665E+00  9.93330E-01  6.33201E-02
    9048.038     55.959   4.000  1.04730E+00  9.93318E-01  5.39812E-02
    9049.263     57.185   4.040  1.03655E+00  9.93330E-01  4.32218E-02
    9050.500     58.422   4.080  1.02518E+00  9.93409E-01  3.17684E-02
    9051.750     59.672   4.120  1.01396E+00  9.93554E-01  2.04038E-02
    9053.012     60.934   4.160  1.00359E+00  9.93718E-01  9.86923E-03
    9054.286     62.208   4.200  9.94638E-01  9.93923E-01  7.15465E-04
    9055.572     63.494   4.240  9.87486E-01  9.94190E-01 -6.70350E-03
    9056.871     64.793   4.280  9.82229E-01  9.94476E-01 -1.22475E-02
    9058.181     66.103   4.320  9.78829E-01  9.94820E-01 -1.59906E-02
    9059.504     67.426   4.360  9.77027E-01  9.95178E-01 -1.81513E-02
    9060.839     68.761   4.400  9.76537E-01  9.95569E-01 -1.90324E-02
    9062.186     70.108   4.440  9.76955E-01  9.95971E-01 -1.90154E-02
    9063.546     71.468   4.480  9.77927E-01  9.96402E-01 -1.84758E-02
    9064.917     72.839   4.520  9.79086E-01  9.96842E-01 -1.77562E-02
    9066.301     74.223   4.560  9.80154E-01  9.97310E-01 -1.71554E-02
    9067.697     75.619   4.600  9.80930E-01  9.97784E-01 -1.68549E-02
    9069.105     77.027   4.640  9.81428E-01  9.98284E-01 -1.68563E-02
    9070.526     78.447   4.680  9.81778E-01  9.98763E-01 -1.69850E-02
    9071.958     79.880   4.720  9.82233E-01  9.99263E-01 -1.70302E-02
    9073.403     81.325   4.760  9.82889E-01  9.99737E-01 -1.68479E-02
    9074.860     82.782   4.800  9.83782E-01  1.00021E+00 -1.64257E-02
    9076.329     84.251   4.840  9.84789E-01  1.00067E+00 -1.58845E-02
    9077.810     85.732   4.880  9.85694E-01  1.00113E+00 -1.54396E-02
    9079.304     87.226   4.920  9.86220E-01  1.00156E+00 -1.53441E-02
    9080.810     88.731   4.960  9.86196E-01  1.00199E+00 -1.57900E-02
    9082.327     90.249   5.000  9.85603E-01  1.00240E+00 -1.67929E-02
    9083.858     91.779   5.040  9.84555E-01  1.00275E+00 -1.81939E-02
    9085.400     93.322   5.080  9.83378E-01  1.00309E+00 -1.97128E-02
    9086.954     94.876   5.120  9.82387E-01  1.00342E+00 -2.10308E-02
    9088.521     96.443   5.160  9.81803E-01  1.00369E+00 -2.18834E-02
    9090.100     98.022   5.200  9.81876E-01  1.00394E+00 -2.20617E-02
    9091.691     99.613   5.240  9.82742E-01  1.00415E+00 -2.14095E-02
    9093.294    101.216   5.280  9.84481E-01  1.00433E+00 -1.98449E-02
    9094.910    102.831   5.320  9.87043E-01  1.00446E+00 -1.74166E-02
    9096.537    104.459   5.360  9.90261E-01  1.00455E+00 -1.42907E-02
    9098.177    106.099   5.400  9.93933E-01  1.00460E+00 -1.06695E-02
    9099.829    107.751   5.440  9.97907E-01  1.00461E+00 -6.70564E-03
    9101.493    109.415   5.480  1.00207E+00  1.00458E+00 -2.51161E-03
    9103.170    111.091   5.520  1.00627E+00  1.00451E+00  1.75655E-03
    9104.858    112.780   5.560  1.01026E+00  1.00440E+00  5.86160E-03
    9106.559    114.481   5.600  1.01384E+00  1.00424E+00  9.59580E-03
    9108.272    116.194   5.640  1.01696E+00  1.00405E+00  1.29169E-02
    9109.997    117.919   5.680  1.01971E+00  1.00381E+00  1.59027E-02
    9111.734    119.656   5.720  1.02212E+00  1.00354E+00  1.85865E-02
    9113.484    121.406   5.760  1.02407E+00  1.00322E+00  2.08466E-02
    9115.246    123.168   5.800  1.02532E+00  1.00287E+00  2.24479E-02
    9117.020    124.941   5.840  1.02566E+00  1.00248E+00  2.31847E-02
    9118.806    126.728   5.880  1.02505E+00  1.00205E+00  2.29983E-02
    9120.604    128.526   5.920  1.02363E+00  1.00162E+00  2.20075E-02
    9122.415    130.336   5.960  1.02156E+00  1.00113E+00  2.04246E-02
    9124.237    132.159   6.000  1.01898E+00  1.00061E+00  1.83650E-02
