# # comment:                                                     FEFF 9.9.1  
# # Source:
# # Structure
# # Reduced
# # space
# # abc:
# # angles:107.586138
# # sites:
# # POT  SCF 100  7.0000   0, screened core-hole, AFOLP (folp(0)= 1.150)
# # Abs   Z=29 Rmt= 1.117 Rnm= 1.255 K  shell
# # Pot 1 Z=56 Rmt= 1.923 Rnm= 1.989
# # Pot 2 Z=38 Rmt= 1.809 Rnm= 1.880
# # Pot 3 Z=29 Rmt= 1.124 Rnm= 1.261
# # Pot 4 Z= 8 Rmt= 1.086 Rnm= 1.142
# # Gam_ch=1.729E+00 H-L exch Vi= 0.000E+00 Vr= 0.000E+00
# # Mu=-9.612E+00eV kf=1.987E+00 Vint=-1.651E+01eV Rs_int= 1.825
# FMS rfms= 9.0000
# # PATH  Rmax=-1.000,  Keep_limit= 0.00, Heap_limit 0.00  Pwcrit= 2.50%
#  S02=0.950  Temp=   0.00  Debye_temp=   0.00  Global_sig2= 0.00000
#  Energy zero shift, vr, vi    0.00000E+00   0.00000E+00
#  Curved wave amplitude ratio filter   4.000%
#     file         sig2 tot  cw amp ratio   deg  nlegs   reff  inp sig2
#     0/   0 paths used
#  xsedge+ 50, used to normalize mu           2.4555E-04
#  -----------------------------------------------------------------------
#  omega    e    k    mu    mu0     chi     @#
    8984.743    -13.422  -1.000  2.88146E-02  5.17692E-02 -2.29546E-02
    8985.041    -13.123  -0.960  2.99815E-02  5.53708E-02 -2.53893E-02
    8985.328    -12.837  -0.920  3.12187E-02  5.93560E-02 -2.81373E-02
    8985.602    -12.563  -0.880  3.25342E-02  6.37794E-02 -3.12453E-02
    8985.864    -12.300  -0.840  3.39372E-02  6.87047E-02 -3.47674E-02
    8986.114    -12.050  -0.800  3.54389E-02  7.42051E-02 -3.87662E-02
    8986.352    -11.813  -0.760  3.70520E-02  8.03647E-02 -4.33126E-02
    8986.578    -11.587  -0.720  3.87912E-02  8.72780E-02 -4.84868E-02
    8986.791    -11.374  -0.680  4.06727E-02  9.50489E-02 -5.43762E-02
    8986.992    -11.173  -0.640  4.27137E-02  1.03786E-01 -6.10728E-02
    8987.181    -10.984  -0.600  4.49307E-02  1.13598E-01 -6.86668E-02
    8987.358    -10.807  -0.560  4.73366E-02  1.24572E-01 -7.72357E-02
    8987.522    -10.642  -0.520  4.99362E-02  1.36763E-01 -8.68272E-02
    8987.675    -10.490  -0.480  5.27196E-02  1.50155E-01 -9.74359E-02
    8987.815    -10.350  -0.440  5.56553E-02  1.64632E-01 -1.08977E-01
    8987.943    -10.222  -0.400  5.86848E-02  1.79946E-01 -1.21261E-01
    8988.059    -10.106  -0.360  6.17230E-02  1.95710E-01 -1.33987E-01
    8988.163    -10.002  -0.320  6.46670E-02  2.11423E-01 -1.46756E-01
    8988.254     -9.911  -0.280  6.74124E-02  2.26524E-01 -1.59111E-01
    8988.333     -9.832  -0.240  6.98712E-02  2.40473E-01 -1.70602E-01
    8988.400     -9.764  -0.200  7.19824E-02  2.52815E-01 -1.80833E-01
    8988.455     -9.710  -0.160  7.37113E-02  2.63211E-01 -1.89500E-01
    8988.498     -9.667  -0.120  7.50383E-02  2.71441E-01 -1.96403E-01
    8988.528     -9.636  -0.080  7.59555E-02  2.77377E-01 -2.01422E-01
    8988.553     -9.612   0.000  7.66284E-02  2.82153E-01 -2.05524E-01
    8988.608     -9.557   0.120  7.88910E-02  2.92948E-01 -2.14057E-01
    8988.650     -9.515   0.160  8.05261E-02  3.01349E-01 -2.20823E-01
    8988.705     -9.460   0.200  8.25557E-02  3.12101E-01 -2.29546E-01
    8988.772     -9.393   0.240  8.49180E-02  3.25086E-01 -2.40168E-01
    8988.851     -9.313   0.280  8.75230E-02  3.40081E-01 -2.52558E-01
    8988.943     -9.222   0.320  9.03391E-02  3.56755E-01 -2.66415E-01
    8989.046     -9.118   0.360  9.33060E-02  3.74668E-01 -2.81362E-01
    8989.162     -9.002   0.400  9.64169E-02  3.93395E-01 -2.96978E-01
    8989.290     -8.874   0.440  9.96976E-02  4.12504E-01 -3.12806E-01
    8989.431     -8.734   0.480  1.03166E-01  4.31656E-01 -3.28490E-01
    8989.583     -8.582   0.520  1.06816E-01  4.50671E-01 -3.43855E-01
    8989.747     -8.417   0.560  1.10558E-01  4.69414E-01 -3.58856E-01
    8989.924     -8.241   0.600  1.14284E-01  4.87896E-01 -3.73613E-01
    8990.113     -8.052   0.640  1.17834E-01  5.06122E-01 -3.88289E-01
    8990.314     -7.850   0.680  1.21223E-01  5.24164E-01 -4.02941E-01
    8990.528     -7.637   0.720  1.24679E-01  5.42082E-01 -4.17404E-01
    8990.753     -7.411   0.760  1.28700E-01  5.59937E-01 -4.31237E-01
    8990.991     -7.174   0.800  1.34010E-01  5.77778E-01 -4.43769E-01
    8991.241     -6.924   0.840  1.41360E-01  5.95665E-01 -4.54305E-01
    8991.503     -6.662   0.880  1.51314E-01  6.13562E-01 -4.62247E-01
    8991.777     -6.387   0.920  1.64296E-01  6.31544E-01 -4.67248E-01
    8992.064     -6.101   0.960  1.80197E-01  6.49575E-01 -4.69378E-01
    8992.363     -5.802   1.000  1.98296E-01  6.67628E-01 -4.69331E-01
    8992.674     -5.491   1.040  2.17520E-01  6.85709E-01 -4.68189E-01
    8992.997     -5.168   1.080  2.36975E-01  7.03757E-01 -4.66782E-01
    8993.332     -4.833   1.120  2.57232E-01  7.21765E-01 -4.64533E-01
    8993.679     -4.485   1.160  2.79981E-01  7.39683E-01 -4.59701E-01
    8994.039     -4.126   1.200  3.06030E-01  7.57434E-01 -4.51404E-01
    8994.411     -3.754   1.240  3.34678E-01  7.75003E-01 -4.40325E-01
    8994.795     -3.370   1.280  3.65379E-01  7.92350E-01 -4.26971E-01
    8995.191     -2.974   1.320  3.98381E-01  8.09372E-01 -4.10991E-01
    8995.600     -2.565   1.360  4.33263E-01  8.26071E-01 -3.92808E-01
    8996.020     -2.145   1.400  4.67298E-01  8.42363E-01 -3.75066E-01
    8996.453     -1.712   1.440  4.97733E-01  8.58229E-01 -3.60496E-01
    8996.898     -1.267   1.480  5.23883E-01  8.73587E-01 -3.49704E-01
    8997.355     -0.810   1.520  5.48278E-01  8.88441E-01 -3.40163E-01
    8997.825     -0.340   1.560  5.77236E-01  9.02713E-01 -3.25477E-01
    8998.306      0.141   1.600  6.14183E-01  9.16387E-01 -3.02204E-01
    8998.800      0.635   1.640  6.61429E-01  9.29450E-01 -2.68021E-01
    8999.306      1.141   1.680  7.25455E-01  9.41851E-01 -2.16396E-01
    8999.824      1.659   1.720  8.06755E-01  9.53581E-01 -1.46825E-01
    9000.354      2.190   1.760  8.90939E-01  9.64634E-01 -7.36945E-02
    9000.897      2.732   1.800  9.71836E-01  9.74985E-01 -3.14934E-03
    9001.452      3.287   1.840  1.06395E+00  9.84633E-01  7.93175E-02
    9002.019      3.854   1.880  1.17223E+00  9.93575E-01  1.78653E-01
    9002.598      4.433   1.920  1.26910E+00  1.00184E+00  2.67261E-01
    9003.189      5.024   1.960  1.31688E+00  1.00938E+00  3.07501E-01
    9003.793      5.628   2.000  1.31398E+00  1.01625E+00  2.97730E-01
    9004.408      6.244   2.040  1.27735E+00  1.02246E+00  2.54893E-01
    9005.036      6.871   2.080  1.22990E+00  1.02801E+00  2.01892E-01
    9005.676      7.511   2.120  1.19546E+00  1.03291E+00  1.62545E-01
    9006.329      8.164   2.160  1.18561E+00  1.03722E+00  1.48389E-01
    9006.993      8.828   2.200  1.20006E+00  1.04095E+00  1.59105E-01
    9007.670      9.505   2.240  1.23297E+00  1.04411E+00  1.88864E-01
    9008.359     10.194   2.280  1.27576E+00  1.04674E+00  2.29024E-01
    9009.060     10.895   2.320  1.31667E+00  1.04884E+00  2.67827E-01
    9009.773     11.608   2.360  1.34551E+00  1.05048E+00  2.95033E-01
    9010.498     12.333   2.400  1.35604E+00  1.05166E+00  3.04382E-01
    9011.236     13.071   2.440  1.34835E+00  1.05243E+00  2.95914E-01
    9011.986     13.821   2.480  1.33150E+00  1.05282E+00  2.78677E-01
    9012.748     14.583   2.520  1.30690E+00  1.05282E+00  2.54076E-01
    9013.522     15.357   2.560  1.27509E+00  1.05249E+00  2.22599E-01
    9014.308     16.143   2.600  1.23901E+00  1.05186E+00  1.87151E-01
    9015.107     16.942   2.640  1.20263E+00  1.05095E+00  1.51684E-01
    9015.918     17.753   2.680  1.16925E+00  1.04978E+00  1.19469E-01
    9016.740     18.576   2.720  1.14102E+00  1.04838E+00  9.26471E-02
    9017.576     19.411   2.760  1.11832E+00  1.04679E+00  7.15380E-02
    9018.423     20.258   2.800  1.10063E+00  1.04500E+00  5.56231E-02
    9019.282     21.118   2.840  1.08717E+00  1.04306E+00  4.41181E-02
    9020.154     21.989   2.880  1.07689E+00  1.04098E+00  3.59121E-02
    9021.038     22.873   2.920  1.06792E+00  1.03878E+00  2.91383E-02
    9021.934     23.769   2.960  1.05808E+00  1.03647E+00  2.16130E-02
    9022.843     24.678   3.000  1.04582E+00  1.03409E+00  1.17217E-02
    9023.763     25.598   3.040  1.03018E+00  1.03165E+00 -1.46238E-03
    9024.696     26.531   3.080  1.01159E+00  1.02916E+00 -1.75638E-02
    9025.641     27.476   3.120  9.91206E-01  1.02665E+00 -3.54444E-02
    9026.598     28.433   3.160  9.70154E-01  1.02411E+00 -5.39598E-02
    9027.567     29.402   3.200  9.49251E-01  1.02157E+00 -7.23228E-02
    9028.548     30.384   3.240  9.29199E-01  1.01904E+00 -8.98378E-02
    9029.542     31.377   3.280  9.10423E-01  1.01653E+00 -1.06106E-01
    9030.548     32.383   3.320  8.93279E-01  1.01403E+00 -1.20748E-01
    9031.566     33.401   3.360  8.78384E-01  1.01160E+00 -1.33213E-01
    9032.596     34.431   3.400  8.66099E-01  1.00921E+00 -1.43109E-01
    9033.639     35.474   3.440  8.56625E-01  1.00686E+00 -1.50240E-01
    9034.693     36.528   3.480  8.50179E-01  1.00460E+00 -1.54421E-01
    9035.760     37.595   3.520  8.47013E-01  1.00240E+00 -1.55389E-01
    9036.839     38.674   3.560  8.47080E-01  1.00026E+00 -1.53182E-01
    9037.930     39.765   3.600  8.50408E-01  9.98222E-01 -1.47814E-01
    9039.033     40.869   3.640  8.57003E-01  9.96275E-01 -1.39272E-01
    9040.149     41.984   3.680  8.66695E-01  9.94410E-01 -1.27715E-01
    9041.277     43.112   3.720  8.78860E-01  9.92627E-01 -1.13767E-01
    9042.417     44.252   3.760  8.92630E-01  9.90963E-01 -9.83331E-02
    9043.569     45.404   3.800  9.06744E-01  9.89405E-01 -8.26612E-02
    9044.733     46.568   3.840  9.19869E-01  9.87939E-01 -6.80701E-02
    9045.910     47.745   3.880  9.31124E-01  9.86566E-01 -5.54416E-02
    9047.098     48.934   3.920  9.40465E-01  9.85327E-01 -4.48621E-02
    9048.299     50.135   3.960  9.48366E-01  9.84182E-01 -3.58154E-02
    9049.512     51.348   4.000  9.55623E-01  9.83130E-01 -2.75063E-02
    9050.738     52.573   4.040  9.63020E-01  9.82213E-01 -1.91922E-02
    9051.975     53.810   4.080  9.70812E-01  9.81367E-01 -1.05550E-02
    9053.225     55.060   4.120  9.78858E-01  9.80658E-01 -1.79973E-03
    9054.487     56.322   4.160  9.86589E-01  9.80044E-01  6.54573E-03
    9055.761     57.596   4.200  9.93487E-01  9.79542E-01  1.39450E-02
    9057.047     58.882   4.240  9.99243E-01  9.79155E-01  2.00882E-02
    9058.345     60.181   4.280  1.00401E+00  9.78858E-01  2.51549E-02
    9059.656     61.491   4.320  1.00834E+00  9.78649E-01  2.96932E-02
    9060.979     62.814   4.360  1.01280E+00  9.78550E-01  3.42515E-02
    9062.314     64.149   4.400  1.01759E+00  9.78539E-01  3.90532E-02
    9063.661     65.496   4.440  1.02261E+00  9.78634E-01  4.39721E-02
    9065.021     66.856   4.480  1.02752E+00  9.78793E-01  4.87296E-02
    9066.392     68.227   4.520  1.03215E+00  9.79055E-01  5.30923E-02
    9067.776     69.611   4.560  1.03649E+00  9.79402E-01  5.70861E-02
    9069.172     71.007   4.600  1.04064E+00  9.79829E-01  6.08126E-02
    9070.580     72.415   4.640  1.04470E+00  9.80332E-01  6.43659E-02
    9072.000     73.836   4.680  1.04868E+00  9.80886E-01  6.77981E-02
    9073.433     75.268   4.720  1.05261E+00  9.81514E-01  7.10981E-02
    9074.878     76.713   4.760  1.05636E+00  9.82192E-01  7.41697E-02
    9076.335     78.170   4.800  1.05974E+00  9.82940E-01  7.68049E-02
    9077.804     79.639   4.840  1.06223E+00  9.83734E-01  7.84916E-02
    9079.285     81.120   4.880  1.06302E+00  9.84593E-01  7.84239E-02
    9080.779     82.614   4.920  1.06131E+00  9.85471E-01  7.58413E-02
    9082.284     84.120   4.960  1.05686E+00  9.86386E-01  7.04720E-02
    9083.802     85.638   5.000  1.05006E+00  9.87338E-01  6.27235E-02
    9085.332     87.168   5.040  1.04185E+00  9.88324E-01  5.35228E-02
    9086.875     88.710   5.080  1.03323E+00  9.89321E-01  4.39041E-02
    9088.429     90.264   5.120  1.02512E+00  9.90346E-01  3.47710E-02
    9089.996     91.831   5.160  1.01804E+00  9.91376E-01  2.66629E-02
    9091.575     93.410   5.200  1.01204E+00  9.92408E-01  1.96355E-02
    9093.166     95.001   5.240  1.00677E+00  9.93439E-01  1.33265E-02
    9094.769     96.604   5.280  1.00168E+00  9.94468E-01  7.21416E-03
    9096.384     98.220   5.320  9.96458E-01  9.95492E-01  9.65968E-04
    9098.012     99.847   5.360  9.91078E-01  9.96487E-01 -5.40887E-03
    9099.652    101.487   5.400  9.85899E-01  9.97473E-01 -1.15742E-02
    9101.304    103.139   5.440  9.81438E-01  9.98449E-01 -1.70102E-02
    9102.968    104.803   5.480  9.78137E-01  9.99364E-01 -2.12275E-02
    9104.644    106.480   5.520  9.76205E-01  1.00026E+00 -2.40594E-02
    9106.333    108.168   5.560  9.75227E-01  1.00112E+00 -2.58967E-02
    9108.034    109.869   5.600  9.74269E-01  1.00192E+00 -2.76497E-02
    9109.747    111.582   5.640  9.72308E-01  1.00269E+00 -3.03864E-02
    9111.472    113.307   5.680  9.68603E-01  1.00343E+00 -3.48230E-02
    9113.209    115.044   5.720  9.63336E-01  1.00409E+00 -4.07497E-02
    9114.959    116.794   5.760  9.57545E-01  1.00468E+00 -4.71304E-02
    9116.721    118.556   5.800  9.52592E-01  1.00524E+00 -5.26472E-02
    9118.494    120.330   5.840  9.49418E-01  1.00573E+00 -5.63109E-02
    9120.281    122.116   5.880  9.48418E-01  1.00614E+00 -5.77218E-02
    9122.079    123.914   5.920  9.49576E-01  1.00647E+00 -5.68918E-02
    9123.889    125.725   5.960  9.52736E-01  1.00673E+00 -5.39914E-02
    9125.712    127.547   6.000  9.57754E-01  1.00686E+00 -4.91105E-02
