# # comment:                                                     FEFF 9.9.1  
# # Source:
# # Structure
# # Reduced
# # space
# # abc:
# # angles:
# # sites:
# # POT  SCF 100  7.0000   0, screened core-hole, AFOLP (folp(0)= 1.150)
# # Abs   Z=29 Rmt= 1.267 Rnm= 1.333 K  shell
# # Pot 1 Z=22 Rmt= 1.291 Rnm= 1.417
# # Pot 2 Z=29 Rmt= 1.267 Rnm= 1.333
# # Pot 3 Z= 8 Rmt= 0.972 Rnm= 1.093
# # Gam_ch=1.729E+00 H-L exch Vi= 0.000E+00 Vr= 0.000E+00
# # Mu=-8.241E+00eV kf=2.182E+00 Vint=-1.729E+01eV Rs_int= 1.662
# FMS rfms= 9.0000
# # PATH  Rmax=-1.000,  Keep_limit= 0.00, Heap_limit 0.00  Pwcrit= 2.50%
#  S02=0.950  Temp=   0.00  Debye_temp=   0.00  Global_sig2= 0.00000
#  Energy zero shift, vr, vi    0.00000E+00   0.00000E+00
#  Curved wave amplitude ratio filter   4.000%
#     file         sig2 tot  cw amp ratio   deg  nlegs   reff  inp sig2
#     0/   0 paths used
#  xsedge+ 50, used to normalize mu           2.4632E-04
#  -----------------------------------------------------------------------
#  omega    e    k    mu    mu0     chi     @#
    8984.541    -12.051  -1.000  3.61149E-02  5.18967E-02 -1.57817E-02
    8984.840    -11.752  -0.960  3.78232E-02  5.56370E-02 -1.78138E-02
    8985.127    -11.466  -0.920  3.96361E-02  5.97919E-02 -2.01558E-02
    8985.401    -11.191  -0.880  4.15625E-02  6.44225E-02 -2.28601E-02
    8985.663    -10.929  -0.840  4.36117E-02  6.95998E-02 -2.59882E-02
    8985.913    -10.679  -0.800  4.57942E-02  7.54061E-02 -2.96119E-02
    8986.151    -10.441  -0.760  4.81215E-02  8.19359E-02 -3.38144E-02
    8986.376    -10.216  -0.720  5.06056E-02  8.92958E-02 -3.86902E-02
    8986.590    -10.003  -0.680  5.32593E-02  9.76034E-02 -4.43441E-02
    8986.791     -9.801  -0.640  5.60946E-02  1.06983E-01 -5.08881E-02
    8986.980     -9.612  -0.600  5.91221E-02  1.17556E-01 -5.84335E-02
    8987.157     -9.436  -0.560  6.23484E-02  1.29426E-01 -6.70777E-02
    8987.321     -9.271  -0.520  6.57731E-02  1.42656E-01 -7.68829E-02
    8987.473     -9.119  -0.480  6.93840E-02  1.57231E-01 -8.78473E-02
    8987.614     -8.978  -0.440  7.31531E-02  1.73024E-01 -9.98710E-02
    8987.742     -8.850  -0.400  7.70313E-02  1.89760E-01 -1.12728E-01
    8987.858     -8.735  -0.360  8.09474E-02  2.07006E-01 -1.26058E-01
    8987.961     -8.631  -0.320  8.48100E-02  2.24202E-01 -1.39392E-01
    8988.053     -8.539  -0.280  8.85152E-02  2.40724E-01 -1.52209E-01
    8988.132     -8.460  -0.240  9.19571E-02  2.55975E-01 -1.64018E-01
    8988.199     -8.393  -0.200  9.50374E-02  2.69451E-01 -1.74414E-01
    8988.254     -8.338  -0.160  9.76726E-02  2.80787E-01 -1.83114E-01
    8988.296     -8.296  -0.120  9.97970E-02  2.89747E-01 -1.89950E-01
    8988.327     -8.265  -0.080  1.01362E-01  2.96202E-01 -1.94839E-01
    8988.351     -8.241   0.000  1.02670E-01  3.01387E-01 -1.98717E-01
    8988.406     -8.186   0.120  1.05579E-01  3.13072E-01 -2.07493E-01
    8988.449     -8.143   0.160  1.07853E-01  3.22170E-01 -2.14317E-01
    8988.504     -8.088   0.200  1.10782E-01  3.33771E-01 -2.22988E-01
    8988.571     -8.021   0.240  1.14387E-01  3.47715E-01 -2.33328E-01
    8988.650     -7.942   0.280  1.18719E-01  3.63745E-01 -2.45026E-01
    8988.741     -7.851   0.320  1.23754E-01  3.81432E-01 -2.57678E-01
    8988.845     -7.747   0.360  1.29527E-01  4.00269E-01 -2.70742E-01
    8988.961     -7.631   0.400  1.36016E-01  4.19696E-01 -2.83680E-01
    8989.089     -7.503   0.440  1.43284E-01  4.39243E-01 -2.95958E-01
    8989.229     -7.363   0.480  1.51339E-01  4.58487E-01 -3.07149E-01
    8989.382     -7.211   0.520  1.60253E-01  4.77209E-01 -3.16956E-01
    8989.546     -7.046   0.560  1.69958E-01  4.95256E-01 -3.25297E-01
    8989.723     -6.869   0.600  1.80241E-01  5.12637E-01 -3.32396E-01
    8989.912     -6.680   0.640  1.90685E-01  5.29368E-01 -3.38683E-01
    8990.113     -6.479   0.680  2.01009E-01  5.45558E-01 -3.44550E-01
    8990.326     -6.266   0.720  2.11615E-01  5.61271E-01 -3.49655E-01
    8990.552     -6.040   0.760  2.23967E-01  5.76607E-01 -3.52640E-01
    8990.790     -5.802   0.800  2.39936E-01  5.91639E-01 -3.51703E-01
    8991.040     -5.552   0.840  2.60838E-01  6.06426E-01 -3.45589E-01
    8991.302     -5.290   0.880  2.86760E-01  6.21039E-01 -3.34279E-01
    8991.576     -5.016   0.920  3.16678E-01  6.35468E-01 -3.18790E-01
    8991.863     -4.730   0.960  3.49619E-01  6.49798E-01 -3.00179E-01
    8992.161     -4.431   1.000  3.84879E-01  6.64003E-01 -2.79124E-01
    8992.472     -4.120   1.040  4.23094E-01  6.78086E-01 -2.54992E-01
    8992.795     -3.797   1.080  4.67191E-01  6.92086E-01 -2.24894E-01
    8993.131     -3.462   1.120  5.19715E-01  7.05931E-01 -1.86216E-01
    8993.478     -3.114   1.160  5.75902E-01  7.19670E-01 -1.43769E-01
    8993.838     -2.754   1.200  6.19831E-01  7.33244E-01 -1.13414E-01
    8994.210     -2.383   1.240  6.40243E-01  7.46654E-01 -1.06411E-01
    8994.594     -1.999   1.280  6.48719E-01  7.59874E-01 -1.11155E-01
    8994.990     -1.602   1.320  6.65711E-01  7.72881E-01 -1.07170E-01
    8995.398     -1.194   1.360  7.01850E-01  7.85648E-01 -8.37980E-02
    8995.819     -0.773   1.400  7.58303E-01  7.98146E-01 -3.98432E-02
    8996.252     -0.340   1.440  8.29586E-01  8.10370E-01  1.92169E-02
    8996.697      0.105   1.480  9.00095E-01  8.22268E-01  7.78265E-02
    8997.154      0.562   1.520  9.50673E-01  8.33837E-01  1.16836E-01
    8997.623      1.031   1.560  9.83616E-01  8.45047E-01  1.38570E-01
    8998.105      1.513   1.600  1.02030E+00  8.55890E-01  1.64415E-01
    8998.599      2.007   1.640  1.07673E+00  8.66361E-01  2.10364E-01
    8999.105      2.513   1.680  1.15799E+00  8.76415E-01  2.81578E-01
    8999.623      3.031   1.720  1.25247E+00  8.86068E-01  3.66399E-01
    9000.153      3.561   1.760  1.32863E+00  8.95295E-01  4.33337E-01
    9000.696      4.104   1.800  1.35542E+00  9.04094E-01  4.51329E-01
    9001.250      4.658   1.840  1.33911E+00  9.12463E-01  4.26643E-01
    9001.817      5.225   1.880  1.32078E+00  9.20382E-01  4.00401E-01
    9002.396      5.804   1.920  1.33462E+00  9.27872E-01  4.06744E-01
    9002.988      6.396   1.960  1.36854E+00  9.34933E-01  4.33605E-01
    9003.591      6.999   2.000  1.38147E+00  9.41549E-01  4.39924E-01
    9004.207      7.615   2.040  1.34661E+00  9.47743E-01  3.98871E-01
    9004.835      8.243   2.080  1.27100E+00  9.53519E-01  3.17477E-01
    9005.475      8.883   2.120  1.18468E+00  9.58882E-01  2.25797E-01
    9006.127      9.535   2.160  1.10374E+00  9.63856E-01  1.39884E-01
    9006.792     10.200   2.200  1.02750E+00  9.68429E-01  5.90741E-02
    9007.468     10.876   2.240  9.64260E-01  9.72626E-01 -8.36672E-03
    9008.157     11.565   2.280  9.25280E-01  9.76455E-01 -5.11746E-02
    9008.858     12.266   2.320  9.10331E-01  9.79942E-01 -6.96108E-02
    9009.571     12.979   2.360  9.07263E-01  9.83075E-01 -7.58123E-02
    9010.297     13.705   2.400  9.03864E-01  9.85904E-01 -8.20404E-02
    9011.034     14.442   2.440  9.01457E-01  9.88437E-01 -8.69807E-02
    9011.784     15.192   2.480  9.10504E-01  9.90660E-01 -8.01566E-02
    9012.546     15.954   2.520  9.36167E-01  9.92624E-01 -5.64570E-02
    9013.320     16.728   2.560  9.70821E-01  9.94337E-01 -2.35155E-02
    9014.107     17.515   2.600  9.95860E-01  9.95806E-01  5.39575E-05
    9014.905     18.313   2.640  1.00058E+00  9.97062E-01  3.51692E-03
    9015.716     19.124   2.680  9.91536E-01  9.98109E-01 -6.57309E-03
    9016.539     19.947   2.720  9.75870E-01  9.98958E-01 -2.30876E-02
    9017.374     20.782   2.760  9.58601E-01  9.99635E-01 -4.10338E-02
    9018.222     21.629   2.800  9.42098E-01  1.00015E+00 -5.80494E-02
    9019.081     22.489   2.840  9.27425E-01  1.00050E+00 -7.30781E-02
    9019.953     23.361   2.880  9.14821E-01  1.00073E+00 -8.59084E-02
    9020.837     24.245   2.920  9.04196E-01  1.00085E+00 -9.66575E-02
    9021.733     25.141   2.960  8.95660E-01  1.00084E+00 -1.05180E-01
    9022.641     26.049   3.000  8.89312E-01  1.00076E+00 -1.11447E-01
    9023.562     26.970   3.040  8.84906E-01  1.00057E+00 -1.15667E-01
    9024.494     27.902   3.080  8.82613E-01  1.00033E+00 -1.17715E-01
    9025.439     28.847   3.120  8.82402E-01  1.00001E+00 -1.17609E-01
    9026.396     29.804   3.160  8.83766E-01  9.99647E-01 -1.15881E-01
    9027.366     30.773   3.200  8.86249E-01  9.99239E-01 -1.12990E-01
    9028.347     31.755   3.240  8.89944E-01  9.98792E-01 -1.08849E-01
    9029.341     32.749   3.280  8.95203E-01  9.98333E-01 -1.03130E-01
    9030.346     33.754   3.320  9.02575E-01  9.97842E-01 -9.52665E-02
    9031.365     34.772   3.360  9.12324E-01  9.97344E-01 -8.50191E-02
    9032.395     35.803   3.400  9.24160E-01  9.96842E-01 -7.26820E-02
    9033.437     36.845   3.440  9.37319E-01  9.96341E-01 -5.90226E-02
    9034.492     37.900   3.480  9.50967E-01  9.95844E-01 -4.48768E-02
    9035.559     38.966   3.520  9.64575E-01  9.95371E-01 -3.07960E-02
    9036.638     40.045   3.560  9.78130E-01  9.94906E-01 -1.67764E-02
    9037.729     41.137   3.600  9.92194E-01  9.94472E-01 -2.27787E-03
    9038.832     42.240   3.640  1.00727E+00  9.94047E-01  1.32239E-02
    9039.948     43.356   3.680  1.02343E+00  9.93655E-01  2.97754E-02
    9041.075     44.483   3.720  1.04023E+00  9.93299E-01  4.69346E-02
    9042.215     45.623   3.760  1.05673E+00  9.92956E-01  6.37772E-02
    9043.367     46.775   3.800  1.07173E+00  9.92670E-01  7.90596E-02
    9044.532     47.940   3.840  1.08390E+00  9.92401E-01  9.14982E-02
    9045.708     49.116   3.880  1.09232E+00  9.92171E-01  1.00148E-01
    9046.897     50.305   3.920  1.09642E+00  9.91999E-01  1.04421E-01
    9048.098     51.506   3.960  1.09596E+00  9.91846E-01  1.04112E-01
    9049.311     52.719   4.000  1.09129E+00  9.91731E-01  9.95621E-02
    9050.536     53.944   4.040  1.08320E+00  9.91655E-01  9.15432E-02
    9051.774     55.182   4.080  1.07261E+00  9.91618E-01  8.09947E-02
    9053.024     56.431   4.120  1.06044E+00  9.91642E-01  6.88001E-02
    9054.285     57.693   4.160  1.04735E+00  9.91682E-01  5.56696E-02
    9055.559     58.967   4.200  1.03390E+00  9.91758E-01  4.21414E-02
    9056.846     60.254   4.240  1.02055E+00  9.91850E-01  2.87011E-02
    9058.144     61.552   4.280  1.00780E+00  9.92001E-01  1.57963E-02
    9059.455     62.863   4.320  9.96049E-01  9.92188E-01  3.86028E-03
    9060.778     64.185   4.360  9.85765E-01  9.92389E-01 -6.62347E-03
    9062.113     65.521   4.400  9.77546E-01  9.92623E-01 -1.50773E-02
    9063.460     66.868   4.440  9.71960E-01  9.92891E-01 -2.09307E-02
    9064.819     68.227   4.480  9.69370E-01  9.93169E-01 -2.37991E-02
    9066.191     69.599   4.520  9.69897E-01  9.93477E-01 -2.35800E-02
    9067.575     70.982   4.560  9.73264E-01  9.93794E-01 -2.05297E-02
    9068.971     72.378   4.600  9.78761E-01  9.94138E-01 -1.53773E-02
    9070.379     73.787   4.640  9.85220E-01  9.94490E-01 -9.26954E-03
    9071.799     75.207   4.680  9.91391E-01  9.94846E-01 -3.45508E-03
    9073.232     76.640   4.720  9.96333E-01  9.95229E-01  1.10379E-03
    9074.676     78.084   4.760  9.99542E-01  9.95614E-01  3.92783E-03
    9076.133     79.541   4.800  1.00095E+00  9.95999E-01  4.95524E-03
    9077.602     81.010   4.840  1.00067E+00  9.96385E-01  4.28340E-03
    9079.084     82.492   4.880  9.98739E-01  9.96769E-01  1.96937E-03
    9080.577     83.985   4.920  9.95231E-01  9.97150E-01 -1.91836E-03
    9082.083     85.491   4.960  9.90426E-01  9.97505E-01 -7.07822E-03
    9083.601     87.009   5.000  9.85004E-01  9.97876E-01 -1.28720E-02
    9085.131     88.539   5.040  9.79780E-01  9.98221E-01 -1.84411E-02
    9086.673     90.081   5.080  9.75694E-01  9.98558E-01 -2.28636E-02
    9088.228     91.636   5.120  9.73497E-01  9.98864E-01 -2.53674E-02
    9089.794     93.202   5.160  9.73625E-01  9.99163E-01 -2.55372E-02
    9091.373     94.781   5.200  9.76031E-01  9.99452E-01 -2.34212E-02
    9092.964     96.372   5.240  9.80199E-01  9.99708E-01 -1.95085E-02
    9094.568     97.975   5.280  9.85447E-01  9.99930E-01 -1.44829E-02
    9096.183     99.591   5.320  9.91059E-01  1.00014E+00 -9.08031E-03
    9097.811    101.219   5.360  9.96250E-01  1.00031E+00 -4.06426E-03
    9099.450    102.858   5.400  1.00026E+00  1.00045E+00 -1.92226E-04
    9101.102    104.510   5.440  1.00252E+00  1.00058E+00  1.94639E-03
    9102.767    106.175   5.480  1.00276E+00  1.00067E+00  2.09007E-03
    9104.443    107.851   5.520  1.00103E+00  1.00072E+00  3.09141E-04
    9106.132    109.540   5.560  9.97562E-01  1.00074E+00 -3.17433E-03
    9107.832    111.240   5.600  9.92617E-01  1.00074E+00 -8.12014E-03
    9109.545    112.953   5.640  9.86602E-01  1.00070E+00 -1.41003E-02
    9111.271    114.678   5.680  9.80281E-01  1.00063E+00 -2.03495E-02
    9113.008    116.416   5.720  9.74452E-01  1.00052E+00 -2.60658E-02
    9114.757    118.165   5.760  9.69585E-01  1.00037E+00 -3.07831E-02
    9116.519    119.927   5.800  9.65818E-01  1.00018E+00 -3.43629E-02
    9118.293    121.701   5.840  9.63202E-01  9.99980E-01 -3.67774E-02
    9120.079    123.487   5.880  9.61639E-01  9.99722E-01 -3.80821E-02
    9121.878    125.285   5.920  9.61081E-01  9.99457E-01 -3.83751E-02
    9123.688    127.096   5.960  9.61824E-01  9.99184E-01 -3.73602E-02
    9125.511    128.919   6.000  9.65257E-01  9.98830E-01 -3.35731E-02
