# # comment:                                                     FEFF 9.9.1  
# # Source:
# # Structure
# # Reduced
# # space
# # abc:
# # angles:
# # sites:
# # POT  SCF 100  7.0000   0, screened core-hole, AFOLP (folp(0)= 1.150)
# # Abs   Z=29 Rmt= 1.317 Rnm= 1.358 K  shell
# # Pot 1 Z=39 Rmt= 1.495 Rnm= 1.579
# # Pot 2 Z=12 Rmt= 1.370 Rnm= 1.436
# # Pot 3 Z=29 Rmt= 1.317 Rnm= 1.359
# # Pot 4 Z= 8 Rmt= 1.051 Rnm= 1.102
# # Gam_ch=1.729E+00 H-L exch Vi= 0.000E+00 Vr= 0.000E+00
# # Mu=-8.858E+00eV kf=2.058E+00 Vint=-2.053E+01eV Rs_int= 1.762
# FMS rfms= 9.0000
# # PATH  Rmax=-1.000,  Keep_limit= 0.00, Heap_limit 0.00  Pwcrit= 2.50%
#  S02=0.950  Temp=   0.00  Debye_temp=   0.00  Global_sig2= 0.00000
#  Energy zero shift, vr, vi    0.00000E+00   0.00000E+00
#  Curved wave amplitude ratio filter   4.000%
#     file         sig2 tot  cw amp ratio   deg  nlegs   reff  inp sig2
#     0/   0 paths used
#  xsedge+ 50, used to normalize mu           2.4621E-04
#  -----------------------------------------------------------------------
#  omega    e    k    mu    mu0     chi     @#
    8985.883    -12.668  -1.000  6.17887E-02  5.86013E-02  3.18739E-03
    8986.182    -12.369  -0.960  6.62271E-02  6.30097E-02  3.21739E-03
    8986.468    -12.082  -0.920  7.11222E-02  6.79226E-02  3.19955E-03
    8986.742    -11.808  -0.880  7.65329E-02  7.34160E-02  3.11694E-03
    8987.005    -11.546  -0.840  8.25256E-02  7.95780E-02  2.94767E-03
    8987.254    -11.296  -0.800  8.91749E-02  8.65111E-02  2.66372E-03
    8987.492    -11.058  -0.760  9.65630E-02  9.43333E-02  2.22970E-03
    8987.718    -10.833  -0.720  1.04780E-01  1.03178E-01  1.60176E-03
    8987.931    -10.619  -0.680  1.13919E-01  1.13192E-01  7.27250E-04
    8988.132    -10.418  -0.640  1.24077E-01  1.24532E-01 -4.54352E-04
    8988.321    -10.229  -0.600  1.35342E-01  1.37350E-01 -2.00768E-03
    8988.498    -10.052  -0.560  1.47785E-01  1.51778E-01 -3.99353E-03
    8988.663     -9.888  -0.520  1.61441E-01  1.67896E-01 -6.45499E-03
    8988.815     -9.735  -0.480  1.76291E-01  1.85688E-01 -9.39742E-03
    8988.955     -9.595  -0.440  1.92233E-01  2.04998E-01 -1.27652E-02
    8989.083     -9.467  -0.400  2.09061E-01  2.25484E-01 -1.64233E-02
    8989.199     -9.351  -0.360  2.26455E-01  2.46612E-01 -2.01573E-02
    8989.303     -9.248  -0.320  2.43983E-01  2.67684E-01 -2.37016E-02
    8989.394     -9.156  -0.280  2.61134E-01  2.87929E-01 -2.67951E-02
    8989.473     -9.077  -0.240  2.77359E-01  3.06605E-01 -2.92456E-02
    8989.540     -9.010  -0.200  2.92120E-01  3.23096E-01 -3.09752E-02
    8989.595     -8.955  -0.160  3.04927E-01  3.36954E-01 -3.20274E-02
    8989.638     -8.912  -0.120  3.15362E-01  3.47898E-01 -3.25369E-02
    8989.668     -8.882  -0.080  3.23095E-01  3.55776E-01 -3.26805E-02
    8989.693     -8.858   0.000  3.29534E-01  3.62100E-01 -3.25659E-02
    8989.748     -8.803   0.120  3.44020E-01  3.76349E-01 -3.23291E-02
    8989.790     -8.760   0.160  3.55633E-01  3.87406E-01 -3.17733E-02
    8989.845     -8.705   0.200  3.71048E-01  4.01480E-01 -3.04322E-02
    8989.912     -8.638   0.240  3.90675E-01  4.18378E-01 -2.77029E-02
    8989.992     -8.559   0.280  4.14920E-01  4.37707E-01 -2.27864E-02
    8990.083     -8.467   0.320  4.44258E-01  4.58950E-01 -1.46920E-02
    8990.187     -8.364   0.360  4.78972E-01  4.81408E-01 -2.43539E-03
    8990.302     -8.248   0.400  5.19124E-01  5.04397E-01  1.47264E-02
    8990.430     -8.120   0.440  5.64060E-01  5.27264E-01  3.67964E-02
    8990.571     -7.980   0.480  6.11974E-01  5.49514E-01  6.24604E-02
    8990.723     -7.827   0.520  6.59351E-01  5.70793E-01  8.85575E-02
    8990.888     -7.663   0.560  7.01119E-01  5.91002E-01  1.10116E-01
    8991.064     -7.486   0.600  7.31805E-01  6.10087E-01  1.21719E-01
    8991.253     -7.297   0.640  7.48531E-01  6.28118E-01  1.20412E-01
    8991.455     -7.096   0.680  7.53610E-01  6.45196E-01  1.08414E-01
    8991.668     -6.883   0.720  7.53572E-01  6.61436E-01  9.21357E-02
    8991.893     -6.657   0.760  7.54567E-01  6.76974E-01  7.75928E-02
    8992.131     -6.419   0.800  7.58280E-01  6.91914E-01  6.63659E-02
    8992.381     -6.169   0.840  7.60728E-01  7.06346E-01  5.43816E-02
    8992.643     -5.907   0.880  7.54262E-01  7.20366E-01  3.38960E-02
    8992.918     -5.633   0.920  7.34435E-01  7.34032E-01  4.02315E-04
    8993.204     -5.346   0.960  7.06957E-01  7.47386E-01 -4.04292E-02
    8993.503     -5.048   1.000  6.84566E-01  7.60461E-01 -7.58949E-02
    8993.814     -4.737   1.040  6.77863E-01  7.73278E-01 -9.54149E-02
    8994.137     -4.414   1.080  6.91401E-01  7.85846E-01 -9.44450E-02
    8994.472     -4.078   1.120  7.25056E-01  7.98212E-01 -7.31561E-02
    8994.820     -3.731   1.160  7.74096E-01  8.10333E-01 -3.62370E-02
    8995.179     -3.371   1.200  8.25059E-01  8.22219E-01  2.83959E-03
    8995.551     -2.999   1.240  8.60550E-01  8.33861E-01  2.66887E-02
    8995.935     -2.615   1.280  8.82081E-01  8.45244E-01  3.68373E-02
    8996.331     -2.219   1.320  9.15573E-01  8.56369E-01  5.92040E-02
    8996.740     -1.811   1.360  9.81840E-01  8.67217E-01  1.14624E-01
    8997.160     -1.390   1.400  1.08560E+00  8.77768E-01  2.07831E-01
    8997.593     -0.957   1.440  1.23363E+00  8.88000E-01  3.45627E-01
    8998.038     -0.512   1.480  1.44742E+00  8.97907E-01  5.49518E-01
    8998.495     -0.055   1.520  1.73781E+00  9.07468E-01  8.30346E-01
    8998.965      0.414   1.560  2.01755E+00  9.16681E-01  1.10087E+00
    8999.446      0.896   1.600  2.09583E+00  9.25542E-01  1.17029E+00
    8999.940      1.390   1.640  1.91093E+00  9.34007E-01  9.76928E-01
    9000.446      1.896   1.680  1.60614E+00  9.42072E-01  6.64064E-01
    9000.964      2.414   1.720  1.32476E+00  9.49757E-01  3.75005E-01
    9001.495      2.944   1.760  1.11491E+00  9.57022E-01  1.57888E-01
    9002.037      3.487   1.800  9.79524E-01  9.63883E-01  1.56416E-02
    9002.592      4.041   1.840  9.01110E-01  9.70341E-01 -6.92311E-02
    9003.159      4.608   1.880  8.62434E-01  9.76379E-01 -1.13945E-01
    9003.738      5.187   1.920  8.59216E-01  9.82017E-01 -1.22801E-01
    9004.329      5.779   1.960  8.86062E-01  9.87238E-01 -1.01176E-01
    9004.933      6.382   2.000  9.29686E-01  9.92044E-01 -6.23575E-02
    9005.548      6.998   2.040  9.79322E-01  9.96459E-01 -1.71366E-02
    9006.176      7.626   2.080  1.03289E+00  1.00049E+00  3.24035E-02
    9006.816      8.266   2.120  1.08657E+00  1.00414E+00  8.24316E-02
    9007.469      8.918   2.160  1.12305E+00  1.00741E+00  1.15642E-01
    9008.133      9.583   2.200  1.12636E+00  1.01032E+00  1.16047E-01
    9008.810     10.259   2.240  1.09522E+00  1.01290E+00  8.23180E-02
    9009.499     10.948   2.280  1.03546E+00  1.01513E+00  2.03312E-02
    9010.200     11.649   2.320  9.54091E-01  1.01703E+00 -6.29358E-02
    9010.913     12.362   2.360  8.63086E-01  1.01863E+00 -1.55539E-01
    9011.638     13.088   2.400  7.79611E-01  1.01993E+00 -2.40324E-01
    9012.376     13.825   2.440  7.17218E-01  1.02098E+00 -3.03763E-01
    9013.126     14.575   2.480  6.90068E-01  1.02175E+00 -3.31683E-01
    9013.888     15.337   2.520  6.88248E-01  1.02230E+00 -3.34049E-01
    9014.662     16.111   2.560  6.96465E-01  1.02260E+00 -3.26137E-01
    9015.448     16.898   2.600  7.09522E-01  1.02270E+00 -3.13177E-01
    9016.247     17.696   2.640  7.24368E-01  1.02261E+00 -2.98246E-01
    9017.058     18.507   2.680  7.40722E-01  1.02234E+00 -2.81614E-01
    9017.881     19.330   2.720  7.59377E-01  1.02189E+00 -2.62515E-01
    9018.716     20.165   2.760  7.80804E-01  1.02131E+00 -2.40508E-01
    9019.563     21.013   2.800  8.05508E-01  1.02058E+00 -2.15073E-01
    9020.423     21.872   2.840  8.33538E-01  1.01975E+00 -1.86213E-01
    9021.294     22.744   2.880  8.64125E-01  1.01883E+00 -1.54701E-01
    9022.178     23.628   2.920  8.96667E-01  1.01779E+00 -1.21127E-01
    9023.074     24.524   2.960  9.30646E-01  1.01670E+00 -8.60557E-02
    9023.983     25.432   3.000  9.65079E-01  1.01553E+00 -5.04541E-02
    9024.903     26.353   3.040  9.99218E-01  1.01430E+00 -1.50776E-02
    9025.836     27.285   3.080  1.03274E+00  1.01304E+00  1.97026E-02
    9026.781     28.230   3.120  1.06557E+00  1.01174E+00  5.38304E-02
    9027.738     29.187   3.160  1.09818E+00  1.01044E+00  8.77390E-02
    9028.707     30.157   3.200  1.13129E+00  1.00913E+00  1.22158E-01
    9029.689     31.138   3.240  1.16504E+00  1.00782E+00  1.57227E-01
    9030.682     32.132   3.280  1.19910E+00  1.00651E+00  1.92594E-01
    9031.688     33.138   3.320  1.23292E+00  1.00520E+00  2.27712E-01
    9032.706     34.156   3.360  1.26499E+00  1.00393E+00  2.61056E-01
    9033.736     35.186   3.400  1.29195E+00  1.00269E+00  2.89255E-01
    9034.779     36.228   3.440  1.30879E+00  1.00149E+00  3.07294E-01
    9035.833     37.283   3.480  1.30934E+00  1.00033E+00  3.09003E-01
    9036.900     38.350   3.520  1.28912E+00  9.99217E-01  2.89900E-01
    9037.979     39.429   3.560  1.24807E+00  9.98143E-01  2.49930E-01
    9039.070     40.520   3.600  1.19124E+00  9.97138E-01  1.94100E-01
    9040.174     41.623   3.640  1.12638E+00  9.96182E-01  1.30200E-01
    9041.289     42.739   3.680  1.06140E+00  9.95298E-01  6.61043E-02
    9042.417     43.866   3.720  1.00263E+00  9.94487E-01  8.14477E-03
    9043.557     45.006   3.760  9.53911E-01  9.93729E-01 -3.98181E-02
    9044.709     46.159   3.800  9.16795E-01  9.93045E-01 -7.62501E-02
    9045.873     47.323   3.840  8.91207E-01  9.92438E-01 -1.01230E-01
    9047.050     48.499   3.880  8.75925E-01  9.91905E-01 -1.15980E-01
    9048.239     49.688   3.920  8.68903E-01  9.91427E-01 -1.22524E-01
    9049.439     50.889   3.960  8.67740E-01  9.91025E-01 -1.23285E-01
    9050.653     52.102   4.000  8.70393E-01  9.90699E-01 -1.20306E-01
    9051.878     53.327   4.040  8.75846E-01  9.90449E-01 -1.14604E-01
    9053.115     54.565   4.080  8.84341E-01  9.90275E-01 -1.05934E-01
    9054.365     55.815   4.120  8.96509E-01  9.90153E-01 -9.36438E-02
    9055.627     57.076   4.160  9.12038E-01  9.90104E-01 -7.80663E-02
    9056.901     58.350   4.200  9.29084E-01  9.90107E-01 -6.10223E-02
    9058.187     59.637   4.240  9.44984E-01  9.90182E-01 -4.51978E-02
    9059.486     60.935   4.280  9.57371E-01  9.90328E-01 -3.29572E-02
    9060.796     62.246   4.320  9.65240E-01  9.90522E-01 -2.52828E-02
    9062.119     63.569   4.360  9.69018E-01  9.90785E-01 -2.17668E-02
    9063.454     64.904   4.400  9.69776E-01  9.91070E-01 -2.12942E-02
    9064.801     66.251   4.440  9.68606E-01  9.91419E-01 -2.28129E-02
    9066.161     67.610   4.480  9.66449E-01  9.91811E-01 -2.53620E-02
    9067.532     68.982   4.520  9.64238E-01  9.92243E-01 -2.80054E-02
    9068.916     70.366   4.560  9.62898E-01  9.92715E-01 -2.98167E-02
    9070.312     71.762   4.600  9.63289E-01  9.93221E-01 -2.99324E-02
    9071.720     73.170   4.640  9.66017E-01  9.93742E-01 -2.77251E-02
    9073.141     74.590   4.680  9.71554E-01  9.94316E-01 -2.27624E-02
    9074.573     76.023   4.720  9.80540E-01  9.94878E-01 -1.43371E-02
    9076.018     77.467   4.760  9.94306E-01  9.95468E-01 -1.16214E-03
    9077.475     78.924   4.800  1.01395E+00  9.96085E-01  1.78643E-02
    9078.944     80.394   4.840  1.03878E+00  9.96683E-01  4.21015E-02
    9080.425     81.875   4.880  1.06517E+00  9.97300E-01  6.78682E-02
    9081.919     83.368   4.920  1.08662E+00  9.97894E-01  8.87275E-02
    9083.425     84.874   4.960  1.09644E+00  9.98483E-01  9.79580E-02
    9084.942     86.392   5.000  1.09096E+00  9.99068E-01  9.18928E-02
    9086.473     87.922   5.040  1.07156E+00  9.99647E-01  7.19111E-02
    9088.015     89.464   5.080  1.04367E+00  1.00020E+00  4.34766E-02
    9089.569     91.019   5.120  1.01381E+00  1.00073E+00  1.30738E-02
    9091.136     92.585   5.160  9.86508E-01  1.00123E+00 -1.47265E-02
    9092.715     94.164   5.200  9.63669E-01  1.00170E+00 -3.80326E-02
    9094.306     95.755   5.240  9.45639E-01  1.00215E+00 -5.65146E-02
    9095.909     97.359   5.280  9.32632E-01  1.00257E+00 -6.99336E-02
    9097.525     98.974   5.320  9.25490E-01  1.00291E+00 -7.74241E-02
    9099.152    100.602   5.360  9.25650E-01  1.00324E+00 -7.75916E-02
    9100.792    102.242   5.400  9.34446E-01  1.00351E+00 -6.90615E-02
    9102.444    103.894   5.440  9.52393E-01  1.00375E+00 -5.13581E-02
    9104.108    105.558   5.480  9.77853E-01  1.00393E+00 -2.60759E-02
    9105.785    107.234   5.520  1.00684E+00  1.00406E+00  2.77487E-03
    9107.473    108.923   5.560  1.03457E+00  1.00415E+00  3.04240E-02
    9109.174    110.623   5.600  1.05790E+00  1.00416E+00  5.37355E-02
    9110.887    112.336   5.640  1.07564E+00  1.00414E+00  7.15042E-02
    9112.612    114.062   5.680  1.08678E+00  1.00406E+00  8.27121E-02
    9114.349    115.799   5.720  1.08955E+00  1.00395E+00  8.56014E-02
    9116.099    117.548   5.760  1.08286E+00  1.00376E+00  7.91009E-02
    9117.861    119.310   5.800  1.06848E+00  1.00353E+00  6.49549E-02
    9119.635    121.084   5.840  1.05055E+00  1.00326E+00  4.72933E-02
    9121.421    122.870   5.880  1.03297E+00  1.00292E+00  3.00569E-02
    9123.219    124.669   5.920  1.01789E+00  1.00253E+00  1.53555E-02
    9125.030    126.479   5.960  1.00614E+00  1.00211E+00  4.02603E-03
    9126.852    128.302   6.000  9.97903E-01  1.00162E+00 -3.71496E-03
