# # comment:                                                     FEFF 9.9.1  
# # Source:
# # Structure
# # Reduced
# # space
# # abc:
# # angles:
# # sites:
# # POT  SCF 100  7.0000   0, screened core-hole, AFOLP (folp(0)= 1.150)
# # Abs   Z=29 Rmt= 1.159 Rnm= 1.271 K  shell
# # Pot 1 Z=39 Rmt= 1.621 Rnm= 1.699
# # Pot 2 Z=29 Rmt= 1.167 Rnm= 1.277
# # Pot 3 Z= 8 Rmt= 1.051 Rnm= 1.109
# # Gam_ch=1.729E+00 H-L exch Vi= 0.000E+00 Vr= 0.000E+00
# # Mu=-8.128E+00eV kf=2.137E+00 Vint=-1.639E+01eV Rs_int= 1.697
# FMS rfms= 9.0000
# # PATH  Rmax=-1.000,  Keep_limit= 0.00, Heap_limit 0.00  Pwcrit= 2.50%
#  S02=0.950  Temp=   0.00  Debye_temp=   0.00  Global_sig2= 0.00000
#  Energy zero shift, vr, vi    0.00000E+00   0.00000E+00
#  Curved wave amplitude ratio filter   4.000%
#     file         sig2 tot  cw amp ratio   deg  nlegs   reff  inp sig2
#     0/   0 paths used
#  xsedge+ 50, used to normalize mu           2.4504E-04
#  -----------------------------------------------------------------------
#  omega    e    k    mu    mu0     chi     @#
    8983.992    -11.938  -1.000  3.49907E-02  5.45297E-02 -1.95390E-02
    8984.290    -11.639  -0.960  3.66797E-02  5.84719E-02 -2.17922E-02
    8984.577    -11.353  -0.920  3.84774E-02  6.28492E-02 -2.43718E-02
    8984.851    -11.078  -0.880  4.03926E-02  6.77253E-02 -2.73327E-02
    8985.113    -10.816  -0.840  4.24347E-02  7.31741E-02 -3.07394E-02
    8985.363    -10.566  -0.800  4.46139E-02  7.92814E-02 -3.46675E-02
    8985.601    -10.329  -0.760  4.69412E-02  8.61454E-02 -3.92042E-02
    8985.827    -10.103  -0.720  4.94282E-02  9.38771E-02 -4.44489E-02
    8986.040     -9.890  -0.680  5.20864E-02  1.02599E-01 -5.05122E-02
    8986.241     -9.688  -0.640  5.49270E-02  1.12439E-01 -5.75115E-02
    8986.430     -9.500  -0.600  5.79589E-02  1.23523E-01 -6.55644E-02
    8986.607     -9.323  -0.560  6.11866E-02  1.35961E-01 -7.47739E-02
    8986.771     -9.158  -0.520  6.46064E-02  1.49814E-01 -8.52074E-02
    8986.924     -9.006  -0.480  6.82016E-02  1.65068E-01 -9.68665E-02
    8987.064     -8.866  -0.440  7.19369E-02  1.81590E-01 -1.09653E-01
    8987.192     -8.738  -0.400  7.57542E-02  1.99092E-01 -1.23338E-01
    8987.308     -8.622  -0.360  7.95717E-02  2.17127E-01 -1.37555E-01
    8987.412     -8.518  -0.320  8.32893E-02  2.35108E-01 -1.51819E-01
    8987.503     -8.427  -0.280  8.68001E-02  2.52388E-01 -1.65588E-01
    8987.582     -8.347  -0.240  9.00038E-02  2.68342E-01 -1.78338E-01
    8987.649     -8.280  -0.200  9.28181E-02  2.82445E-01 -1.89627E-01
    8987.704     -8.225  -0.160  9.51831E-02  2.94313E-01 -1.99130E-01
    8987.747     -8.183  -0.120  9.70593E-02  3.03698E-01 -2.06638E-01
    8987.777     -8.152  -0.080  9.84220E-02  3.10460E-01 -2.12038E-01
    8987.802     -8.128   0.000  9.95399E-02  3.15895E-01 -2.16355E-01
    8987.857     -8.073   0.120  1.02055E-01  3.28153E-01 -2.26098E-01
    8987.899     -8.030   0.160  1.03981E-01  3.37697E-01 -2.33716E-01
    8987.954     -7.976   0.200  1.06404E-01  3.49865E-01 -2.43461E-01
    8988.021     -7.908   0.240  1.09347E-01  3.64539E-01 -2.55192E-01
    8988.100     -7.829   0.280  1.12741E-01  3.81397E-01 -2.68655E-01
    8988.192     -7.738   0.320  1.16622E-01  4.00044E-01 -2.83422E-01
    8988.295     -7.634   0.360  1.20958E-01  4.19945E-01 -2.98986E-01
    8988.411     -7.518   0.400  1.25871E-01  4.40568E-01 -3.14697E-01
    8988.539     -7.390   0.440  1.31504E-01  4.61349E-01 -3.29845E-01
    8988.679     -7.250   0.480  1.38199E-01  4.81919E-01 -3.43720E-01
    8988.832     -7.098   0.520  1.46422E-01  5.02029E-01 -3.55607E-01
    8988.996     -6.933   0.560  1.56796E-01  5.21544E-01 -3.64748E-01
    8989.173     -6.756   0.600  1.70159E-01  5.40430E-01 -3.70271E-01
    8989.362     -6.567   0.640  1.87575E-01  5.58721E-01 -3.71147E-01
    8989.563     -6.366   0.680  2.10498E-01  5.76487E-01 -3.65989E-01
    8989.777     -6.153   0.720  2.40697E-01  5.93849E-01 -3.53152E-01
    8990.002     -5.927   0.760  2.79809E-01  6.10845E-01 -3.31036E-01
    8990.240     -5.690   0.800  3.28406E-01  6.27566E-01 -2.99160E-01
    8990.490     -5.440   0.840  3.84860E-01  6.44048E-01 -2.59189E-01
    8990.752     -5.177   0.880  4.46048E-01  6.60377E-01 -2.14329E-01
    8991.026     -4.903   0.920  5.08765E-01  6.76519E-01 -1.67754E-01
    8991.313     -4.617   0.960  5.66275E-01  6.92535E-01 -1.26260E-01
    8991.612     -4.318   1.000  6.03181E-01  7.08410E-01 -1.05229E-01
    8991.923     -4.007   1.040  6.04557E-01  7.24124E-01 -1.19567E-01
    8992.246     -3.684   1.080  5.74640E-01  7.39689E-01 -1.65049E-01
    8992.581     -3.349   1.120  5.34991E-01  7.55068E-01 -2.20077E-01
    8992.928     -3.001   1.160  5.03061E-01  7.70242E-01 -2.67181E-01
    8993.288     -2.642   1.200  4.81892E-01  7.85168E-01 -3.03277E-01
    8993.660     -2.270   1.240  4.66561E-01  7.99840E-01 -3.33279E-01
    8994.044     -1.886   1.280  4.53488E-01  8.14208E-01 -3.60720E-01
    8994.440     -1.489   1.320  4.43711E-01  8.28264E-01 -3.84554E-01
    8994.849     -1.081   1.360  4.43463E-01  8.41936E-01 -3.98473E-01
    8995.269     -0.660   1.400  4.55614E-01  8.55211E-01 -3.99597E-01
    8995.702     -0.228   1.440  4.73059E-01  8.68061E-01 -3.95002E-01
    8996.147      0.217   1.480  4.89984E-01  8.80455E-01 -3.90470E-01
    8996.604      0.675   1.520  5.06984E-01  8.92384E-01 -3.85400E-01
    8997.074      1.144   1.560  5.28103E-01  9.03818E-01 -3.75716E-01
    8997.555      1.626   1.600  5.60326E-01  9.14730E-01 -3.54404E-01
    8998.049      2.119   1.640  6.11988E-01  9.25096E-01 -3.13108E-01
    8998.555      2.625   1.680  6.86154E-01  9.34930E-01 -2.48775E-01
    8999.073      3.144   1.720  7.75417E-01  9.44207E-01 -1.68790E-01
    8999.603      3.674   1.760  8.64605E-01  9.52930E-01 -8.83243E-02
    9000.146      4.216   1.800  9.42205E-01  9.61096E-01 -1.88917E-02
    9000.701      4.771   1.840  1.01656E+00  9.68687E-01  4.78778E-02
    9001.268      5.338   1.880  1.11620E+00  9.75725E-01  1.40471E-01
    9001.847      5.917   1.920  1.26062E+00  9.82216E-01  2.78408E-01
    9002.438      6.509   1.960  1.42795E+00  9.88166E-01  4.39781E-01
    9003.042      7.112   2.000  1.55596E+00  9.93581E-01  5.62384E-01
    9003.657      7.728   2.040  1.59380E+00  9.98508E-01  5.95288E-01
    9004.285      8.356   2.080  1.55663E+00  1.00292E+00  5.53714E-01
    9004.925      8.996   2.120  1.49394E+00  1.00685E+00  4.87083E-01
    9005.578      9.648   2.160  1.42499E+00  1.01031E+00  4.14675E-01
    9006.242     10.312   2.200  1.34417E+00  1.01334E+00  3.30825E-01
    9006.919     10.989   2.240  1.26302E+00  1.01596E+00  2.47063E-01
    9007.607     11.678   2.280  1.20748E+00  1.01818E+00  1.89296E-01
    9008.309     12.379   2.320  1.19259E+00  1.02001E+00  1.72580E-01
    9009.022     13.092   2.360  1.20580E+00  1.02150E+00  1.84297E-01
    9009.747     13.818   2.400  1.21828E+00  1.02266E+00  1.95615E-01
    9010.485     14.555   2.440  1.21596E+00  1.02350E+00  1.92460E-01
    9011.235     15.305   2.480  1.20608E+00  1.02406E+00  1.82011E-01
    9011.997     16.067   2.520  1.20010E+00  1.02436E+00  1.75742E-01
    9012.771     16.841   2.560  1.19162E+00  1.02440E+00  1.67222E-01
    9013.557     17.628   2.600  1.17255E+00  1.02423E+00  1.48319E-01
    9014.356     18.426   2.640  1.14594E+00  1.02388E+00  1.22062E-01
    9015.166     19.237   2.680  1.11625E+00  1.02333E+00  9.29169E-02
    9015.989     20.060   2.720  1.08670E+00  1.02262E+00  6.40758E-02
    9016.825     20.895   2.760  1.05889E+00  1.02176E+00  3.71311E-02
    9017.672     21.742   2.800  1.03305E+00  1.02079E+00  1.22597E-02
    9018.531     22.602   2.840  1.00928E+00  1.01970E+00 -1.04163E-02
    9019.403     23.474   2.880  9.87794E-01  1.01853E+00 -3.07315E-02
    9020.287     24.358   2.920  9.68082E-01  1.01727E+00 -4.91893E-02
    9021.183     25.254   2.960  9.49813E-01  1.01596E+00 -6.61512E-02
    9022.092     26.162   3.000  9.32449E-01  1.01461E+00 -8.21610E-02
    9023.012     27.082   3.040  9.15664E-01  1.01320E+00 -9.75319E-02
    9023.945     28.015   3.080  8.99959E-01  1.01179E+00 -1.11831E-01
    9024.890     28.960   3.120  8.86186E-01  1.01035E+00 -1.24168E-01
    9025.847     29.917   3.160  8.75001E-01  1.00890E+00 -1.33895E-01
    9026.816     30.886   3.200  8.67037E-01  1.00748E+00 -1.40444E-01
    9027.797     31.868   3.240  8.62763E-01  1.00605E+00 -1.43291E-01
    9028.791     32.861   3.280  8.62204E-01  1.00468E+00 -1.42474E-01
    9029.797     33.867   3.320  8.64766E-01  1.00332E+00 -1.38552E-01
    9030.815     34.885   3.360  8.69527E-01  1.00200E+00 -1.32469E-01
    9031.845     35.916   3.400  8.75517E-01  1.00072E+00 -1.25198E-01
    9032.887     36.958   3.440  8.81841E-01  9.99500E-01 -1.17659E-01
    9033.942     38.013   3.480  8.88210E-01  9.98333E-01 -1.10123E-01
    9035.009     39.079   3.520  8.94821E-01  9.97214E-01 -1.02393E-01
    9036.088     40.158   3.560  9.01958E-01  9.96166E-01 -9.42080E-02
    9037.179     41.249   3.600  9.09812E-01  9.95194E-01 -8.53822E-02
    9038.282     42.353   3.640  9.18317E-01  9.94276E-01 -7.59584E-02
    9039.398     43.468   3.680  9.27203E-01  9.93454E-01 -6.62511E-02
    9040.526     44.596   3.720  9.35800E-01  9.92691E-01 -5.68916E-02
    9041.666     45.736   3.760  9.43629E-01  9.92006E-01 -4.83765E-02
    9042.818     46.888   3.800  9.50400E-01  9.91398E-01 -4.09980E-02
    9043.982     48.053   3.840  9.56035E-01  9.90871E-01 -3.48356E-02
    9045.159     49.229   3.880  9.60696E-01  9.90422E-01 -2.97265E-02
    9046.347     50.418   3.920  9.64694E-01  9.90051E-01 -2.53576E-02
    9047.548     51.619   3.960  9.68412E-01  9.89739E-01 -2.13270E-02
    9048.761     52.832   4.000  9.72411E-01  9.89527E-01 -1.71168E-02
    9049.987     54.057   4.040  9.77256E-01  9.89394E-01 -1.21378E-02
    9051.224     55.295   4.080  9.83337E-01  9.89317E-01 -5.98024E-03
    9052.474     56.544   4.120  9.90887E-01  9.89318E-01  1.56988E-03
    9053.736     57.806   4.160  1.00005E+00  9.89416E-01  1.06318E-02
    9055.010     59.080   4.200  1.01062E+00  9.89546E-01  2.10760E-02
    9056.296     60.366   4.240  1.02221E+00  9.89772E-01  3.24345E-02
    9057.594     61.665   4.280  1.03394E+00  9.90048E-01  4.38952E-02
    9058.905     62.976   4.320  1.04479E+00  9.90373E-01  5.44183E-02
    9060.228     64.298   4.360  1.05377E+00  9.90767E-01  6.30065E-02
    9061.563     65.633   4.400  1.06025E+00  9.91210E-01  6.90440E-02
    9062.910     66.981   4.440  1.06439E+00  9.91720E-01  7.26653E-02
    9064.270     68.340   4.480  1.06680E+00  9.92273E-01  7.45303E-02
    9065.641     69.712   4.520  1.06821E+00  9.92867E-01  7.53446E-02
    9067.025     71.095   4.560  1.06894E+00  9.93480E-01  7.54621E-02
    9068.421     72.491   4.600  1.06900E+00  9.94152E-01  7.48479E-02
    9069.829     73.900   4.640  1.06825E+00  9.94860E-01  7.33896E-02
    9071.249     75.320   4.680  1.06681E+00  9.95582E-01  7.12232E-02
    9072.682     76.752   4.720  1.06492E+00  9.96335E-01  6.85846E-02
    9074.127     78.197   4.760  1.06261E+00  9.97097E-01  6.55158E-02
    9075.584     79.654   4.800  1.05978E+00  9.97886E-01  6.18986E-02
    9077.053     81.123   4.840  1.05630E+00  9.98680E-01  5.76233E-02
    9078.534     82.605   4.880  1.05219E+00  9.99476E-01  5.27095E-02
    9080.028     84.098   4.920  1.04756E+00  1.00027E+00  4.72910E-02
    9081.533     85.604   4.960  1.04248E+00  1.00106E+00  4.14159E-02
    9083.051     87.122   5.000  1.03686E+00  1.00185E+00  3.50074E-02
    9084.581     88.652   5.040  1.03060E+00  1.00261E+00  2.79869E-02
    9086.124     90.194   5.080  1.02372E+00  1.00336E+00  2.03541E-02
    9087.678     91.749   5.120  1.01642E+00  1.00411E+00  1.23158E-02
    9089.245     93.315   5.160  1.00912E+00  1.00482E+00  4.30070E-03
    9090.824     94.894   5.200  1.00235E+00  1.00552E+00 -3.16802E-03
    9092.415     96.485   5.240  9.96512E-01  1.00615E+00 -9.64198E-03
    9094.018     98.088   5.280  9.91852E-01  1.00678E+00 -1.49248E-02
    9095.633     99.704   5.320  9.88232E-01  1.00736E+00 -1.91273E-02
    9097.261    101.331   5.360  9.85337E-01  1.00790E+00 -2.25649E-02
    9098.901    102.971   5.400  9.82738E-01  1.00840E+00 -2.56660E-02
    9100.553    104.623   5.440  9.79968E-01  1.00886E+00 -2.88947E-02
    9102.217    106.287   5.480  9.76651E-01  1.00928E+00 -3.26246E-02
    9103.893    107.964   5.520  9.72635E-01  1.00962E+00 -3.69857E-02
    9105.582    109.652   5.560  9.68078E-01  1.00992E+00 -4.18416E-02
    9107.283    111.353   5.600  9.63416E-01  1.01017E+00 -4.67570E-02
    9108.996    113.066   5.640  9.59361E-01  1.01038E+00 -5.10197E-02
    9110.721    114.791   5.680  9.56717E-01  1.01052E+00 -5.37980E-02
    9112.458    116.529   5.720  9.56093E-01  1.01058E+00 -5.44858E-02
    9114.208    118.278   5.760  9.57754E-01  1.01062E+00 -5.28626E-02
    9115.970    120.040   5.800  9.61442E-01  1.01056E+00 -4.91215E-02
    9117.743    121.814   5.840  9.66750E-01  1.01049E+00 -4.37358E-02
    9119.530    123.600   5.880  9.72994E-01  1.01034E+00 -3.73444E-02
    9121.328    125.398   5.920  9.79377E-01  1.01012E+00 -3.07438E-02
    9123.138    127.209   5.960  9.85009E-01  1.00988E+00 -2.48666E-02
    9124.961    129.032   6.000  9.89003E-01  1.00952E+00 -2.05156E-02
