# # comment:                                                     FEFF 9.9.1  
# # Source:
# # Structure
# # Reduced
# # space
# # abc:
# # angles:
# # sites:
# # POT  SCF 100  7.0000   0, screened core-hole, AFOLP (folp(0)= 1.150)
# # Abs   Z=29 Rmt= 1.346 Rnm= 1.412 K  shell
# # Pot 1 Z=69 Rmt= 1.559 Rnm= 1.649
# # Pot 2 Z=29 Rmt= 1.346 Rnm= 1.412
# # Pot 3 Z=74 Rmt= 1.262 Rnm= 1.425
# # Pot 4 Z= 8 Rmt= 0.975 Rnm= 1.077
# # Gam_ch=1.729E+00 H-L exch Vi= 0.000E+00 Vr= 0.000E+00
# # Mu=-5.844E+00eV kf=2.257E+00 Vint=-1.647E+01eV Rs_int= 1.607
# FMS rfms= 9.0000
# # PATH  Rmax=-1.000,  Keep_limit= 0.00, Heap_limit 0.00  Pwcrit= 2.50%
#  S02=0.950  Temp=   0.00  Debye_temp=   0.00  Global_sig2= 0.00000
#  Energy zero shift, vr, vi    0.00000E+00   0.00000E+00
#  Curved wave amplitude ratio filter   4.000%
#     file         sig2 tot  cw amp ratio   deg  nlegs   reff  inp sig2
#     0/   0 paths used
#  xsedge+ 50, used to normalize mu           2.4617E-04
#  -----------------------------------------------------------------------
#  omega    e    k    mu    mu0     chi     @#
    8983.469     -9.654  -1.000  5.30400E-02  5.70694E-02 -4.02940E-03
    8983.768     -9.355  -0.960  5.64870E-02  6.13036E-02 -4.81658E-03
    8984.054     -9.069  -0.920  6.02634E-02  6.60169E-02 -5.75350E-03
    8984.329     -8.794  -0.880  6.44127E-02  7.12807E-02 -6.86797E-03
    8984.591     -8.532  -0.840  6.89855E-02  7.71781E-02 -8.19264E-03
    8984.841     -8.282  -0.800  7.40402E-02  8.38056E-02 -9.76546E-03
    8985.079     -8.045  -0.760  7.96439E-02  9.12740E-02 -1.16301E-02
    8985.304     -7.819  -0.720  8.58726E-02  9.97087E-02 -1.38360E-02
    8985.517     -7.606  -0.680  9.28100E-02  1.09248E-01 -1.64377E-02
    8985.719     -7.405  -0.640  1.00544E-01  1.20037E-01 -1.94932E-02
    8985.908     -7.216  -0.600  1.09161E-01  1.32221E-01 -2.30607E-02
    8986.084     -7.039  -0.560  1.18729E-01  1.45922E-01 -2.71931E-02
    8986.249     -6.874  -0.520  1.29285E-01  1.61215E-01 -3.19291E-02
    8986.401     -6.722  -0.480  1.40801E-01  1.78083E-01 -3.72821E-02
    8986.542     -6.582  -0.440  1.53153E-01  1.96379E-01 -4.32260E-02
    8986.670     -6.454  -0.400  1.66099E-01  2.15781E-01 -4.96815E-02
    8986.785     -6.338  -0.360  1.79277E-01  2.35785E-01 -5.65075E-02
    8986.889     -6.234  -0.320  1.92231E-01  2.55734E-01 -6.35028E-02
    8986.980     -6.143  -0.280  2.04480E-01  2.74901E-01 -7.04207E-02
    8987.060     -6.063  -0.240  2.15592E-01  2.92587E-01 -7.69949E-02
    8987.127     -5.996  -0.200  2.25239E-01  3.08208E-01 -8.29699E-02
    8987.182     -5.942  -0.160  2.33216E-01  3.21341E-01 -8.81247E-02
    8987.224     -5.899  -0.120  2.39426E-01  3.31716E-01 -9.22905E-02
    8987.255     -5.868  -0.080  2.43832E-01  3.39187E-01 -9.53552E-02
    8987.279     -5.844   0.000  2.47274E-01  3.45187E-01 -9.79122E-02
    8987.334     -5.789   0.120  2.54963E-01  3.58695E-01 -1.03731E-01
    8987.377     -5.746   0.160  2.60971E-01  3.69185E-01 -1.08213E-01
    8987.432     -5.692   0.200  2.68599E-01  3.82585E-01 -1.13985E-01
    8987.499     -5.625   0.240  2.77678E-01  3.98657E-01 -1.20979E-01
    8987.578     -5.545   0.280  2.88023E-01  4.17062E-01 -1.29038E-01
    8987.669     -5.454   0.320  2.99449E-01  4.37324E-01 -1.37875E-01
    8987.773     -5.350   0.360  3.11838E-01  4.58833E-01 -1.46996E-01
    8987.889     -5.234   0.400  3.25201E-01  4.80900E-01 -1.55700E-01
    8988.017     -5.106   0.440  3.39840E-01  5.02935E-01 -1.63094E-01
    8988.157     -4.966   0.480  3.56272E-01  5.24479E-01 -1.68207E-01
    8988.309     -4.814   0.520  3.75044E-01  5.45245E-01 -1.70201E-01
    8988.474     -4.649   0.560  3.96415E-01  5.65078E-01 -1.68663E-01
    8988.651     -4.472   0.600  4.19995E-01  5.83947E-01 -1.63952E-01
    8988.840     -4.283   0.640  4.44751E-01  6.01939E-01 -1.57189E-01
    8989.041     -4.082   0.680  4.69472E-01  6.19102E-01 -1.49630E-01
    8989.254     -3.869   0.720  4.93898E-01  6.35602E-01 -1.41703E-01
    8989.480     -3.643   0.760  5.18945E-01  6.51502E-01 -1.32557E-01
    8989.718     -3.406   0.800  5.46388E-01  6.66916E-01 -1.20528E-01
    8989.968     -3.156   0.840  5.78047E-01  6.81944E-01 -1.03897E-01
    8990.230     -2.894   0.880  6.15172E-01  6.96631E-01 -8.14592E-02
    8990.504     -2.619   0.920  6.58399E-01  7.11026E-01 -5.26267E-02
    8990.790     -2.333   0.960  7.08020E-01  7.25206E-01 -1.71858E-02
    8991.089     -2.034   1.000  7.64062E-01  7.39154E-01  2.49079E-02
    8991.400     -1.723   1.040  8.25874E-01  7.52906E-01  7.29686E-02
    8991.723     -1.400   1.080  8.89888E-01  7.66466E-01  1.23422E-01
    8992.058     -1.065   1.120  9.49871E-01  7.79832E-01  1.70039E-01
    8992.406     -0.717   1.160  1.00322E+00  7.92998E-01  2.10223E-01
    8992.766     -0.358   1.200  1.05198E+00  8.05950E-01  2.46029E-01
    8993.137      0.014   1.240  1.09603E+00  8.18674E-01  2.77360E-01
    8993.521      0.398   1.280  1.13160E+00  8.31149E-01  3.00448E-01
    8993.918      0.794   1.320  1.14707E+00  8.43355E-01  3.03712E-01
    8994.326      1.203   1.360  1.12717E+00  8.55287E-01  2.71882E-01
    8994.747      1.624   1.400  1.07542E+00  8.66921E-01  2.08498E-01
    8995.180      2.056   1.440  1.01953E+00  8.78231E-01  1.41298E-01
    8995.625      2.501   1.480  9.85223E-01  8.89173E-01  9.60505E-02
    8996.082      2.959   1.520  9.80234E-01  8.99758E-01  8.04761E-02
    8996.551      3.428   1.560  9.96037E-01  9.09962E-01  8.60742E-02
    8997.033      3.910   1.600  1.01869E+00  9.19759E-01  9.89302E-02
    8997.527      4.403   1.640  1.04161E+00  9.29145E-01  1.12469E-01
    8998.032      4.909   1.680  1.06573E+00  9.38094E-01  1.27640E-01
    8998.551      5.427   1.720  1.09082E+00  9.46602E-01  1.44218E-01
    8999.081      5.958   1.760  1.11836E+00  9.54667E-01  1.63695E-01
    8999.624      6.500   1.800  1.15182E+00  9.62268E-01  1.89552E-01
    9000.178      7.055   1.840  1.18478E+00  9.69424E-01  2.15355E-01
    9000.745      7.622   1.880  1.20810E+00  9.76114E-01  2.31981E-01
    9001.324      8.201   1.920  1.21958E+00  9.82320E-01  2.37258E-01
    9001.916      8.792   1.960  1.21830E+00  9.88084E-01  2.30218E-01
    9002.519      9.396   2.000  1.20623E+00  9.93410E-01  2.12818E-01
    9003.135     10.012   2.040  1.18948E+00  9.98260E-01  1.91224E-01
    9003.763     10.639   2.080  1.17110E+00  1.00268E+00  1.68420E-01
    9004.403     11.280   2.120  1.15075E+00  1.00668E+00  1.44067E-01
    9005.055     11.932   2.160  1.12904E+00  1.01026E+00  1.18781E-01
    9005.720     12.596   2.200  1.10848E+00  1.01343E+00  9.50511E-02
    9006.396     13.273   2.240  1.09121E+00  1.01621E+00  7.49917E-02
    9007.085     13.962   2.280  1.07760E+00  1.01863E+00  5.89722E-02
    9007.786     14.663   2.320  1.06352E+00  1.02067E+00  4.28482E-02
    9008.499     15.376   2.360  1.03684E+00  1.02238E+00  1.44571E-02
    9009.225     16.101   2.400  9.92375E-01  1.02376E+00 -3.13857E-02
    9009.962     16.839   2.440  9.42626E-01  1.02484E+00 -8.22165E-02
    9010.712     17.589   2.480  9.02062E-01  1.02564E+00 -1.23574E-01
    9011.474     18.351   2.520  8.76967E-01  1.02615E+00 -1.49182E-01
    9012.248     19.125   2.560  8.67871E-01  1.02643E+00 -1.58561E-01
    9013.035     19.911   2.600  8.72848E-01  1.02648E+00 -1.53628E-01
    9013.833     20.710   2.640  8.84993E-01  1.02629E+00 -1.41294E-01
    9014.644     21.521   2.680  8.97508E-01  1.02592E+00 -1.28410E-01
    9015.467     22.344   2.720  9.05347E-01  1.02538E+00 -1.20029E-01
    9016.302     23.179   2.760  9.11853E-01  1.02467E+00 -1.12819E-01
    9017.149     24.026   2.800  9.17843E-01  1.02383E+00 -1.05990E-01
    9018.009     24.886   2.840  9.23356E-01  1.02285E+00 -9.94924E-02
    9018.881     25.758   2.880  9.28115E-01  1.02177E+00 -9.36509E-02
    9019.765     26.641   2.920  9.32497E-01  1.02059E+00 -8.80938E-02
    9020.661     27.538   2.960  9.37551E-01  1.01931E+00 -8.17629E-02
    9021.569     28.446   3.000  9.43784E-01  1.01798E+00 -7.41970E-02
    9022.490     29.366   3.040  9.51185E-01  1.01660E+00 -6.54162E-02
    9023.422     30.299   3.080  9.59526E-01  1.01518E+00 -5.56546E-02
    9024.367     31.244   3.120  9.68330E-01  1.01374E+00 -4.54135E-02
    9025.324     32.201   3.160  9.76935E-01  1.01227E+00 -3.53395E-02
    9026.293     33.170   3.200  9.84903E-01  1.01078E+00 -2.58779E-02
    9027.275     34.152   3.240  9.92061E-01  1.00931E+00 -1.72481E-02
    9028.269     35.145   3.280  9.98219E-01  1.00786E+00 -9.64426E-03
    9029.274     36.151   3.320  1.00320E+00  1.00643E+00 -3.22631E-03
    9030.292     37.169   3.360  1.00667E+00  1.00500E+00  1.67312E-03
    9031.323     38.199   3.400  1.00837E+00  1.00363E+00  4.73846E-03
    9032.365     39.242   3.440  1.00837E+00  1.00231E+00  6.06445E-03
    9033.420     40.296   3.480  1.00723E+00  1.00103E+00  6.20112E-03
    9034.486     41.363   3.520  1.00574E+00  9.99791E-01  5.94588E-03
    9035.565     42.442   3.560  1.00472E+00  9.98624E-01  6.09794E-03
    9036.657     43.533   3.600  1.00476E+00  9.97510E-01  7.25352E-03
    9037.760     44.637   3.640  1.00624E+00  9.96490E-01  9.74824E-03
    9038.876     45.752   3.680  1.00923E+00  9.95523E-01  1.37059E-02
    9040.003     46.880   3.720  1.01382E+00  9.94612E-01  1.92047E-02
    9041.143     48.020   3.760  1.02008E+00  9.93801E-01  2.62761E-02
    9042.295     49.172   3.800  1.02783E+00  9.93068E-01  3.47668E-02
    9043.460     50.336   3.840  1.03663E+00  9.92393E-01  4.42356E-02
    9044.636     51.513   3.880  1.04588E+00  9.91819E-01  5.40576E-02
    9045.825     52.702   3.920  1.05481E+00  9.91325E-01  6.34879E-02
    9047.026     53.903   3.960  1.06249E+00  9.90890E-01  7.15948E-02
    9048.239     55.116   4.000  1.06799E+00  9.90554E-01  7.74406E-02
    9049.464     56.341   4.040  1.07054E+00  9.90277E-01  8.02608E-02
    9050.702     57.578   4.080  1.06974E+00  9.90100E-01  7.96445E-02
    9051.951     58.828   4.120  1.06579E+00  9.89980E-01  7.58106E-02
    9053.213     60.090   4.160  1.05953E+00  9.89936E-01  6.95974E-02
    9054.487     61.364   4.200  1.05210E+00  9.89970E-01  6.21315E-02
    9055.774     62.650   4.240  1.04450E+00  9.90080E-01  5.44207E-02
    9057.072     63.949   4.280  1.03723E+00  9.90264E-01  4.69632E-02
    9058.383     65.259   4.320  1.03008E+00  9.90497E-01  3.95846E-02
    9059.705     66.582   4.360  1.02248E+00  9.90779E-01  3.16978E-02
    9061.040     67.917   4.400  1.01390E+00  9.91128E-01  2.27703E-02
    9062.388     69.264   4.440  1.00420E+00  9.91523E-01  1.26756E-02
    9063.747     70.624   4.480  9.93724E-01  9.91963E-01  1.76146E-03
    9065.119     71.995   4.520  9.83170E-01  9.92466E-01 -9.29526E-03
    9066.502     73.379   4.560  9.73224E-01  9.92988E-01 -1.97635E-02
    9067.898     74.775   4.600  9.64495E-01  9.93569E-01 -2.90739E-02
    9069.307     76.183   4.640  9.57345E-01  9.94165E-01 -3.68194E-02
    9070.727     77.604   4.680  9.52146E-01  9.94792E-01 -4.26468E-02
    9072.160     79.036   4.720  9.49212E-01  9.95430E-01 -4.62181E-02
    9073.604     80.481   4.760  9.48747E-01  9.96095E-01 -4.73486E-02
    9075.061     81.938   4.800  9.50456E-01  9.96765E-01 -4.63084E-02
    9076.530     83.407   4.840  9.53517E-01  9.97436E-01 -4.39183E-02
    9078.012     84.888   4.880  9.56870E-01  9.98107E-01 -4.12374E-02
    9079.505     86.382   4.920  9.59599E-01  9.98777E-01 -3.91776E-02
    9081.011     87.888   4.960  9.61239E-01  9.99443E-01 -3.82048E-02
    9082.529     89.406   5.000  9.61808E-01  1.00010E+00 -3.82965E-02
    9084.059     90.936   5.040  9.61600E-01  1.00073E+00 -3.91346E-02
    9085.601     92.478   5.080  9.61108E-01  1.00135E+00 -4.02456E-02
    9087.156     94.032   5.120  9.60843E-01  1.00194E+00 -4.10949E-02
    9088.722     95.599   5.160  9.61318E-01  1.00248E+00 -4.11664E-02
    9090.301     97.178   5.200  9.62949E-01  1.00299E+00 -4.00441E-02
    9091.892     98.769   5.240  9.65909E-01  1.00349E+00 -3.75772E-02
    9093.495    100.372   5.280  9.69992E-01  1.00394E+00 -3.39457E-02
    9095.111    101.988   5.320  9.74686E-01  1.00432E+00 -2.96374E-02
    9096.739    103.615   5.360  9.79435E-01  1.00466E+00 -2.52296E-02
    9098.378    105.255   5.400  9.83818E-01  1.00496E+00 -2.11446E-02
    9100.030    106.907   5.440  9.87733E-01  1.00522E+00 -1.74826E-02
    9101.695    108.571   5.480  9.91441E-01  1.00542E+00 -1.39810E-02
    9103.371    110.248   5.520  9.95501E-01  1.00556E+00 -1.00584E-02
    9105.060    111.936   5.560  1.00067E+00  1.00565E+00 -4.98259E-03
    9106.760    113.637   5.600  1.00753E+00  1.00567E+00  1.86911E-03
    9108.473    115.350   5.640  1.01643E+00  1.00564E+00  1.07926E-02
    9110.198    117.075   5.680  1.02717E+00  1.00556E+00  2.16147E-02
    9111.936    118.813   5.720  1.03897E+00  1.00541E+00  3.35645E-02
    9113.685    120.562   5.760  1.05046E+00  1.00519E+00  4.52748E-02
    9115.447    122.324   5.800  1.06004E+00  1.00492E+00  5.51250E-02
    9117.221    124.098   5.840  1.06636E+00  1.00461E+00  6.17499E-02
    9119.007    125.884   5.880  1.06865E+00  1.00426E+00  6.43962E-02
    9120.805    127.682   5.920  1.06685E+00  1.00384E+00  6.30085E-02
    9122.616    129.493   5.960  1.06143E+00  1.00338E+00  5.80516E-02
    9124.439    131.315   6.000  1.05302E+00  1.00284E+00  5.01730E-02
