# # comment:                                                     FEFF 9.9.1  
# # Source:
# # Structure
# # Reduced
# # space
# # abc:
# # angles:107.586138
# # sites:
# # POT  SCF 100  7.0000   0, screened core-hole, AFOLP (folp(0)= 1.150)
# # Abs   Z=29 Rmt= 1.247 Rnm= 1.324 K  shell
# # Pot 1 Z=56 Rmt= 1.918 Rnm= 1.985
# # Pot 2 Z=38 Rmt= 1.816 Rnm= 1.887
# # Pot 3 Z=29 Rmt= 1.240 Rnm= 1.321
# # Pot 4 Z= 8 Rmt= 1.089 Rnm= 1.136
# # Gam_ch=1.729E+00 H-L exch Vi= 0.000E+00 Vr= 0.000E+00
# # Mu=-1.054E+01eV kf=1.885E+00 Vint=-1.746E+01eV Rs_int= 1.924
# FMS rfms= 9.0000
# # PATH  Rmax=-1.000,  Keep_limit= 0.00, Heap_limit 0.00  Pwcrit= 2.50%
#  S02=0.950  Temp=   0.00  Debye_temp=   0.00  Global_sig2= 0.00000
#  Energy zero shift, vr, vi    0.00000E+00   0.00000E+00
#  Curved wave amplitude ratio filter   4.000%
#     file         sig2 tot  cw amp ratio   deg  nlegs   reff  inp sig2
#     0/   0 paths used
#  xsedge+ 50, used to normalize mu           2.4513E-04
#  -----------------------------------------------------------------------
#  omega    e    k    mu    mu0     chi     @#
    8985.344    -14.352  -1.000  3.31799E-02  5.10442E-02 -1.78644E-02
    8985.643    -14.053  -0.960  3.47022E-02  5.46291E-02 -1.99269E-02
    8985.929    -13.767  -0.920  3.63275E-02  5.85998E-02 -2.22723E-02
    8986.204    -13.493  -0.880  3.80678E-02  6.30116E-02 -2.49438E-02
    8986.466    -13.231  -0.840  3.99370E-02  6.79290E-02 -2.79920E-02
    8986.716    -12.981  -0.800  4.19513E-02  7.34262E-02 -3.14749E-02
    8986.953    -12.743  -0.760  4.41296E-02  7.95884E-02 -3.54588E-02
    8987.179    -12.517  -0.720  4.64932E-02  8.65115E-02 -4.00183E-02
    8987.392    -12.304  -0.680  4.90657E-02  9.43010E-02 -4.52353E-02
    8987.593    -12.103  -0.640  5.18720E-02  1.03068E-01 -5.11956E-02
    8987.782    -11.914  -0.600  5.49364E-02  1.12920E-01 -5.79835E-02
    8987.959    -11.737  -0.560  5.82795E-02  1.23950E-01 -6.56702E-02
    8988.124    -11.572  -0.520  6.19130E-02  1.36211E-01 -7.42978E-02
    8988.276    -11.420  -0.480  6.58323E-02  1.49688E-01 -8.38561E-02
    8988.416    -11.280  -0.440  7.00088E-02  1.64265E-01 -9.42564E-02
    8988.544    -11.152  -0.400  7.43822E-02  1.79691E-01 -1.05309E-01
    8988.660    -11.036  -0.360  7.88578E-02  1.95576E-01 -1.16718E-01
    8988.764    -10.932  -0.320  8.33107E-02  2.11410E-01 -1.28100E-01
    8988.855    -10.841  -0.280  8.75987E-02  2.26629E-01 -1.39031E-01
    8988.935    -10.762  -0.240  9.15796E-02  2.40687E-01 -1.49108E-01
    8989.002    -10.695  -0.200  9.51275E-02  2.53124E-01 -1.57996E-01
    8989.057    -10.640  -0.160  9.81424E-02  2.63598E-01 -1.65456E-01
    8989.099    -10.597  -0.120  1.00553E-01  2.71889E-01 -1.71336E-01
    8989.130    -10.567  -0.080  1.02314E-01  2.77869E-01 -1.75555E-01
    8989.154    -10.542   0.000  1.03767E-01  2.82678E-01 -1.78911E-01
    8989.209    -10.487   0.120  1.07032E-01  2.93530E-01 -1.86498E-01
    8989.252    -10.445   0.160  1.09538E-01  3.01979E-01 -1.92442E-01
    8989.306    -10.390   0.200  1.12723E-01  3.12802E-01 -2.00079E-01
    8989.374    -10.323   0.240  1.16539E-01  3.25853E-01 -2.09315E-01
    8989.453    -10.243   0.280  1.20919E-01  3.40927E-01 -2.20008E-01
    8989.544    -10.152   0.320  1.25661E-01  3.57641E-01 -2.31980E-01
    8989.648    -10.048   0.360  1.30528E-01  3.75610E-01 -2.45082E-01
    8989.764     -9.933   0.400  1.35162E-01  3.94335E-01 -2.59173E-01
    8989.892     -9.805   0.440  1.39157E-01  4.13395E-01 -2.74238E-01
    8990.032     -9.664   0.480  1.42165E-01  4.32466E-01 -2.90301E-01
    8990.184     -9.512   0.520  1.44099E-01  4.51320E-01 -3.07221E-01
    8990.349     -9.347   0.560  1.45136E-01  4.69838E-01 -3.24702E-01
    8990.526     -9.171   0.600  1.45773E-01  4.88010E-01 -3.42237E-01
    8990.715     -8.982   0.640  1.46474E-01  5.05878E-01 -3.59404E-01
    8990.916     -8.780   0.680  1.47516E-01  5.23455E-01 -3.75939E-01
    8991.129     -8.567   0.720  1.49275E-01  5.40840E-01 -3.91566E-01
    8991.355     -8.342   0.760  1.52265E-01  5.58074E-01 -4.05808E-01
    8991.592     -8.104   0.800  1.57333E-01  5.75225E-01 -4.17893E-01
    8991.842     -7.854   0.840  1.65393E-01  5.92292E-01 -4.26899E-01
    8992.105     -7.592   0.880  1.77486E-01  6.09342E-01 -4.31856E-01
    8992.379     -7.317   0.920  1.94750E-01  6.26347E-01 -4.31598E-01
    8992.665     -7.031   0.960  2.18476E-01  6.43313E-01 -4.24837E-01
    8992.964     -6.732   1.000  2.49760E-01  6.60212E-01 -4.10452E-01
    8993.275     -6.421   1.040  2.88787E-01  6.77053E-01 -3.88266E-01
    8993.598     -6.098   1.080  3.33923E-01  6.93796E-01 -3.59873E-01
    8993.933     -5.763   1.120  3.82297E-01  7.10395E-01 -3.28098E-01
    8994.281     -5.415   1.160  4.31551E-01  7.26822E-01 -2.95271E-01
    8994.640     -5.056   1.200  4.79527E-01  7.43025E-01 -2.63498E-01
    8995.012     -4.684   1.240  5.21015E-01  7.58990E-01 -2.37976E-01
    8995.396     -4.300   1.280  5.50541E-01  7.74621E-01 -2.24081E-01
    8995.793     -3.904   1.320  5.70355E-01  7.89944E-01 -2.19589E-01
    8996.201     -3.495   1.360  5.89518E-01  8.04860E-01 -2.15342E-01
    8996.622     -3.075   1.400  6.18270E-01  8.19355E-01 -2.01085E-01
    8997.054     -2.642   1.440  6.66482E-01  8.33394E-01 -1.66913E-01
    8997.499     -2.197   1.480  7.37354E-01  8.46943E-01 -1.09589E-01
    8997.957     -1.740   1.520  8.12986E-01  8.59989E-01 -4.70033E-02
    8998.426     -1.270   1.560  8.68886E-01  8.72462E-01 -3.57615E-03
    8998.908     -0.789   1.600  9.22186E-01  8.84394E-01  3.77929E-02
    8999.401     -0.295   1.640  1.01620E+00  8.95736E-01  1.20461E-01
    8999.907      0.211   1.680  1.14852E+00  9.06463E-01  2.42056E-01
    9000.426      0.729   1.720  1.24806E+00  9.16613E-01  3.31451E-01
    9000.956      1.260   1.760  1.26759E+00  9.26146E-01  3.41444E-01
    9001.498      1.802   1.800  1.28657E+00  9.35060E-01  3.51511E-01
    9002.053      2.357   1.840  1.37092E+00  9.43381E-01  4.27540E-01
    9002.620      2.924   1.880  1.50246E+00  9.51112E-01  5.51345E-01
    9003.199      3.503   1.920  1.60397E+00  9.58258E-01  6.45713E-01
    9003.790      4.094   1.960  1.58265E+00  9.64826E-01  6.17827E-01
    9004.394      4.698   2.000  1.44376E+00  9.70824E-01  4.72934E-01
    9005.010      5.313   2.040  1.27756E+00  9.76283E-01  3.01281E-01
    9005.638      5.941   2.080  1.14261E+00  9.81234E-01  1.61376E-01
    9006.278      6.581   2.120  1.05004E+00  9.85687E-01  6.43538E-02
    9006.930      7.234   2.160  9.92146E-01  9.89675E-01  2.47043E-03
    9007.594      7.898   2.200  9.63876E-01  9.93189E-01 -2.93131E-02
    9008.271      8.575   2.240  9.55730E-01  9.96283E-01 -4.05527E-02
    9008.960      9.264   2.280  9.45599E-01  9.98989E-01 -5.33903E-02
    9009.661      9.965   2.320  9.35797E-01  1.00130E+00 -6.55023E-02
    9010.374     10.678   2.360  9.34847E-01  1.00327E+00 -6.84201E-02
    9011.100     11.403   2.400  9.41393E-01  1.00490E+00 -6.35111E-02
    9011.837     12.141   2.440  9.53035E-01  1.00623E+00 -5.31914E-02
    9012.587     12.891   2.480  9.69775E-01  1.00728E+00 -3.75098E-02
    9013.349     13.653   2.520  9.90772E-01  1.00809E+00 -1.73182E-02
    9014.123     14.427   2.560  1.01332E+00  1.00865E+00  4.66849E-03
    9014.910     15.213   2.600  1.03377E+00  1.00901E+00  2.47587E-02
    9015.708     16.012   2.640  1.04875E+00  1.00916E+00  3.95819E-02
    9016.519     16.823   2.680  1.05605E+00  1.00915E+00  4.69038E-02
    9017.342     17.646   2.720  1.05513E+00  1.00900E+00  4.61320E-02
    9018.177     18.481   2.760  1.04707E+00  1.00870E+00  3.83656E-02
    9019.024     19.328   2.800  1.03344E+00  1.00830E+00  2.51364E-02
    9019.884     20.188   2.840  1.01615E+00  1.00779E+00  8.35995E-03
    9020.756     21.059   2.880  9.96918E-01  1.00722E+00 -1.03005E-02
    9021.640     21.943   2.920  9.76809E-01  1.00657E+00 -2.97601E-02
    9022.536     22.839   2.960  9.56610E-01  1.00585E+00 -4.92407E-02
    9023.444     23.748   3.000  9.36966E-01  1.00511E+00 -6.81448E-02
    9024.364     24.668   3.040  9.18576E-01  1.00433E+00 -8.57557E-02
    9025.297     25.601   3.080  9.02427E-01  1.00352E+00 -1.01095E-01
    9026.242     26.546   3.120  8.89401E-01  1.00271E+00 -1.13307E-01
    9027.199     27.503   3.160  8.80033E-01  1.00191E+00 -1.21878E-01
    9028.168     28.472   3.200  8.74531E-01  1.00110E+00 -1.26567E-01
    9029.150     29.453   3.240  8.72963E-01  1.00031E+00 -1.27348E-01
    9030.143     30.447   3.280  8.74831E-01  9.99555E-01 -1.24724E-01
    9031.149     31.453   3.320  8.79633E-01  9.98812E-01 -1.19179E-01
    9032.167     32.471   3.360  8.87099E-01  9.98104E-01 -1.11006E-01
    9033.197     33.501   3.400  8.97072E-01  9.97436E-01 -1.00364E-01
    9034.240     34.544   3.440  9.09275E-01  9.96809E-01 -8.75336E-02
    9035.294     35.598   3.480  9.23450E-01  9.96245E-01 -7.27950E-02
    9036.361     36.665   3.520  9.39192E-01  9.95704E-01 -5.65121E-02
    9037.440     37.744   3.560  9.55927E-01  9.95231E-01 -3.93036E-02
    9038.531     38.835   3.600  9.72952E-01  9.94824E-01 -2.18713E-02
    9039.635     39.939   3.640  9.89552E-01  9.94443E-01 -4.89154E-03
    9040.750     41.054   3.680  1.00495E+00  9.94130E-01  1.08187E-02
    9041.878     42.182   3.720  1.01838E+00  9.93886E-01  2.44981E-02
    9043.018     43.322   3.760  1.02915E+00  9.93691E-01  3.54557E-02
    9044.170     44.474   3.800  1.03659E+00  9.93542E-01  4.30502E-02
    9045.335     45.638   3.840  1.04048E+00  9.93460E-01  4.70245E-02
    9046.511     46.815   3.880  1.04124E+00  9.93426E-01  4.78150E-02
    9047.700     48.004   3.920  1.03991E+00  9.93438E-01  4.64671E-02
    9048.901     49.204   3.960  1.03758E+00  9.93517E-01  4.40664E-02
    9050.114     50.418   4.000  1.03500E+00  9.93641E-01  4.13623E-02
    9051.339     51.643   4.040  1.03248E+00  9.93810E-01  3.86717E-02
    9052.577     52.880   4.080  1.03017E+00  9.94042E-01  3.61255E-02
    9053.826     54.130   4.120  1.02823E+00  9.94294E-01  3.39365E-02
    9055.088     55.392   4.160  1.02725E+00  9.94608E-01  3.26414E-02
    9056.362     56.666   4.200  1.02775E+00  9.94938E-01  3.28098E-02
    9057.648     57.952   4.240  1.02992E+00  9.95307E-01  3.46167E-02
    9058.947     59.251   4.280  1.03340E+00  9.95734E-01  3.76671E-02
    9060.257     60.561   4.320  1.03729E+00  9.96173E-01  4.11141E-02
    9061.580     61.884   4.360  1.04066E+00  9.96624E-01  4.40397E-02
    9062.915     63.219   4.400  1.04308E+00  9.97106E-01  4.59758E-02
    9064.263     64.566   4.440  1.04476E+00  9.97618E-01  4.71426E-02
    9065.622     65.926   4.480  1.04632E+00  9.98137E-01  4.81785E-02
    9066.994     67.297   4.520  1.04827E+00  9.98662E-01  4.96092E-02
    9068.377     68.681   4.560  1.05073E+00  9.99213E-01  5.15149E-02
    9069.773     70.077   4.600  1.05307E+00  9.99766E-01  5.33063E-02
    9071.181     71.485   4.640  1.05421E+00  1.00032E+00  5.38892E-02
    9072.602     72.906   4.680  1.05284E+00  1.00085E+00  5.19900E-02
    9074.034     74.338   4.720  1.04793E+00  1.00139E+00  4.65407E-02
    9075.479     75.783   4.760  1.03916E+00  1.00194E+00  3.72229E-02
    9076.936     77.240   4.800  1.02722E+00  1.00245E+00  2.47640E-02
    9078.405     78.709   4.840  1.01372E+00  1.00296E+00  1.07593E-02
    9079.887     80.190   4.880  1.00062E+00  1.00344E+00 -2.81358E-03
    9081.380     81.684   4.920  9.89704E-01  1.00390E+00 -1.41965E-02
    9082.886     83.190   4.960  9.82102E-01  1.00433E+00 -2.22323E-02
    9084.404     84.707   5.000  9.78256E-01  1.00475E+00 -2.64988E-02
    9085.934     86.237   5.040  9.77684E-01  1.00514E+00 -2.74578E-02
    9087.476     87.780   5.080  9.79257E-01  1.00552E+00 -2.62597E-02
    9089.030     89.334   5.120  9.81464E-01  1.00585E+00 -2.43887E-02
    9090.597     90.901   5.160  9.82894E-01  1.00613E+00 -2.32359E-02
    9092.176     92.480   5.200  9.82550E-01  1.00641E+00 -2.38608E-02
    9093.767     94.071   5.240  9.79732E-01  1.00663E+00 -2.68993E-02
    9095.370     95.674   5.280  9.74423E-01  1.00681E+00 -3.23872E-02
    9096.986     97.289   5.320  9.67304E-01  1.00695E+00 -3.96440E-02
    9098.613     98.917   5.360  9.59641E-01  1.00705E+00 -4.74044E-02
    9100.253    100.557   5.400  9.52808E-01  1.00713E+00 -5.43180E-02
    9101.905    102.209   5.440  9.47730E-01  1.00715E+00 -5.94153E-02
    9103.569    103.873   5.480  9.44847E-01  1.00714E+00 -6.22967E-02
    9105.246    105.550   5.520  9.44185E-01  1.00708E+00 -6.28947E-02
    9106.934    107.238   5.560  9.45726E-01  1.00697E+00 -6.12476E-02
    9108.635    108.939   5.600  9.49472E-01  1.00685E+00 -5.73805E-02
    9110.348    110.652   5.640  9.55233E-01  1.00669E+00 -5.14589E-02
    9112.073    112.377   5.680  9.62192E-01  1.00647E+00 -4.42765E-02
    9113.811    114.114   5.720  9.69824E-01  1.00623E+00 -3.64042E-02
    9115.560    115.864   5.760  9.77479E-01  1.00595E+00 -2.84726E-02
    9117.322    117.626   5.800  9.84811E-01  1.00564E+00 -2.08270E-02
    9119.096    119.400   5.840  9.91855E-01  1.00529E+00 -1.34324E-02
    9120.882    121.186   5.880  9.98970E-01  1.00490E+00 -5.93255E-03
    9122.680    122.984   5.920  1.00667E+00  1.00451E+00  2.16000E-03
    9124.491    124.795   5.960  1.01512E+00  1.00409E+00  1.10254E-02
    9126.313    126.617   6.000  1.02449E+00  1.00362E+00  2.08749E-02
