# # comment:                                                     FEFF 9.9.1  
# # Source:
# # Structure
# # Reduced
# # space
# # abc:
# # angles:
# # sites:
# # POT  SCF 100  7.0000   0, screened core-hole, AFOLP (folp(0)= 1.150)
# # Abs   Z=29 Rmt= 1.246 Rnm= 1.315 K  shell
# # Pot 1 Z=27 Rmt= 1.226 Rnm= 1.316
# # Pot 2 Z=29 Rmt= 1.246 Rnm= 1.315
# # Pot 3 Z= 8 Rmt= 0.995 Rnm= 1.068
# # Gam_ch=1.729E+00 H-L exch Vi= 0.000E+00 Vr= 0.000E+00
# # Mu=-1.187E+01eV kf=2.302E+00 Vint=-2.019E+01eV Rs_int= 1.575
# FMS rfms= 9.0000
# # PATH  Rmax=-1.000,  Keep_limit= 0.00, Heap_limit 0.00  Pwcrit= 2.50%
#  S02=0.950  Temp=   0.00  Debye_temp=   0.00  Global_sig2= 0.00000
#  Energy zero shift, vr, vi    0.00000E+00   0.00000E+00
#  Curved wave amplitude ratio filter   4.000%
#     file         sig2 tot  cw amp ratio   deg  nlegs   reff  inp sig2
#     0/   0 paths used
#  xsedge+ 50, used to normalize mu           2.5360E-04
#  -----------------------------------------------------------------------
#  omega    e    k    mu    mu0     chi     @#
    8984.375    -15.685  -1.000  2.81989E-02  4.14330E-02 -1.32341E-02
    8984.674    -15.386  -0.960  2.94601E-02  4.41625E-02 -1.47024E-02
    8984.961    -15.100  -0.920  3.08068E-02  4.71769E-02 -1.63701E-02
    8985.235    -14.825  -0.880  3.22479E-02  5.05170E-02 -1.82692E-02
    8985.497    -14.563  -0.840  3.37933E-02  5.42302E-02 -2.04369E-02
    8985.747    -14.313  -0.800  3.54544E-02  5.83713E-02 -2.29169E-02
    8985.985    -14.076  -0.760  3.72434E-02  6.30031E-02 -2.57597E-02
    8986.210    -13.850  -0.720  3.91736E-02  6.81964E-02 -2.90228E-02
    8986.424    -13.637  -0.680  4.12587E-02  7.40291E-02 -3.27704E-02
    8986.625    -13.435  -0.640  4.35122E-02  8.05832E-02 -3.70709E-02
    8986.814    -13.247  -0.600  4.59464E-02  8.79388E-02 -4.19925E-02
    8986.991    -13.070  -0.560  4.85699E-02  9.61641E-02 -4.75942E-02
    8987.155    -12.905  -0.520  5.13854E-02  1.05299E-01 -5.39132E-02
    8987.308    -12.753  -0.480  5.43858E-02  1.15331E-01 -6.09453E-02
    8987.448    -12.613  -0.440  5.75504E-02  1.26174E-01 -6.86238E-02
    8987.576    -12.485  -0.400  6.08407E-02  1.37642E-01 -7.68013E-02
    8987.692    -12.369  -0.360  6.41995E-02  1.49444E-01 -8.52443E-02
    8987.795    -12.265  -0.320  6.75511E-02  1.61202E-01 -9.36508E-02
    8987.887    -12.174  -0.280  7.08073E-02  1.72497E-01 -1.01690E-01
    8987.966    -12.094  -0.240  7.38740E-02  1.82924E-01 -1.09050E-01
    8988.033    -12.027  -0.200  7.66579E-02  1.92144E-01 -1.15486E-01
    8988.088    -11.972  -0.160  7.90715E-02  1.99905E-01 -1.20833E-01
    8988.130    -11.930  -0.120  8.10371E-02  2.06044E-01 -1.25007E-01
    8988.161    -11.899  -0.080  8.24934E-02  2.10471E-01 -1.27977E-01
    8988.185    -11.875   0.000  8.37179E-02  2.14030E-01 -1.30312E-01
    8988.240    -11.820   0.120  8.68254E-02  2.22064E-01 -1.35239E-01
    8988.283    -11.777   0.160  8.91933E-02  2.28315E-01 -1.39122E-01
    8988.338    -11.723   0.200  9.22985E-02  2.36310E-01 -1.44011E-01
    8988.405    -11.655   0.240  9.62031E-02  2.45952E-01 -1.49749E-01
    8988.484    -11.576   0.280  1.00989E-01  2.57063E-01 -1.56074E-01
    8988.575    -11.485   0.320  1.06760E-01  2.69383E-01 -1.62623E-01
    8988.679    -11.381   0.360  1.13634E-01  2.82588E-01 -1.68954E-01
    8988.795    -11.265   0.400  1.21711E-01  2.96327E-01 -1.74616E-01
    8988.923    -11.137   0.440  1.30992E-01  3.10287E-01 -1.79294E-01
    8989.063    -10.997   0.480  1.41200E-01  3.24214E-01 -1.83014E-01
    8989.216    -10.845   0.520  1.51588E-01  3.37980E-01 -1.86392E-01
    8989.380    -10.680   0.560  1.60659E-01  3.51476E-01 -1.90817E-01
    8989.557    -10.503   0.600  1.66476E-01  3.64721E-01 -1.98245E-01
    8989.746    -10.314   0.640  1.67478E-01  3.77774E-01 -2.10296E-01
    8989.947    -10.113   0.680  1.63577E-01  3.90640E-01 -2.27063E-01
    8990.160     -9.900   0.720  1.56830E-01  4.03432E-01 -2.46602E-01
    8990.386     -9.674   0.760  1.50231E-01  4.16201E-01 -2.65970E-01
    8990.624     -9.437   0.800  1.46213E-01  4.29031E-01 -2.82818E-01
    8990.874     -9.187   0.840  1.45951E-01  4.41921E-01 -2.95970E-01
    8991.136     -8.924   0.880  1.49969E-01  4.54958E-01 -3.04990E-01
    8991.410     -8.650   0.920  1.58495E-01  4.68164E-01 -3.09669E-01
    8991.697     -8.364   0.960  1.72041E-01  4.81569E-01 -3.09528E-01
    8991.995     -8.065   1.000  1.91832E-01  4.95160E-01 -3.03328E-01
    8992.306     -7.754   1.040  2.20481E-01  5.08975E-01 -2.88495E-01
    8992.629     -7.431   1.080  2.61586E-01  5.23009E-01 -2.61423E-01
    8992.965     -7.096   1.120  3.17703E-01  5.37270E-01 -2.19567E-01
    8993.312     -6.748   1.160  3.85991E-01  5.51724E-01 -1.65733E-01
    8993.672     -6.389   1.200  4.52280E-01  5.66393E-01 -1.14112E-01
    8994.044     -6.017   1.240  4.88047E-01  5.81255E-01 -9.32079E-02
    8994.428     -5.633   1.280  4.72096E-01  5.96267E-01 -1.24171E-01
    8994.824     -5.236   1.320  4.27053E-01  6.11423E-01 -1.84370E-01
    8995.232     -4.828   1.360  3.94775E-01  6.26715E-01 -2.31940E-01
    8995.653     -4.407   1.400  3.89715E-01  6.42093E-01 -2.52378E-01
    8996.086     -3.975   1.440  4.05957E-01  6.57546E-01 -2.51589E-01
    8996.531     -3.530   1.480  4.37508E-01  6.73042E-01 -2.35534E-01
    8996.988     -3.072   1.520  4.80068E-01  6.88547E-01 -2.08479E-01
    8997.457     -2.603   1.560  5.26336E-01  7.04006E-01 -1.77671E-01
    8997.939     -2.121   1.600  5.75385E-01  7.19423E-01 -1.44039E-01
    8998.433     -1.628   1.640  6.36071E-01  7.34724E-01 -9.86530E-02
    8998.939     -1.122   1.680  6.94914E-01  7.49912E-01 -5.49975E-02
    8999.457     -0.603   1.720  7.13108E-01  7.64930E-01 -5.18217E-02
    8999.987     -0.073   1.760  6.89580E-01  7.79742E-01 -9.01619E-02
    9000.530      0.469   1.800  6.63770E-01  7.94331E-01 -1.30561E-01
    9001.084      1.024   1.840  6.65414E-01  8.08641E-01 -1.43227E-01
    9001.651      1.591   1.880  7.05584E-01  8.22635E-01 -1.17051E-01
    9002.230      2.170   1.920  7.91945E-01  8.36298E-01 -4.43536E-02
    9002.822      2.762   1.960  9.35748E-01  8.49596E-01  8.61515E-02
    9003.425      3.365   2.000  1.13527E+00  8.62495E-01  2.72775E-01
    9004.041      3.981   2.040  1.33411E+00  8.74981E-01  4.59134E-01
    9004.669      4.609   2.080  1.41252E+00  8.87000E-01  5.25520E-01
    9005.309      5.249   2.120  1.33192E+00  8.98563E-01  4.33357E-01
    9005.961      5.901   2.160  1.22309E+00  9.09619E-01  3.13474E-01
    9006.626      6.565   2.200  1.17285E+00  9.20157E-01  2.52696E-01
    9007.302      7.242   2.240  1.16289E+00  9.30172E-01  2.32713E-01
    9007.991      7.931   2.280  1.17413E+00  9.39637E-01  2.34494E-01
    9008.692      8.632   2.320  1.22562E+00  9.48545E-01  2.77075E-01
    9009.405      9.345   2.360  1.29661E+00  9.56894E-01  3.39712E-01
    9010.131     10.071   2.400  1.32117E+00  9.64683E-01  3.56489E-01
    9010.868     10.808   2.440  1.28807E+00  9.71909E-01  3.16164E-01
    9011.618     11.558   2.480  1.22551E+00  9.78554E-01  2.46957E-01
    9012.380     12.320   2.520  1.13144E+00  9.84638E-01  1.46802E-01
    9013.154     13.094   2.560  1.01572E+00  9.90164E-01  2.55589E-02
    9013.941     13.881   2.600  9.27425E-01  9.95138E-01 -6.77134E-02
    9014.739     14.679   2.640  8.95105E-01  9.99585E-01 -1.04480E-01
    9015.550     15.490   2.680  9.00826E-01  1.00349E+00 -1.02663E-01
    9016.373     16.313   2.720  9.16551E-01  1.00688E+00 -9.03285E-02
    9017.208     17.148   2.760  9.27380E-01  1.00978E+00 -8.24042E-02
    9018.056     17.995   2.800  9.41704E-01  1.01221E+00 -7.05081E-02
    9018.915     18.855   2.840  9.58086E-01  1.01419E+00 -5.61067E-02
    9019.787     19.727   2.880  9.70215E-01  1.01572E+00 -4.55026E-02
    9020.671     20.611   2.920  9.75907E-01  1.01683E+00 -4.09263E-02
    9021.567     21.507   2.960  9.77521E-01  1.01755E+00 -4.00320E-02
    9022.475     22.415   3.000  9.77848E-01  1.01789E+00 -4.00406E-02
    9023.396     23.335   3.040  9.78108E-01  1.01789E+00 -3.97853E-02
    9024.328     24.268   3.080  9.78452E-01  1.01758E+00 -3.91251E-02
    9025.273     25.213   3.120  9.77762E-01  1.01695E+00 -3.91902E-02
    9026.230     26.170   3.160  9.74311E-01  1.01607E+00 -4.17594E-02
    9027.200     27.139   3.200  9.66906E-01  1.01492E+00 -4.80168E-02
    9028.181     28.121   3.240  9.56197E-01  1.01354E+00 -5.73422E-02
    9029.175     29.114   3.280  9.44070E-01  1.01195E+00 -6.78830E-02
    9030.180     30.120   3.320  9.32483E-01  1.01018E+00 -7.76932E-02
    9031.199     31.138   3.360  9.22654E-01  1.00826E+00 -8.56047E-02
    9032.229     32.168   3.400  9.14885E-01  1.00619E+00 -9.13078E-02
    9033.271     33.211   3.440  9.08941E-01  1.00401E+00 -9.50651E-02
    9034.326     34.266   3.480  9.04417E-01  1.00173E+00 -9.73117E-02
    9035.393     35.332   3.520  9.01059E-01  9.99350E-01 -9.82911E-02
    9036.472     36.411   3.560  8.98592E-01  9.96918E-01 -9.83261E-02
    9037.563     37.502   3.600  8.97031E-01  9.94444E-01 -9.74136E-02
    9038.666     38.606   3.640  8.96675E-01  9.91935E-01 -9.52602E-02
    9039.782     39.721   3.680  8.97951E-01  9.89418E-01 -9.14672E-02
    9040.909     40.849   3.720  9.01121E-01  9.86902E-01 -8.57809E-02
    9042.049     41.989   3.760  9.06209E-01  9.84413E-01 -7.82043E-02
    9043.201     43.141   3.800  9.12944E-01  9.81936E-01 -6.89926E-02
    9044.366     44.306   3.840  9.20947E-01  9.79497E-01 -5.85508E-02
    9045.542     45.482   3.880  9.29981E-01  9.77121E-01 -4.71400E-02
    9046.731     46.671   3.920  9.39982E-01  9.74792E-01 -3.48098E-02
    9047.932     47.872   3.960  9.50822E-01  9.72517E-01 -2.16950E-02
    9049.145     49.085   4.000  9.62591E-01  9.70339E-01 -7.74785E-03
    9050.370     50.310   4.040  9.75625E-01  9.68242E-01  7.38298E-03
    9051.608     51.548   4.080  9.90132E-01  9.66230E-01  2.39029E-02
    9052.858     52.797   4.120  1.00576E+00  9.64326E-01  4.14329E-02
    9054.119     54.059   4.160  1.02147E+00  9.62535E-01  5.89325E-02
    9055.393     55.333   4.200  1.03578E+00  9.60835E-01  7.49397E-02
    9056.680     56.619   4.240  1.04725E+00  9.59250E-01  8.80012E-02
    9057.978     57.918   4.280  1.05534E+00  9.57803E-01  9.75417E-02
    9059.289     59.229   4.320  1.06055E+00  9.56452E-01  1.04094E-01
    9060.612     60.551   4.360  1.06418E+00  9.55218E-01  1.08961E-01
    9061.947     61.886   4.400  1.06749E+00  9.54105E-01  1.13382E-01
    9063.294     63.234   4.440  1.07137E+00  9.53133E-01  1.18233E-01
    9064.653     64.593   4.480  1.07657E+00  9.52280E-01  1.24289E-01
    9066.025     65.965   4.520  1.08316E+00  9.51525E-01  1.31637E-01
    9067.409     67.348   4.560  1.08926E+00  9.50911E-01  1.38349E-01
    9068.805     68.744   4.600  1.09038E+00  9.50417E-01  1.39966E-01
    9070.213     70.153   4.640  1.08126E+00  9.50041E-01  1.31220E-01
    9071.633     71.573   4.680  1.05918E+00  9.49783E-01  1.09393E-01
    9073.066     73.005   4.720  1.02604E+00  9.49641E-01  7.64009E-02
    9074.510     74.450   4.760  9.87265E-01  9.49612E-01  3.76525E-02
    9075.967     75.907   4.800  9.48589E-01  9.49677E-01 -1.08886E-03
    9077.436     77.376   4.840  9.13953E-01  9.49874E-01 -3.59213E-02
    9078.918     78.858   4.880  8.85264E-01  9.50137E-01 -6.48729E-02
    9080.411     80.351   4.920  8.63299E-01  9.50508E-01 -8.72091E-02
    9081.917     81.857   4.960  8.48154E-01  9.50983E-01 -1.02829E-01
    9083.435     83.375   5.000  8.39404E-01  9.51520E-01 -1.12116E-01
    9084.965     84.905   5.040  8.36328E-01  9.52157E-01 -1.15829E-01
    9086.507     86.447   5.080  8.38241E-01  9.52872E-01 -1.14631E-01
    9088.062     88.002   5.120  8.45007E-01  9.53637E-01 -1.08630E-01
    9089.628     89.568   5.160  8.57260E-01  9.54471E-01 -9.72112E-02
    9091.207     91.147   5.200  8.75761E-01  9.55351E-01 -7.95906E-02
    9092.798     92.738   5.240  9.00284E-01  9.56275E-01 -5.59907E-02
    9094.402     94.341   5.280  9.28605E-01  9.57260E-01 -2.86544E-02
    9096.017     95.957   5.320  9.56554E-01  9.58260E-01 -1.70583E-03
    9097.645     97.584   5.360  9.79939E-01  9.59291E-01  2.06474E-02
    9099.284     99.224   5.400  9.96654E-01  9.60332E-01  3.63218E-02
    9100.936    100.876   5.440  1.00713E+00  9.61400E-01  4.57339E-02
    9102.601    102.540   5.480  1.01265E+00  9.62472E-01  5.01815E-02
    9104.277    104.217   5.520  1.01395E+00  9.63543E-01  5.04119E-02
    9105.966    105.905   5.560  1.01121E+00  9.64609E-01  4.65984E-02
    9107.666    107.606   5.600  1.00467E+00  9.65646E-01  3.90233E-02
    9109.379    109.319   5.640  9.95043E-01  9.66670E-01  2.83721E-02
    9111.105    111.044   5.680  9.83086E-01  9.67658E-01  1.54284E-02
    9112.842    112.782   5.720  9.69581E-01  9.68584E-01  9.97435E-04
    9114.591    114.531   5.760  9.55745E-01  9.69490E-01 -1.37448E-02
    9116.353    116.293   5.800  9.43037E-01  9.70354E-01 -2.73163E-02
    9118.127    118.067   5.840  9.32633E-01  9.71147E-01 -3.85137E-02
    9119.913    119.853   5.880  9.24845E-01  9.71890E-01 -4.70442E-02
    9121.712    121.651   5.920  9.19040E-01  9.72574E-01 -5.35333E-02
    9123.522    123.462   5.960  9.14284E-01  9.73137E-01 -5.88530E-02
    9125.345    125.284   6.000  9.10287E-01  9.73608E-01 -6.33214E-02
