# # comment:                                                     FEFF 9.9.1  
# # Source:
# # Structure
# # Reduced
# # space
# # abc:
# # angles:
# # sites:
# # POT  SCF 100  7.0000   0, screened core-hole, AFOLP (folp(0)= 1.150)
# # Abs   Z=29 Rmt= 1.158 Rnm= 1.227 K  shell
# # Pot 1 Z=63 Rmt= 1.794 Rnm= 1.839
# # Pot 2 Z=29 Rmt= 1.158 Rnm= 1.227
# # Pot 3 Z= 8 Rmt= 1.058 Rnm= 1.103
# # Gam_ch=1.729E+00 H-L exch Vi= 0.000E+00 Vr= 0.000E+00
# # Mu=-7.315E+00eV kf=2.125E+00 Vint=-1.767E+01eV Rs_int= 1.706
# FMS rfms= 9.0000
# # PATH  Rmax=-1.000,  Keep_limit= 0.00, Heap_limit 0.00  Pwcrit= 2.50%
#  S02=0.950  Temp=   0.00  Debye_temp=   0.00  Global_sig2= 0.00000
#  Energy zero shift, vr, vi    0.00000E+00   0.00000E+00
#  Curved wave amplitude ratio filter   4.000%
#     file         sig2 tot  cw amp ratio   deg  nlegs   reff  inp sig2
#     0/   0 paths used
#  xsedge+ 50, used to normalize mu           2.4393E-04
#  -----------------------------------------------------------------------
#  omega    e    k    mu    mu0     chi     @#
    8984.574    -11.125  -1.000  3.07148E-02  5.91576E-02 -2.84428E-02
    8984.873    -10.826  -0.960  3.19065E-02  6.36129E-02 -3.17064E-02
    8985.159    -10.540  -0.920  3.31641E-02  6.85773E-02 -3.54133E-02
    8985.434    -10.265  -0.880  3.44958E-02  7.41272E-02 -3.96314E-02
    8985.696    -10.003  -0.840  3.59118E-02  8.03512E-02 -4.44395E-02
    8985.946     -9.753  -0.800  3.74243E-02  8.73526E-02 -4.99282E-02
    8986.183     -9.515  -0.760  3.90483E-02  9.52496E-02 -5.62014E-02
    8986.409     -9.290  -0.720  4.08011E-02  1.04176E-01 -6.33753E-02
    8986.622     -9.077  -0.680  4.27028E-02  1.14281E-01 -7.15779E-02
    8986.823     -8.875  -0.640  4.47753E-02  1.25719E-01 -8.09437E-02
    8987.012     -8.686  -0.600  4.70402E-02  1.38645E-01 -9.16045E-02
    8987.189     -8.510  -0.560  4.95159E-02  1.53190E-01 -1.03674E-01
    8987.354     -8.345  -0.520  5.22112E-02  1.69434E-01 -1.17223E-01
    8987.506     -8.193  -0.480  5.51175E-02  1.87362E-01 -1.32244E-01
    8987.646     -8.052  -0.440  5.81998E-02  2.06815E-01 -1.48615E-01
    8987.774     -7.924  -0.400  6.13898E-02  2.27451E-01 -1.66061E-01
    8987.890     -7.809  -0.360  6.45868E-02  2.48732E-01 -1.84145E-01
    8987.994     -7.705  -0.320  6.76685E-02  2.69957E-01 -2.02289E-01
    8988.085     -7.614  -0.280  7.05128E-02  2.90351E-01 -2.19838E-01
    8988.165     -7.534  -0.240  7.30202E-02  3.09168E-01 -2.36148E-01
    8988.232     -7.467  -0.200  7.51292E-02  3.25787E-01 -2.50658E-01
    8988.286     -7.412  -0.160  7.68162E-02  3.39756E-01 -2.62940E-01
    8988.329     -7.370  -0.120  7.80839E-02  3.50790E-01 -2.72706E-01
    8988.360     -7.339  -0.080  7.89460E-02  3.58734E-01 -2.79788E-01
    8988.384     -7.315   0.000  7.95620E-02  3.65111E-01 -2.85549E-01
    8988.439     -7.260   0.120  8.12415E-02  3.79482E-01 -2.98240E-01
    8988.482     -7.217   0.160  8.25196E-02  3.90651E-01 -3.08131E-01
    8988.536     -7.162   0.200  8.40427E-02  4.04863E-01 -3.20821E-01
    8988.603     -7.095   0.240  8.57720E-02  4.21926E-01 -3.36154E-01
    8988.683     -7.016   0.280  8.75884E-02  4.41494E-01 -3.53906E-01
    8988.774     -6.925   0.320  8.93520E-02  4.62974E-01 -3.73622E-01
    8988.878     -6.821   0.360  9.09717E-02  4.85751E-01 -3.94779E-01
    8988.994     -6.705   0.400  9.23716E-02  5.09086E-01 -4.16714E-01
    8989.122     -6.577   0.440  9.35726E-02  5.32346E-01 -4.38773E-01
    8989.262     -6.437   0.480  9.46951E-02  5.55040E-01 -4.60345E-01
    8989.414     -6.285   0.520  9.58258E-02  5.76836E-01 -4.81010E-01
    8989.579     -6.120   0.560  9.71641E-02  5.97587E-01 -5.00423E-01
    8989.756     -5.943   0.600  9.88221E-02  6.17240E-01 -5.18418E-01
    8989.945     -5.754   0.640  1.00925E-01  6.35864E-01 -5.34940E-01
    8990.146     -5.553   0.680  1.03510E-01  6.53553E-01 -5.50043E-01
    8990.359     -5.340   0.720  1.06536E-01  6.70440E-01 -5.63903E-01
    8990.585     -5.114   0.760  1.09818E-01  6.86614E-01 -5.76796E-01
    8990.822     -4.876   0.800  1.13243E-01  7.02196E-01 -5.88953E-01
    8991.072     -4.627   0.840  1.16675E-01  7.17271E-01 -6.00597E-01
    8991.334     -4.364   0.880  1.20141E-01  7.31889E-01 -6.11748E-01
    8991.609     -4.090   0.920  1.23938E-01  7.46144E-01 -6.22206E-01
    8991.895     -3.804   0.960  1.28333E-01  7.60033E-01 -6.31700E-01
    8992.194     -3.505   1.000  1.33563E-01  7.73605E-01 -6.40042E-01
    8992.505     -3.194   1.040  1.40014E-01  7.86875E-01 -6.46861E-01
    8992.828     -2.871   1.080  1.48231E-01  7.99832E-01 -6.51601E-01
    8993.163     -2.536   1.120  1.58885E-01  8.12516E-01 -6.53631E-01
    8993.511     -2.188   1.160  1.72623E-01  8.24881E-01 -6.52259E-01
    8993.870     -1.828   1.200  1.90369E-01  8.36959E-01 -6.46590E-01
    8994.242     -1.457   1.240  2.13261E-01  8.48713E-01 -6.35451E-01
    8994.626     -1.073   1.280  2.43118E-01  8.60128E-01 -6.17010E-01
    8995.022     -0.676   1.320  2.83297E-01  8.71187E-01 -5.87890E-01
    8995.431     -0.268   1.360  3.39570E-01  8.81887E-01 -5.42317E-01
    8995.852      0.153   1.400  4.19211E-01  8.92209E-01 -4.72998E-01
    8996.284      0.586   1.440  5.25635E-01  9.02150E-01 -3.76515E-01
    8996.729      1.031   1.480  6.53362E-01  9.11688E-01 -2.58327E-01
    8997.187      1.488   1.520  7.99303E-01  9.20803E-01 -1.21500E-01
    8997.656      1.957   1.560  9.57983E-01  9.29492E-01  2.84919E-02
    8998.138      2.439   1.600  1.11736E+00  9.37733E-01  1.79624E-01
    8998.631      2.932   1.640  1.29682E+00  9.45548E-01  3.51273E-01
    8999.137      3.438   1.680  1.51830E+00  9.52915E-01  5.65386E-01
    8999.655      3.957   1.720  1.72104E+00  9.59858E-01  7.61179E-01
    9000.186      4.487   1.760  1.77750E+00  9.66336E-01  8.11168E-01
    9000.728      5.029   1.800  1.68637E+00  9.72353E-01  7.14020E-01
    9001.283      5.584   1.840  1.58105E+00  9.77952E-01  6.03098E-01
    9001.850      6.151   1.880  1.53988E+00  9.83119E-01  5.56763E-01
    9002.429      6.730   1.920  1.55929E+00  9.87858E-01  5.71431E-01
    9003.020      7.322   1.960  1.59778E+00  9.92175E-01  6.05601E-01
    9003.624      7.925   2.000  1.59850E+00  9.96099E-01  6.02403E-01
    9004.240      8.541   2.040  1.54384E+00  9.99634E-01  5.44208E-01
    9004.867      9.169   2.080  1.45759E+00  1.00279E+00  4.54800E-01
    9005.508      9.809   2.120  1.38299E+00  1.00559E+00  3.77398E-01
    9006.160     10.461   2.160  1.34163E+00  1.00803E+00  3.33605E-01
    9006.824     11.125   2.200  1.31360E+00  1.01013E+00  3.03466E-01
    9007.501     11.802   2.240  1.27188E+00  1.01193E+00  2.59949E-01
    9008.190     12.491   2.280  1.21682E+00  1.01343E+00  2.03392E-01
    9008.891     13.192   2.320  1.16216E+00  1.01466E+00  1.47501E-01
    9009.604     13.905   2.360  1.11616E+00  1.01561E+00  1.00551E-01
    9010.329     14.631   2.400  1.08576E+00  1.01632E+00  6.94442E-02
    9011.067     15.368   2.440  1.07853E+00  1.01680E+00  6.17322E-02
    9011.817     16.118   2.480  1.09641E+00  1.01707E+00  7.93390E-02
    9012.579     16.880   2.520  1.12911E+00  1.01717E+00  1.11947E-01
    9013.353     17.654   2.560  1.15121E+00  1.01707E+00  1.34143E-01
    9014.139     18.441   2.600  1.14207E+00  1.01682E+00  1.25253E-01
    9014.938     19.239   2.640  1.10944E+00  1.01642E+00  9.30186E-02
    9015.749     20.050   2.680  1.06953E+00  1.01589E+00  5.36378E-02
    9016.572     20.873   2.720  1.03295E+00  1.01526E+00  1.76928E-02
    9017.407     21.708   2.760  1.00286E+00  1.01452E+00 -1.16521E-02
    9018.254     22.555   2.800  9.78176E-01  1.01369E+00 -3.55126E-02
    9019.114     23.415   2.840  9.57638E-01  1.01280E+00 -5.51634E-02
    9019.986     24.287   2.880  9.40810E-01  1.01184E+00 -7.10316E-02
    9020.869     25.171   2.920  9.27856E-01  1.01084E+00 -8.29799E-02
    9021.766     26.067   2.960  9.18553E-01  1.00981E+00 -9.12577E-02
    9022.674     26.975   3.000  9.11848E-01  1.00873E+00 -9.68815E-02
    9023.594     27.895   3.040  9.05832E-01  1.00766E+00 -1.01828E-01
    9024.527     28.828   3.080  8.97972E-01  1.00656E+00 -1.08593E-01
    9025.472     29.773   3.120  8.87044E-01  1.00549E+00 -1.18447E-01
    9026.429     30.730   3.160  8.73891E-01  1.00442E+00 -1.30529E-01
    9027.398     31.699   3.200  8.59636E-01  1.00336E+00 -1.43721E-01
    9028.380     32.681   3.240  8.45038E-01  1.00233E+00 -1.57288E-01
    9029.373     33.674   3.280  8.30707E-01  1.00133E+00 -1.70624E-01
    9030.379     34.680   3.320  8.17435E-01  1.00037E+00 -1.82939E-01
    9031.397     35.698   3.360  8.06305E-01  9.99456E-01 -1.93150E-01
    9032.427     36.729   3.400  7.98719E-01  9.98580E-01 -1.99861E-01
    9033.470     37.771   3.440  7.95314E-01  9.97750E-01 -2.02436E-01
    9034.524     38.826   3.480  7.96545E-01  9.96987E-01 -2.00442E-01
    9035.591     39.892   3.520  8.02415E-01  9.96275E-01 -1.93860E-01
    9036.670     40.971   3.560  8.12722E-01  9.95634E-01 -1.82912E-01
    9037.761     42.063   3.600  8.26998E-01  9.95065E-01 -1.68067E-01
    9038.865     43.166   3.640  8.44840E-01  9.94548E-01 -1.49708E-01
    9039.980     44.281   3.680  8.65806E-01  9.94084E-01 -1.28278E-01
    9041.108     45.409   3.720  8.89228E-01  9.93715E-01 -1.04487E-01
    9042.248     46.549   3.760  9.14671E-01  9.93401E-01 -7.87300E-02
    9043.400     47.701   3.800  9.42053E-01  9.93163E-01 -5.11104E-02
    9044.564     48.866   3.840  9.70731E-01  9.93002E-01 -2.22708E-02
    9045.741     50.042   3.880  9.99231E-01  9.92916E-01  6.31408E-03
    9046.930     51.231   3.920  1.02549E+00  9.92884E-01  3.26092E-02
    9048.131     52.432   3.960  1.04737E+00  9.92925E-01  5.44487E-02
    9049.344     53.645   4.000  1.06338E+00  9.93021E-01  7.03553E-02
    9050.569     54.870   4.040  1.07335E+00  9.93211E-01  8.01433E-02
    9051.806     56.108   4.080  1.07835E+00  9.93453E-01  8.48963E-02
    9053.056     57.357   4.120  1.07988E+00  9.93745E-01  8.61310E-02
    9054.318     58.619   4.160  1.07945E+00  9.94106E-01  8.53480E-02
    9055.592     59.893   4.200  1.07827E+00  9.94516E-01  8.37578E-02
    9056.878     61.180   4.240  1.07727E+00  9.94995E-01  8.22768E-02
    9058.177     62.478   4.280  1.07668E+00  9.95520E-01  8.11561E-02
    9059.487     63.789   4.320  1.07622E+00  9.96088E-01  8.01323E-02
    9060.810     65.111   4.360  1.07604E+00  9.96699E-01  7.93359E-02
    9062.145     66.446   4.400  1.07711E+00  9.97373E-01  7.97367E-02
    9063.492     67.794   4.440  1.08058E+00  9.98064E-01  8.25193E-02
    9064.852     69.153   4.480  1.08643E+00  9.98792E-01  8.76377E-02
    9066.223     70.525   4.520  1.09319E+00  9.99557E-01  9.36353E-02
    9067.607     71.908   4.560  1.09895E+00  1.00035E+00  9.85935E-02
    9069.003     73.304   4.600  1.10253E+00  1.00116E+00  1.01367E-01
    9070.411     74.713   4.640  1.10430E+00  1.00198E+00  1.02324E-01
    9071.832     76.133   4.680  1.10587E+00  1.00282E+00  1.03055E-01
    9073.264     77.565   4.720  1.10871E+00  1.00369E+00  1.05024E-01
    9074.709     79.010   4.760  1.11243E+00  1.00454E+00  1.07886E-01
    9076.166     80.467   4.800  1.11426E+00  1.00541E+00  1.08850E-01
    9077.635     81.936   4.840  1.10984E+00  1.00626E+00  1.03584E-01
    9079.116     83.418   4.880  1.09552E+00  1.00710E+00  8.84158E-02
    9080.610     84.911   4.920  1.07041E+00  1.00794E+00  6.24706E-02
    9082.116     86.417   4.960  1.03732E+00  1.00877E+00  2.85512E-02
    9083.634     87.935   5.000  1.00208E+00  1.00957E+00 -7.49236E-03
    9085.164     89.465   5.040  9.71357E-01  1.01034E+00 -3.89778E-02
    9086.706     91.007   5.080  9.50001E-01  1.01109E+00 -6.10861E-02
    9088.260     92.562   5.120  9.39668E-01  1.01180E+00 -7.21355E-02
    9089.827     94.128   5.160  9.39295E-01  1.01250E+00 -7.32080E-02
    9091.406     95.707   5.200  9.46562E-01  1.01314E+00 -6.65802E-02
    9092.997     97.298   5.240  9.59086E-01  1.01376E+00 -5.46755E-02
    9094.600     98.901   5.280  9.74377E-01  1.01431E+00 -3.99380E-02
    9096.216    100.517   5.320  9.89531E-01  1.01482E+00 -2.52911E-02
    9097.843    102.144   5.360  1.00117E+00  1.01529E+00 -1.41153E-02
    9099.483    103.784   5.400  1.00610E+00  1.01570E+00 -9.60546E-03
    9101.135    105.436   5.440  1.00250E+00  1.01605E+00 -1.35521E-02
    9102.799    107.100   5.480  9.91103E-01  1.01635E+00 -2.52470E-02
    9104.476    108.777   5.520  9.74939E-01  1.01660E+00 -4.16623E-02
    9106.164    110.465   5.560  9.57617E-01  1.01678E+00 -5.91655E-02
    9107.865    112.166   5.600  9.41758E-01  1.01691E+00 -7.51547E-02
    9109.578    113.879   5.640  9.28736E-01  1.01697E+00 -8.82365E-02
    9111.303    115.604   5.680  9.19822E-01  1.01699E+00 -9.71630E-02
    9113.041    117.342   5.720  9.16661E-01  1.01695E+00 -1.00288E-01
    9114.790    119.091   5.760  9.20322E-01  1.01684E+00 -9.65159E-02
    9116.552    120.853   5.800  9.30219E-01  1.01666E+00 -8.64371E-02
    9118.326    122.627   5.840  9.44331E-01  1.01643E+00 -7.20956E-02
    9120.112    124.413   5.880  9.59999E-01  1.01615E+00 -5.61540E-02
    9121.910    126.211   5.920  9.74183E-01  1.01581E+00 -4.16248E-02
    9123.721    128.022   5.960  9.84262E-01  1.01539E+00 -3.11239E-02
    9125.543    129.845   6.000  9.89213E-01  1.01490E+00 -2.56869E-02
