# # comment:                                                     FEFF 9.9.1  
# # Source:
# # Structure
# # Reduced
# # space
# # abc:
# # angles:
# # sites:
# # POT  SCF 100  7.0000   0, screened core-hole, AFOLP (folp(0)= 1.150)
# # Abs   Z=29 Rmt= 1.283 Rnm= 1.368 K  shell
# # Pot 1 Z=49 Rmt= 1.486 Rnm= 1.567
# # Pot 2 Z=29 Rmt= 1.270 Rnm= 1.352
# # Pot 3 Z=34 Rmt= 1.108 Rnm= 1.335
# # Pot 4 Z= 8 Rmt= 0.974 Rnm= 1.080
# # Gam_ch=1.729E+00 H-L exch Vi= 0.000E+00 Vr= 0.000E+00
# # Mu=-4.742E+00eV kf=2.292E+00 Vint=-1.545E+01eV Rs_int= 1.583
# FMS rfms= 9.0000
# # PATH  Rmax=-1.000,  Keep_limit= 0.00, Heap_limit 0.00  Pwcrit= 2.50%
#  S02=0.950  Temp=   0.00  Debye_temp=   0.00  Global_sig2= 0.00000
#  Energy zero shift, vr, vi    0.00000E+00   0.00000E+00
#  Curved wave amplitude ratio filter   4.000%
#     file         sig2 tot  cw amp ratio   deg  nlegs   reff  inp sig2
#     0/   0 paths used
#  xsedge+ 50, used to normalize mu           2.4601E-04
#  -----------------------------------------------------------------------
#  omega    e    k    mu    mu0     chi     @#
    8983.284     -8.552  -1.000  5.72109E-02  5.86541E-02 -1.44316E-03
    8983.583     -8.253  -0.960  6.15793E-02  6.30792E-02 -1.49992E-03
    8983.869     -7.967  -0.920  6.64676E-02  6.80115E-02 -1.54390E-03
    8984.144     -7.693  -0.880  7.19566E-02  7.35270E-02 -1.57039E-03
    8984.406     -7.430  -0.840  7.81405E-02  7.97144E-02 -1.57395E-03
    8984.656     -7.180  -0.800  8.51284E-02  8.66768E-02 -1.54843E-03
    8984.894     -6.943  -0.760  9.30453E-02  9.45324E-02 -1.48708E-03
    8985.119     -6.717  -0.720  1.02032E-01  1.03415E-01 -1.38275E-03
    8985.332     -6.504  -0.680  1.12245E-01  1.13473E-01 -1.22806E-03
    8985.534     -6.303  -0.640  1.23846E-01  1.24862E-01 -1.01551E-03
    8985.723     -6.114  -0.600  1.36999E-01  1.37736E-01 -7.37246E-04
    8985.899     -5.937  -0.560  1.51843E-01  1.52227E-01 -3.84211E-04
    8986.064     -5.772  -0.520  1.68471E-01  1.68415E-01  5.57260E-05
    8986.216     -5.620  -0.480  1.86885E-01  1.86284E-01  6.00509E-04
    8986.357     -5.480  -0.440  2.06954E-01  2.05678E-01  1.27656E-03
    8986.485     -5.352  -0.400  2.28372E-01  2.26253E-01  2.11876E-03
    8986.600     -5.236  -0.360  2.50637E-01  2.47473E-01  3.16437E-03
    8986.704     -5.132  -0.320  2.73077E-01  2.68638E-01  4.43892E-03
    8986.795     -5.041  -0.280  2.94910E-01  2.88973E-01  5.93753E-03
    8986.875     -4.962  -0.240  3.15344E-01  3.07734E-01  7.61038E-03
    8986.942     -4.894  -0.200  3.33663E-01  3.24301E-01  9.36147E-03
    8986.997     -4.840  -0.160  3.49289E-01  3.38226E-01  1.10639E-02
    8987.039     -4.797  -0.120  3.61806E-01  3.49222E-01  1.25845E-02
    8987.070     -4.766  -0.080  3.70940E-01  3.57137E-01  1.38024E-02
    8987.094     -4.742   0.000  3.78403E-01  3.63491E-01  1.49121E-02
    8987.149     -4.687   0.120  3.94657E-01  3.77814E-01  1.68430E-02
    8987.192     -4.645   0.160  4.07514E-01  3.88929E-01  1.85851E-02
    8987.247     -4.590   0.200  4.24136E-01  4.03086E-01  2.10504E-02
    8987.314     -4.523   0.240  4.44463E-01  4.20071E-01  2.43928E-02
    8987.393     -4.443   0.280  4.68284E-01  4.39532E-01  2.87520E-02
    8987.484     -4.352   0.320  4.95070E-01  4.60895E-01  3.41744E-02
    8987.588     -4.248   0.360  5.24038E-01  4.83521E-01  4.05174E-02
    8987.704     -4.132   0.400  5.54021E-01  5.06668E-01  4.73529E-02
    8987.832     -4.004   0.440  5.83605E-01  5.29717E-01  5.38880E-02
    8987.972     -3.864   0.480  6.11114E-01  5.52158E-01  5.89559E-02
    8988.124     -3.712   0.520  6.34729E-01  5.73657E-01  6.10720E-02
    8988.289     -3.547   0.560  6.52712E-01  5.94088E-01  5.86240E-02
    8988.466     -3.371   0.600  6.63549E-01  6.13378E-01  5.01712E-02
    8988.655     -3.182   0.640  6.66368E-01  6.31615E-01  3.47534E-02
    8988.856     -2.980   0.680  6.60863E-01  6.48896E-01  1.19672E-02
    8989.069     -2.767   0.720  6.47163E-01  6.65315E-01 -1.81524E-02
    8989.295     -2.541   0.760  6.26040E-01  6.81027E-01 -5.49875E-02
    8989.533     -2.304   0.800  5.99470E-01  6.96133E-01 -9.66632E-02
    8989.782     -2.054   0.840  5.71075E-01  7.10699E-01 -1.39624E-01
    8990.045     -1.792   0.880  5.45401E-01  7.24796E-01 -1.79396E-01
    8990.319     -1.517   0.920  5.26170E-01  7.38523E-01 -2.12353E-01
    8990.605     -1.231   0.960  5.14585E-01  7.51878E-01 -2.37293E-01
    8990.904     -0.932   1.000  5.08777E-01  7.64911E-01 -2.56135E-01
    8991.215     -0.621   1.040  5.04714E-01  7.77644E-01 -2.72930E-01
    8991.538     -0.298   1.080  5.00031E-01  7.90085E-01 -2.90054E-01
    8991.873      0.037   1.120  4.97438E-01  8.02234E-01 -3.04797E-01
    8992.221      0.385   1.160  5.02077E-01  8.14112E-01 -3.12035E-01
    8992.581      0.744   1.200  5.16156E-01  8.25688E-01 -3.09533E-01
    8992.952      1.116   1.240  5.38531E-01  8.36951E-01 -2.98420E-01
    8993.336      1.500   1.280  5.68765E-01  8.47929E-01 -2.79164E-01
    8993.733      1.896   1.320  6.10835E-01  8.58582E-01 -2.47747E-01
    8994.141      2.305   1.360  6.72504E-01  8.68892E-01 -1.96388E-01
    8994.562      2.725   1.400  7.58111E-01  8.78860E-01 -1.20749E-01
    8994.995      3.158   1.440  8.60803E-01  8.88464E-01 -2.76612E-02
    8995.440      3.603   1.480  9.64807E-01  8.97705E-01  6.71018E-02
    8995.897      4.060   1.520  1.05577E+00  9.06562E-01  1.49208E-01
    8996.366      4.530   1.560  1.12562E+00  9.15034E-01  2.10585E-01
    8996.848      5.011   1.600  1.17315E+00  9.23120E-01  2.50032E-01
    8997.341      5.505   1.640  1.20160E+00  9.30801E-01  2.70799E-01
    8997.847      6.011   1.680  1.21129E+00  9.38078E-01  2.73208E-01
    8998.366      6.529   1.720  1.20370E+00  9.44950E-01  2.58747E-01
    8998.896      7.060   1.760  1.18935E+00  9.51420E-01  2.37927E-01
    8999.439      7.602   1.800  1.17836E+00  9.57469E-01  2.20890E-01
    8999.993      8.157   1.840  1.17420E+00  9.63143E-01  2.11053E-01
    9000.560      8.724   1.880  1.17819E+00  9.68404E-01  2.09785E-01
    9001.139      9.303   1.920  1.18894E+00  9.73277E-01  2.15666E-01
    9001.731      9.894   1.960  1.20057E+00  9.77768E-01  2.22797E-01
    9002.334     10.498   2.000  1.21039E+00  9.81901E-01  2.28489E-01
    9002.950     11.114   2.040  1.22519E+00  9.85663E-01  2.39525E-01
    9003.578     11.741   2.080  1.25081E+00  9.89082E-01  2.61729E-01
    9004.218     12.381   2.120  1.28118E+00  9.92163E-01  2.89017E-01
    9004.870     13.034   2.160  1.30666E+00  9.94934E-01  3.11727E-01
    9005.534     13.698   2.200  1.31906E+00  9.97383E-01  3.21679E-01
    9006.211     14.375   2.240  1.30869E+00  9.99538E-01  3.09151E-01
    9006.900     15.064   2.280  1.27618E+00  1.00141E+00  2.74771E-01
    9007.601     15.765   2.320  1.23638E+00  1.00303E+00  2.33346E-01
    9008.314     16.478   2.360  1.19986E+00  1.00439E+00  1.95470E-01
    9009.040     17.203   2.400  1.16403E+00  1.00553E+00  1.58504E-01
    9009.777     17.941   2.440  1.12440E+00  1.00643E+00  1.17968E-01
    9010.527     18.691   2.480  1.08297E+00  1.00715E+00  7.58161E-02
    9011.289     19.453   2.520  1.04249E+00  1.00769E+00  3.47953E-02
    9012.063     20.227   2.560  1.00348E+00  1.00804E+00 -4.56314E-03
    9012.850     21.013   2.600  9.67197E-01  1.00825E+00 -4.10512E-02
    9013.648     21.812   2.640  9.35135E-01  1.00830E+00 -7.31662E-02
    9014.459     22.623   2.680  9.07161E-01  1.00823E+00 -1.01066E-01
    9015.282     23.446   2.720  8.89062E-01  1.00805E+00 -1.18990E-01
    9016.117     24.281   2.760  8.77255E-01  1.00776E+00 -1.30507E-01
    9016.964     25.128   2.800  8.66427E-01  1.00738E+00 -1.40957E-01
    9017.824     25.988   2.840  8.54860E-01  1.00692E+00 -1.52064E-01
    9018.696     26.859   2.880  8.43338E-01  1.00641E+00 -1.63072E-01
    9019.580     27.743   2.920  8.33588E-01  1.00582E+00 -1.72235E-01
    9020.476     28.639   2.960  8.27287E-01  1.00519E+00 -1.77903E-01
    9021.384     29.548   3.000  8.25121E-01  1.00454E+00 -1.79418E-01
    9022.305     30.468   3.040  8.26647E-01  1.00383E+00 -1.77184E-01
    9023.237     31.401   3.080  8.31482E-01  1.00313E+00 -1.71650E-01
    9024.182     32.346   3.120  8.39097E-01  1.00240E+00 -1.63307E-01
    9025.139     33.303   3.160  8.48858E-01  1.00167E+00 -1.52815E-01
    9026.108     34.272   3.200  8.60366E-01  1.00094E+00 -1.40575E-01
    9027.090     35.254   3.240  8.73247E-01  1.00021E+00 -1.26965E-01
    9028.083     36.247   3.280  8.86937E-01  9.99511E-01 -1.12574E-01
    9029.089     37.253   3.320  9.01228E-01  9.98838E-01 -9.76108E-02
    9030.107     38.271   3.360  9.15985E-01  9.98176E-01 -8.21904E-02
    9031.138     39.301   3.400  9.30881E-01  9.97526E-01 -6.66449E-02
    9032.180     40.344   3.440  9.45414E-01  9.96933E-01 -5.15182E-02
    9033.235     41.398   3.480  9.59103E-01  9.96376E-01 -3.72732E-02
    9034.301     42.465   3.520  9.71718E-01  9.95836E-01 -2.41183E-02
    9035.380     43.544   3.560  9.83465E-01  9.95357E-01 -1.18924E-02
    9036.472     44.635   3.600  9.94869E-01  9.94898E-01 -2.85909E-05
    9037.575     45.739   3.640  1.00658E+00  9.94501E-01  1.20779E-02
    9038.690     46.854   3.680  1.01868E+00  9.94146E-01  2.45297E-02
    9039.818     47.982   3.720  1.03075E+00  9.93834E-01  3.69176E-02
    9040.958     49.122   3.760  1.04207E+00  9.93564E-01  4.85038E-02
    9042.110     50.274   3.800  1.05186E+00  9.93358E-01  5.84988E-02
    9043.275     51.438   3.840  1.05963E+00  9.93174E-01  6.64545E-02
    9044.451     52.615   3.880  1.06557E+00  9.93055E-01  7.25194E-02
    9045.640     53.804   3.920  1.07011E+00  9.92979E-01  7.71353E-02
    9046.841     55.005   3.960  1.07362E+00  9.92967E-01  8.06550E-02
    9048.054     56.218   4.000  1.07629E+00  9.92975E-01  8.33106E-02
    9049.279     57.443   4.040  1.07820E+00  9.93023E-01  8.51756E-02
    9050.517     58.680   4.080  1.07929E+00  9.93133E-01  8.61540E-02
    9051.766     59.930   4.120  1.07921E+00  9.93261E-01  8.59467E-02
    9053.028     61.192   4.160  1.07770E+00  9.93452E-01  8.42468E-02
    9054.302     62.466   4.200  1.07441E+00  9.93660E-01  8.07509E-02
    9055.589     63.752   4.240  1.06919E+00  9.93924E-01  7.52679E-02
    9056.887     65.051   4.280  1.06201E+00  9.94203E-01  6.78034E-02
    9058.198     66.361   4.320  1.05312E+00  9.94517E-01  5.86053E-02
    9059.520     67.684   4.360  1.04304E+00  9.94840E-01  4.81956E-02
    9060.855     69.019   4.400  1.03255E+00  9.95195E-01  3.73519E-02
    9062.203     70.366   4.440  1.02248E+00  9.95582E-01  2.68974E-02
    9063.562     71.726   4.480  1.01347E+00  9.95976E-01  1.74910E-02
    9064.934     73.097   4.520  1.00594E+00  9.96377E-01  9.56576E-03
    9066.317     74.481   4.560  1.00010E+00  9.96804E-01  3.29762E-03
    9067.713     75.877   4.600  9.95875E-01  9.97236E-01 -1.36034E-03
    9069.122     77.285   4.640  9.93077E-01  9.97670E-01 -4.59311E-03
    9070.542     78.706   4.680  9.91436E-01  9.98127E-01 -6.69102E-03
    9071.975     80.138   4.720  9.90523E-01  9.98561E-01 -8.03797E-03
    9073.419     81.583   4.760  9.89949E-01  9.98992E-01 -9.04332E-03
    9074.876     83.040   4.800  9.89381E-01  9.99421E-01 -1.00398E-02
    9076.345     84.509   4.840  9.88589E-01  9.99847E-01 -1.12577E-02
    9077.827     85.990   4.880  9.87409E-01  1.00027E+00 -1.28606E-02
    9079.320     87.484   4.920  9.85669E-01  1.00068E+00 -1.50142E-02
    9080.826     88.990   4.960  9.83213E-01  1.00107E+00 -1.78529E-02
    9082.344     90.508   5.000  9.80085E-01  1.00142E+00 -2.13331E-02
    9083.874     92.038   5.040  9.76535E-01  1.00176E+00 -2.52247E-02
    9085.416     93.580   5.080  9.72911E-01  1.00209E+00 -2.91805E-02
    9086.971     95.134   5.120  9.69565E-01  1.00239E+00 -3.28237E-02
    9088.537     96.701   5.160  9.66828E-01  1.00265E+00 -3.58222E-02
    9090.116     98.280   5.200  9.65001E-01  1.00290E+00 -3.78961E-02
    9091.707     99.871   5.240  9.64198E-01  1.00309E+00 -3.88880E-02
    9093.310    101.474   5.280  9.64550E-01  1.00326E+00 -3.87104E-02
    9094.926    103.090   5.320  9.66093E-01  1.00342E+00 -3.73275E-02
    9096.553    104.717   5.360  9.68727E-01  1.00352E+00 -3.47935E-02
    9098.193    106.357   5.400  9.72229E-01  1.00360E+00 -3.13742E-02
    9099.845    108.009   5.440  9.76086E-01  1.00362E+00 -2.75375E-02
    9101.509    109.673   5.480  9.79838E-01  1.00363E+00 -2.37899E-02
    9103.186    111.350   5.520  9.83049E-01  1.00359E+00 -2.05463E-02
    9104.874    113.038   5.560  9.85382E-01  1.00352E+00 -1.81407E-02
    9106.575    114.739   5.600  9.86559E-01  1.00341E+00 -1.68513E-02
    9108.288    116.452   5.640  9.86457E-01  1.00326E+00 -1.68030E-02
    9110.013    118.177   5.680  9.85318E-01  1.00310E+00 -1.77776E-02
    9111.751    119.914   5.720  9.83622E-01  1.00287E+00 -1.92462E-02
    9113.500    121.664   5.760  9.81997E-01  1.00263E+00 -2.06278E-02
    9115.262    123.426   5.800  9.80763E-01  1.00232E+00 -2.15600E-02
    9117.036    125.200   5.840  9.80127E-01  1.00201E+00 -2.18807E-02
    9118.822    126.986   5.880  9.80194E-01  1.00166E+00 -2.14639E-02
    9120.620    128.784   5.920  9.81176E-01  1.00128E+00 -2.01016E-02
    9122.431    130.595   5.960  9.83378E-01  1.00089E+00 -1.75138E-02
    9124.254    132.417   6.000  9.87233E-01  1.00045E+00 -1.32181E-02
