# # comment:                                                     FEFF 9.9.1  
# # Source:
# # Structure
# # Reduced
# # space
# # abc:
# # angles:
# # sites:
# # POT  SCF 100  7.0000   0, screened core-hole, AFOLP (folp(0)= 1.150)
# # Abs   Z=29 Rmt= 1.244 Rnm= 1.300 K  shell
# # Pot 1 Z=13 Rmt= 1.226 Rnm= 1.329
# # Pot 2 Z=29 Rmt= 1.241 Rnm= 1.322
# # Pot 3 Z= 8 Rmt= 0.992 Rnm= 1.075
# # Gam_ch=1.729E+00 H-L exch Vi= 0.000E+00 Vr= 0.000E+00
# # Mu=-8.395E+00eV kf=2.265E+00 Vint=-1.778E+01eV Rs_int= 1.601
# FMS rfms= 9.0000
# # PATH  Rmax=-1.000,  Keep_limit= 0.00, Heap_limit 0.00  Pwcrit= 2.50%
#  S02=0.950  Temp=   0.00  Debye_temp=   0.00  Global_sig2= 0.00000
#  Energy zero shift, vr, vi    0.00000E+00   0.00000E+00
#  Curved wave amplitude ratio filter   4.000%
#     file         sig2 tot  cw amp ratio   deg  nlegs   reff  inp sig2
#     0/   0 paths used
#  xsedge+ 50, used to normalize mu           2.4825E-04
#  -----------------------------------------------------------------------
#  omega    e    k    mu    mu0     chi     @#
    8983.886    -12.205  -1.000  2.93554E-02  4.83257E-02 -1.89702E-02
    8984.184    -11.906  -0.960  3.04974E-02  5.17343E-02 -2.12370E-02
    8984.471    -11.620  -0.920  3.16896E-02  5.55165E-02 -2.38269E-02
    8984.745    -11.345  -0.880  3.29350E-02  5.97270E-02 -2.67920E-02
    8985.007    -11.083  -0.840  3.42365E-02  6.44295E-02 -3.01930E-02
    8985.257    -10.833  -0.800  3.55976E-02  6.96979E-02 -3.41003E-02
    8985.495    -10.596  -0.760  3.70221E-02  7.56170E-02 -3.85948E-02
    8985.720    -10.370  -0.720  3.85140E-02  8.22824E-02 -4.37684E-02
    8985.934    -10.157  -0.680  4.00774E-02  8.97996E-02 -4.97222E-02
    8986.135     -9.956  -0.640  4.17164E-02  9.82799E-02 -5.65635E-02
    8986.324     -9.767  -0.600  4.34340E-02  1.07833E-01 -6.43986E-02
    8986.501     -9.590  -0.560  4.52314E-02  1.18551E-01 -7.33192E-02
    8986.665     -9.425  -0.520  4.71062E-02  1.30489E-01 -8.33831E-02
    8986.818     -9.273  -0.480  4.90503E-02  1.43636E-01 -9.45857E-02
    8986.958     -9.133  -0.440  5.10470E-02  1.57875E-01 -1.06828E-01
    8987.086     -9.005  -0.400  5.30695E-02  1.72959E-01 -1.19890E-01
    8987.202     -8.889  -0.360  5.50800E-02  1.88500E-01 -1.33420E-01
    8987.305     -8.785  -0.320  5.70324E-02  2.03994E-01 -1.46961E-01
    8987.397     -8.694  -0.280  5.88765E-02  2.18878E-01 -1.60002E-01
    8987.476     -8.614  -0.240  6.05645E-02  2.32616E-01 -1.72052E-01
    8987.543     -8.547  -0.200  6.20554E-02  2.44756E-01 -1.82701E-01
    8987.598     -8.493  -0.160  6.33173E-02  2.54968E-01 -1.91651E-01
    8987.641     -8.450  -0.120  6.43265E-02  2.63041E-01 -1.98714E-01
    8987.671     -8.419  -0.080  6.50667E-02  2.68857E-01 -2.03790E-01
    8987.696     -8.395   0.000  6.56886E-02  2.73530E-01 -2.07842E-01
    8987.750     -8.340   0.120  6.71249E-02  2.84056E-01 -2.16932E-01
    8987.793     -8.297   0.160  6.81977E-02  2.92241E-01 -2.24043E-01
    8987.848     -8.243   0.200  6.95813E-02  3.02708E-01 -2.33126E-01
    8987.915     -8.176   0.240  7.12124E-02  3.15275E-01 -2.44063E-01
    8987.994     -8.096   0.280  7.31322E-02  3.29734E-01 -2.56602E-01
    8988.086     -8.005   0.320  7.53106E-02  3.45676E-01 -2.70365E-01
    8988.189     -7.901   0.360  7.77498E-02  3.62667E-01 -2.84917E-01
    8988.305     -7.785   0.400  8.04519E-02  3.80224E-01 -2.99772E-01
    8988.433     -7.657   0.440  8.34353E-02  3.97864E-01 -3.14428E-01
    8988.573     -7.517   0.480  8.67623E-02  4.15287E-01 -3.28525E-01
    8988.726     -7.365   0.520  9.05229E-02  4.32260E-01 -3.41737E-01
    8988.890     -7.200   0.560  9.47878E-02  4.48643E-01 -3.53855E-01
    8989.067     -7.023   0.600  9.97341E-02  4.64468E-01 -3.64734E-01
    8989.256     -6.834   0.640  1.05537E-01  4.79768E-01 -3.74231E-01
    8989.457     -6.633   0.680  1.12318E-01  4.94607E-01 -3.82289E-01
    8989.671     -6.420   0.720  1.20242E-01  5.09059E-01 -3.88817E-01
    8989.896     -6.194   0.760  1.29477E-01  5.23239E-01 -3.93762E-01
    8990.134     -5.957   0.800  1.40174E-01  5.37194E-01 -3.97020E-01
    8990.384     -5.707   0.840  1.52828E-01  5.50997E-01 -3.98169E-01
    8990.646     -5.445   0.880  1.68147E-01  5.64712E-01 -3.96566E-01
    8990.920     -5.170   0.920  1.86733E-01  5.78374E-01 -3.91641E-01
    8991.207     -4.884   0.960  2.08641E-01  5.92002E-01 -3.83361E-01
    8991.506     -4.585   1.000  2.33697E-01  6.05609E-01 -3.71913E-01
    8991.816     -4.274   1.040  2.62301E-01  6.19221E-01 -3.56920E-01
    8992.139     -3.951   1.080  2.94691E-01  6.32835E-01 -3.38144E-01
    8992.475     -3.616   1.120  3.28516E-01  6.46442E-01 -3.17926E-01
    8992.822     -3.268   1.160  3.57674E-01  6.60030E-01 -3.02356E-01
    8993.182     -2.909   1.200  3.78428E-01  6.73604E-01 -2.95176E-01
    8993.554     -2.537   1.240  3.96999E-01  6.87124E-01 -2.90125E-01
    8993.938     -2.153   1.280  4.21904E-01  7.00585E-01 -2.78681E-01
    8994.334     -1.756   1.320  4.54302E-01  7.13984E-01 -2.59682E-01
    8994.742     -1.348   1.360  4.92673E-01  7.27256E-01 -2.34582E-01
    8995.163     -0.927   1.400  5.35579E-01  7.40392E-01 -2.04813E-01
    8995.596     -0.495   1.440  5.81706E-01  7.53404E-01 -1.71697E-01
    8996.041     -0.050   1.480  6.31796E-01  7.66200E-01 -1.34404E-01
    8996.498      0.408   1.520  6.83351E-01  7.78814E-01 -9.54634E-02
    8996.968      0.877   1.560  7.25098E-01  7.91216E-01 -6.61180E-02
    8997.449      1.359   1.600  7.53771E-01  8.03335E-01 -4.95638E-02
    8997.943      1.852   1.640  7.82144E-01  8.15200E-01 -3.30567E-02
    8998.449      2.358   1.680  8.23864E-01  8.26765E-01 -2.90098E-03
    8998.967      2.876   1.720  8.85892E-01  8.38020E-01  4.78727E-02
    8999.497      3.407   1.760  9.80854E-01  8.48935E-01  1.31919E-01
    9000.040      3.949   1.800  1.12985E+00  8.59484E-01  2.70363E-01
    9000.595      4.504   1.840  1.33404E+00  8.69701E-01  4.64343E-01
    9001.162      5.071   1.880  1.54470E+00  8.79519E-01  6.65176E-01
    9001.741      5.650   1.920  1.70534E+00  8.88935E-01  8.16406E-01
    9002.332      6.241   1.960  1.79484E+00  8.97963E-01  8.96879E-01
    9002.935      6.845   2.000  1.78573E+00  9.06600E-01  8.79125E-01
    9003.551      7.461   2.040  1.69305E+00  9.14806E-01  7.78243E-01
    9004.179      8.089   2.080  1.56890E+00  9.22617E-01  6.46284E-01
    9004.819      8.729   2.120  1.44384E+00  9.29994E-01  5.13842E-01
    9005.471      9.381   2.160  1.33191E+00  9.36957E-01  3.94954E-01
    9006.136     10.045   2.200  1.22501E+00  9.43508E-01  2.81501E-01
    9006.813     10.722   2.240  1.11724E+00  9.49647E-01  1.67597E-01
    9007.501     11.411   2.280  1.01386E+00  9.55378E-01  5.84804E-02
    9008.202     12.112   2.320  9.25765E-01  9.60704E-01 -3.49390E-02
    9008.916     12.825   2.360  8.62791E-01  9.65650E-01 -1.02859E-01
    9009.641     13.551   2.400  8.28331E-01  9.70200E-01 -1.41869E-01
    9010.379     14.288   2.440  8.25230E-01  9.74381E-01 -1.49151E-01
    9011.128     15.038   2.480  8.50027E-01  9.78219E-01 -1.28191E-01
    9011.890     15.800   2.520  8.91190E-01  9.81677E-01 -9.04865E-02
    9012.665     16.574   2.560  9.37801E-01  9.84824E-01 -4.70229E-02
    9013.451     17.361   2.600  9.85274E-01  9.87646E-01 -2.37236E-03
    9014.250     18.159   2.640  1.02688E+00  9.90150E-01  3.67255E-02
    9015.060     18.970   2.680  1.04002E+00  9.92363E-01  4.76579E-02
    9015.883     19.793   2.720  1.01432E+00  9.94293E-01  2.00278E-02
    9016.718     20.628   2.760  9.68149E-01  9.95946E-01 -2.77967E-02
    9017.566     21.475   2.800  9.20549E-01  9.97350E-01 -7.68016E-02
    9018.425     22.335   2.840  8.79740E-01  9.98536E-01 -1.18796E-01
    9019.297     23.207   2.880  8.47818E-01  9.99488E-01 -1.51670E-01
    9020.181     24.090   2.920  8.24402E-01  1.00024E+00 -1.75833E-01
    9021.077     24.987   2.960  8.08323E-01  1.00081E+00 -1.92483E-01
    9021.985     25.895   3.000  7.98766E-01  1.00118E+00 -2.02417E-01
    9022.906     26.815   3.040  7.94304E-01  1.00140E+00 -2.07093E-01
    9023.839     27.748   3.080  7.94003E-01  1.00146E+00 -2.07452E-01
    9024.783     28.693   3.120  7.97393E-01  1.00138E+00 -2.03989E-01
    9025.741     29.650   3.160  8.03950E-01  1.00121E+00 -1.97256E-01
    9026.710     30.619   3.200  8.13104E-01  1.00089E+00 -1.87790E-01
    9027.691     31.601   3.240  8.24525E-01  1.00049E+00 -1.75965E-01
    9028.685     32.594   3.280  8.37997E-01  1.00000E+00 -1.62004E-01
    9029.691     33.600   3.320  8.53312E-01  9.99434E-01 -1.46122E-01
    9030.709     34.618   3.360  8.70752E-01  9.98813E-01 -1.28061E-01
    9031.739     35.648   3.400  8.90784E-01  9.98122E-01 -1.07337E-01
    9032.781     36.691   3.440  9.13693E-01  9.97388E-01 -8.36942E-02
    9033.836     37.745   3.480  9.39456E-01  9.96635E-01 -5.71789E-02
    9034.903     38.812   3.520  9.67566E-01  9.95827E-01 -2.82614E-02
    9035.982     39.891   3.560  9.97098E-01  9.95029E-01  2.06852E-03
    9037.073     40.982   3.600  1.02659E+00  9.94204E-01  3.23892E-02
    9038.176     42.086   3.640  1.05459E+00  9.93375E-01  6.12148E-02
    9039.292     43.201   3.680  1.07920E+00  9.92546E-01  8.66570E-02
    9040.420     44.329   3.720  1.09832E+00  9.91719E-01  1.06596E-01
    9041.560     45.469   3.760  1.11043E+00  9.90919E-01  1.19508E-01
    9042.712     46.621   3.800  1.11466E+00  9.90129E-01  1.24528E-01
    9043.876     47.786   3.840  1.11076E+00  9.89371E-01  1.21393E-01
    9045.053     48.962   3.880  1.09944E+00  9.88647E-01  1.10797E-01
    9046.241     50.151   3.920  1.08240E+00  9.87937E-01  9.44586E-02
    9047.442     51.352   3.960  1.06240E+00  9.87285E-01  7.51197E-02
    9048.655     52.565   4.000  1.04276E+00  9.86651E-01  5.61077E-02
    9049.881     53.790   4.040  1.02675E+00  9.86077E-01  4.06742E-02
    9051.118     55.028   4.080  1.01679E+00  9.85524E-01  3.12687E-02
    9052.368     56.277   4.120  1.01396E+00  9.85033E-01  2.89281E-02
    9053.630     57.539   4.160  1.01749E+00  9.84585E-01  3.29094E-02
    9054.904     58.813   4.200  1.02508E+00  9.84180E-01  4.09014E-02
    9056.190     60.099   4.240  1.03366E+00  9.83818E-01  4.98415E-02
    9057.488     61.398   4.280  1.04067E+00  9.83522E-01  5.71453E-02
    9058.799     62.708   4.320  1.04482E+00  9.83270E-01  6.15539E-02
    9060.122     64.031   4.360  1.04611E+00  9.83062E-01  6.30471E-02
    9061.457     65.366   4.400  1.04521E+00  9.82898E-01  6.23120E-02
    9062.804     66.714   4.440  1.04294E+00  9.82798E-01  6.01403E-02
    9064.163     68.073   4.480  1.03976E+00  9.82743E-01  5.70212E-02
    9065.535     69.445   4.520  1.03580E+00  9.82730E-01  5.30707E-02
    9066.919     70.828   4.560  1.03077E+00  9.82756E-01  4.80141E-02
    9068.315     72.224   4.600  1.02402E+00  9.82824E-01  4.11968E-02
    9069.723     73.632   4.640  1.01500E+00  9.82934E-01  3.20695E-02
    9071.143     75.053   4.680  1.00388E+00  9.83104E-01  2.07726E-02
    9072.576     76.485   4.720  9.91506E-01  9.83291E-01  8.21538E-03
    9074.021     77.930   4.760  9.79129E-01  9.83514E-01 -4.38572E-03
    9075.478     79.387   4.800  9.67694E-01  9.83773E-01 -1.60786E-02
    9076.947     80.856   4.840  9.57574E-01  9.84045E-01 -2.64713E-02
    9078.428     82.338   4.880  9.48786E-01  9.84371E-01 -3.55845E-02
    9079.922     83.831   4.920  9.40999E-01  9.84687E-01 -4.36879E-02
    9081.427     85.337   4.960  9.33938E-01  9.85056E-01 -5.11180E-02
    9082.945     86.855   5.000  9.27576E-01  9.85433E-01 -5.78564E-02
    9084.475     88.385   5.040  9.22562E-01  9.85815E-01 -6.32533E-02
    9086.017     89.927   5.080  9.20175E-01  9.86224E-01 -6.60491E-02
    9087.572     91.481   5.120  9.21508E-01  9.86614E-01 -6.51061E-02
    9089.139     93.048   5.160  9.26733E-01  9.87027E-01 -6.02936E-02
    9090.717     94.627   5.200  9.34748E-01  9.87442E-01 -5.26944E-02
    9092.309     96.218   5.240  9.43632E-01  9.87857E-01 -4.42257E-02
    9093.912     97.821   5.280  9.51358E-01  9.88271E-01 -3.69125E-02
    9095.527     99.437   5.320  9.56354E-01  9.88679E-01 -3.23258E-02
    9097.155    101.064   5.360  9.57893E-01  9.89062E-01 -3.11693E-02
    9098.795    102.704   5.400  9.56285E-01  9.89460E-01 -3.31748E-02
    9100.447    104.356   5.440  9.52507E-01  9.89806E-01 -3.72995E-02
    9102.111    106.020   5.480  9.48054E-01  9.90164E-01 -4.21101E-02
    9103.787    107.697   5.520  9.44355E-01  9.90467E-01 -4.61124E-02
    9105.476    109.385   5.560  9.42792E-01  9.90760E-01 -4.79674E-02
    9107.177    111.086   5.600  9.44318E-01  9.91042E-01 -4.67242E-02
    9108.890    112.799   5.640  9.49245E-01  9.91289E-01 -4.20445E-02
    9110.615    114.524   5.680  9.57335E-01  9.91499E-01 -3.41644E-02
    9112.352    116.262   5.720  9.67927E-01  9.91671E-01 -2.37435E-02
    9114.102    118.011   5.760  9.80016E-01  9.91805E-01 -1.17889E-02
    9115.863    119.773   5.800  9.92331E-01  9.91925E-01  4.06322E-04
    9117.637    121.547   5.840  1.00363E+00  9.91982E-01  1.16513E-02
    9119.423    123.333   5.880  1.01340E+00  9.92023E-01  2.13725E-02
    9121.222    125.131   5.920  1.02168E+00  9.92002E-01  2.96751E-02
    9123.032    126.942   5.960  1.02880E+00  9.91961E-01  3.68352E-02
    9124.855    128.764   6.000  1.03461E+00  9.91831E-01  4.27762E-02
