# # comment:                                                     FEFF 9.9.1  
# # Source:
# # Structure
# # Reduced
# # space
# # abc:
# # angles:134.230352
# # sites:
# # POT  SCF 100  7.0000   0, screened core-hole, AFOLP (folp(0)= 1.150)
# # Abs   Z=29 Rmt= 1.346 Rnm= 1.403 K  shell
# # Pot 1 Z= 3 Rmt= 1.336 Rnm= 1.392
# # Pot 2 Z=29 Rmt= 1.346 Rnm= 1.403
# # Pot 3 Z=83 Rmt= 1.456 Rnm= 1.565
# # Pot 4 Z= 8 Rmt= 1.090 Rnm= 1.142
# # Gam_ch=1.729E+00 H-L exch Vi= 0.000E+00 Vr= 0.000E+00
# # Mu=-7.588E+00eV kf=1.970E+00 Vint=-1.511E+01eV Rs_int= 1.841
# FMS rfms= 9.0000
# # PATH  Rmax=-1.000,  Keep_limit= 0.00, Heap_limit 0.00  Pwcrit= 2.50%
#  S02=0.950  Temp=   0.00  Debye_temp=   0.00  Global_sig2= 0.00000
#  Energy zero shift, vr, vi    0.00000E+00   0.00000E+00
#  Curved wave amplitude ratio filter   4.000%
#     file         sig2 tot  cw amp ratio   deg  nlegs   reff  inp sig2
#     0/   0 paths used
#  xsedge+ 50, used to normalize mu           2.4480E-04
#  -----------------------------------------------------------------------
#  omega    e    k    mu    mu0     chi     @#
    8983.932    -11.398  -1.000  3.73984E-02  5.40468E-02 -1.66485E-02
    8984.231    -11.100  -0.960  3.90951E-02  5.79534E-02 -1.88583E-02
    8984.517    -10.813  -0.920  4.08807E-02  6.22905E-02 -2.14099E-02
    8984.791    -10.539  -0.880  4.27599E-02  6.71208E-02 -2.43610E-02
    8985.053    -10.277  -0.840  4.47380E-02  7.25173E-02 -2.77793E-02
    8985.303    -10.027  -0.800  4.68208E-02  7.85645E-02 -3.17437E-02
    8985.541     -9.789  -0.760  4.90140E-02  8.53591E-02 -3.63451E-02
    8985.767     -9.564  -0.720  5.13237E-02  9.30103E-02 -4.16867E-02
    8985.980     -9.350  -0.680  5.37556E-02  1.01638E-01 -4.78828E-02
    8986.181     -9.149  -0.640  5.63149E-02  1.11370E-01 -5.50550E-02
    8986.370     -8.960  -0.600  5.90050E-02  1.22329E-01 -6.33240E-02
    8986.547     -8.783  -0.560  6.18256E-02  1.34621E-01 -7.27957E-02
    8986.712     -8.619  -0.520  6.47706E-02  1.48309E-01 -8.35386E-02
    8986.864     -8.466  -0.480  6.78244E-02  1.63378E-01 -9.55532E-02
    8987.004     -8.326  -0.440  7.09581E-02  1.79695E-01 -1.08737E-01
    8987.132     -8.198  -0.400  7.41267E-02  1.96978E-01 -1.22852E-01
    8987.248     -8.082  -0.360  7.72686E-02  2.14786E-01 -1.37517E-01
    8987.352     -7.979  -0.320  8.03098E-02  2.32542E-01 -1.52233E-01
    8987.443     -7.887  -0.280  8.31716E-02  2.49608E-01 -1.66436E-01
    8987.522     -7.808  -0.240  8.57802E-02  2.65367E-01 -1.79587E-01
    8987.589     -7.741  -0.200  8.80738E-02  2.79301E-01 -1.91227E-01
    8987.644     -7.686  -0.160  9.00052E-02  2.91030E-01 -2.01025E-01
    8987.687     -7.643  -0.120  9.15401E-02  3.00308E-01 -2.08768E-01
    8987.717     -7.613  -0.080  9.26537E-02  3.06996E-01 -2.14342E-01
    8987.742     -7.588   0.000  9.35596E-02  3.12373E-01 -2.18813E-01
    8987.797     -7.534   0.120  9.57285E-02  3.24495E-01 -2.28766E-01
    8987.839     -7.491   0.160  9.73910E-02  3.33940E-01 -2.36549E-01
    8987.894     -7.436   0.200  9.95210E-02  3.46004E-01 -2.46483E-01
    8987.961     -7.369   0.240  1.02101E-01  3.60517E-01 -2.58416E-01
    8988.040     -7.290   0.280  1.05174E-01  3.77248E-01 -2.72074E-01
    8988.132     -7.198   0.320  1.08722E-01  3.95756E-01 -2.87034E-01
    8988.236     -7.095   0.360  1.12795E-01  4.15561E-01 -3.02766E-01
    8988.351     -6.979   0.400  1.17429E-01  4.36085E-01 -3.18656E-01
    8988.479     -6.851   0.440  1.22742E-01  4.56839E-01 -3.34096E-01
    8988.620     -6.711   0.480  1.28945E-01  4.77441E-01 -3.48496E-01
    8988.772     -6.558   0.520  1.36280E-01  4.97629E-01 -3.61349E-01
    8988.937     -6.394   0.560  1.45074E-01  5.17246E-01 -3.72172E-01
    8989.113     -6.217   0.600  1.55855E-01  5.36320E-01 -3.80465E-01
    8989.302     -6.028   0.640  1.69175E-01  5.54818E-01 -3.85643E-01
    8989.504     -5.827   0.680  1.85897E-01  5.72863E-01 -3.86966E-01
    8989.717     -5.613   0.720  2.06898E-01  5.90469E-01 -3.83571E-01
    8989.942     -5.388   0.760  2.33185E-01  6.07749E-01 -3.74565E-01
    8990.180     -5.150   0.800  2.65082E-01  6.24766E-01 -3.59685E-01
    8990.430     -4.900   0.840  3.01019E-01  6.41530E-01 -3.40511E-01
    8990.692     -4.638   0.880  3.36178E-01  6.58076E-01 -3.21899E-01
    8990.967     -4.364   0.920  3.64644E-01  6.74450E-01 -3.09806E-01
    8991.253     -4.077   0.960  3.85749E-01  6.90621E-01 -3.04872E-01
    8991.552     -3.779   1.000  4.05883E-01  7.06614E-01 -3.00732E-01
    8991.863     -3.468   1.040  4.31199E-01  7.22403E-01 -2.91204E-01
    8992.186     -3.145   1.080  4.61466E-01  7.37973E-01 -2.76507E-01
    8992.521     -2.809   1.120  4.90158E-01  7.53285E-01 -2.63127E-01
    8992.868     -2.462   1.160  5.11600E-01  7.68298E-01 -2.56697E-01
    8993.228     -2.102   1.200  5.29822E-01  7.83007E-01 -2.53185E-01
    8993.600     -1.730   1.240  5.57679E-01  7.97362E-01 -2.39683E-01
    8993.984     -1.346   1.280  6.07440E-01  8.11356E-01 -2.03916E-01
    8994.380     -0.950   1.320  6.86137E-01  8.24918E-01 -1.38781E-01
    8994.789     -0.542   1.360  7.96701E-01  8.38060E-01 -4.13589E-02
    8995.209     -0.121   1.400  9.27821E-01  8.50710E-01  7.71111E-02
    8995.642      0.312   1.440  1.04812E+00  8.62881E-01  1.85243E-01
    8996.087      0.757   1.480  1.14054E+00  8.74545E-01  2.65991E-01
    8996.544      1.214   1.520  1.23046E+00  8.85654E-01  3.44804E-01
    8997.014      1.683   1.560  1.33897E+00  8.96225E-01  4.42741E-01
    8997.495      2.165   1.600  1.48266E+00  9.06235E-01  5.76429E-01
    8997.989      2.659   1.640  1.69041E+00  9.15682E-01  7.74730E-01
    8998.495      3.165   1.680  1.91123E+00  9.24567E-01  9.86665E-01
    8999.013      3.683   1.720  1.98599E+00  9.32871E-01  1.05312E+00
    8999.544      4.213   1.760  1.84673E+00  9.40637E-01  9.06091E-01
    9000.086      4.756   1.800  1.59843E+00  9.47830E-01  6.50595E-01
    9000.641      5.311   1.840  1.37033E+00  9.54478E-01  4.15855E-01
    9001.208      5.878   1.880  1.20391E+00  9.60605E-01  2.43306E-01
    9001.787      6.457   1.920  1.08801E+00  9.66200E-01  1.21805E-01
    9002.378      7.048   1.960  1.00743E+00  9.71295E-01  3.61398E-02
    9002.982      7.651   2.000  9.51487E-01  9.75920E-01 -2.44332E-02
    9003.597      8.267   2.040  9.12258E-01  9.80085E-01 -6.78272E-02
    9004.225      8.895   2.080  8.84988E-01  9.83801E-01 -9.88136E-02
    9004.865      9.535   2.120  8.66849E-01  9.87122E-01 -1.20273E-01
    9005.518     10.187   2.160  8.54210E-01  9.90039E-01 -1.35829E-01
    9006.182     10.852   2.200  8.44199E-01  9.92584E-01 -1.48385E-01
    9006.859     11.528   2.240  8.39654E-01  9.94789E-01 -1.55135E-01
    9007.548     12.217   2.280  8.50072E-01  9.96689E-01 -1.46617E-01
    9008.249     12.918   2.320  8.82281E-01  9.98273E-01 -1.15992E-01
    9008.962     13.632   2.360  9.30871E-01  9.99572E-01 -6.87016E-02
    9009.687     14.357   2.400  9.79527E-01  1.00064E+00 -2.11147E-02
    9010.425     15.095   2.440  1.00641E+00  1.00147E+00  4.94064E-03
    9011.175     15.844   2.480  1.01276E+00  1.00209E+00  1.06695E-02
    9011.937     16.606   2.520  1.00351E+00  1.00254E+00  9.74472E-04
    9012.711     17.381   2.560  9.80207E-01  1.00279E+00 -2.25866E-02
    9013.497     18.167   2.600  9.45910E-01  1.00291E+00 -5.70030E-02
    9014.296     18.966   2.640  9.06515E-01  1.00290E+00 -9.63885E-02
    9015.107     19.776   2.680  8.69834E-01  1.00280E+00 -1.32963E-01
    9015.930     20.599   2.720  8.41024E-01  1.00258E+00 -1.61552E-01
    9016.765     21.434   2.760  8.21061E-01  1.00227E+00 -1.81211E-01
    9017.612     22.282   2.800  8.09538E-01  1.00189E+00 -1.92352E-01
    9018.472     23.141   2.840  8.05443E-01  1.00146E+00 -1.96019E-01
    9019.343     24.013   2.880  8.07440E-01  1.00101E+00 -1.93570E-01
    9020.227     24.897   2.920  8.14455E-01  1.00050E+00 -1.86044E-01
    9021.123     25.793   2.960  8.26057E-01  9.99977E-01 -1.73920E-01
    9022.032     26.701   3.000  8.40874E-01  9.99449E-01 -1.58575E-01
    9022.952     27.622   3.040  8.58122E-01  9.98919E-01 -1.40798E-01
    9023.885     28.555   3.080  8.77101E-01  9.98392E-01 -1.21291E-01
    9024.830     29.499   3.120  8.97419E-01  9.97891E-01 -1.00472E-01
    9025.787     30.456   3.160  9.19393E-01  9.97398E-01 -7.80047E-02
    9026.756     31.426   3.200  9.44085E-01  9.96915E-01 -5.28296E-02
    9027.737     32.407   3.240  9.72498E-01  9.96487E-01 -2.39891E-02
    9028.731     33.401   3.280  1.00429E+00  9.96077E-01  8.21176E-03
    9029.737     34.407   3.320  1.03799E+00  9.95727E-01  4.22610E-02
    9030.755     35.425   3.360  1.07069E+00  9.95395E-01  7.52991E-02
    9031.785     36.455   3.400  1.09939E+00  9.95125E-01  1.04269E-01
    9032.828     37.497   3.440  1.12185E+00  9.94876E-01  1.26970E-01
    9033.882     38.552   3.480  1.13704E+00  9.94693E-01  1.42346E-01
    9034.949     39.619   3.520  1.14540E+00  9.94555E-01  1.50849E-01
    9036.028     40.698   3.560  1.14895E+00  9.94483E-01  1.54466E-01
    9037.119     41.789   3.600  1.14975E+00  9.94455E-01  1.55300E-01
    9038.223     42.892   3.640  1.14874E+00  9.94472E-01  1.54264E-01
    9039.338     44.008   3.680  1.14520E+00  9.94532E-01  1.50672E-01
    9040.466     45.136   3.720  1.13802E+00  9.94657E-01  1.43367E-01
    9041.606     46.276   3.760  1.12647E+00  9.94804E-01  1.31669E-01
    9042.758     47.428   3.800  1.11094E+00  9.95014E-01  1.15922E-01
    9043.922     48.592   3.840  1.09224E+00  9.95266E-01  9.69776E-02
    9045.099     49.769   3.880  1.07111E+00  9.95559E-01  7.55468E-02
    9046.288     50.957   3.920  1.04805E+00  9.95892E-01  5.21542E-02
    9047.488     52.158   3.960  1.02383E+00  9.96263E-01  2.75654E-02
    9048.702     53.371   4.000  9.99717E-01  9.96671E-01  3.04589E-03
    9049.927     54.597   4.040  9.77258E-01  9.97093E-01 -1.98355E-02
    9051.164     55.834   4.080  9.58036E-01  9.97571E-01 -3.95350E-02
    9052.414     57.084   4.120  9.43299E-01  9.98060E-01 -5.47605E-02
    9053.676     58.346   4.160  9.33947E-01  9.98557E-01 -6.46104E-02
    9054.950     59.620   4.200  9.30385E-01  9.99084E-01 -6.86990E-02
    9056.236     60.906   4.240  9.32542E-01  9.99640E-01 -6.70979E-02
    9057.535     62.204   4.280  9.39869E-01  1.00018E+00 -6.03106E-02
    9058.845     63.515   4.320  9.51314E-01  1.00074E+00 -4.94296E-02
    9060.168     64.838   4.360  9.65173E-01  1.00131E+00 -3.61374E-02
    9061.503     66.173   4.400  9.79304E-01  1.00190E+00 -2.25971E-02
    9062.850     67.520   4.440  9.91387E-01  1.00247E+00 -1.10810E-02
    9064.210     68.879   4.480  9.99642E-01  1.00303E+00 -3.38876E-03
    9065.581     70.251   4.520  1.00324E+00  1.00359E+00 -3.51190E-04
    9066.965     71.635   4.560  1.00225E+00  1.00414E+00 -1.89250E-03
    9068.361     73.031   4.600  9.97623E-01  1.00466E+00 -7.04230E-03
    9069.769     74.439   4.640  9.90973E-01  1.00518E+00 -1.42048E-02
    9071.190     75.859   4.680  9.84102E-01  1.00566E+00 -2.15570E-02
    9072.622     77.292   4.720  9.78628E-01  1.00613E+00 -2.75001E-02
    9074.067     78.737   4.760  9.75490E-01  1.00656E+00 -3.10749E-02
    9075.524     80.194   4.800  9.74768E-01  1.00699E+00 -3.22198E-02
    9076.993     81.663   4.840  9.75707E-01  1.00738E+00 -3.16684E-02
    9078.474     83.144   4.880  9.77105E-01  1.00773E+00 -3.06224E-02
    9079.968     84.638   4.920  9.77801E-01  1.00806E+00 -3.02605E-02
    9081.473     86.143   4.960  9.77111E-01  1.00834E+00 -3.12243E-02
    9082.991     87.661   5.000  9.75150E-01  1.00859E+00 -3.34427E-02
    9084.521     89.191   5.040  9.72493E-01  1.00881E+00 -3.63159E-02
    9086.064     90.733   5.080  9.69853E-01  1.00896E+00 -3.91079E-02
    9087.618     92.288   5.120  9.67859E-01  1.00909E+00 -4.12358E-02
    9089.185     93.855   5.160  9.66848E-01  1.00919E+00 -4.23414E-02
    9090.764     95.433   5.200  9.67073E-01  1.00924E+00 -4.21704E-02
    9092.355     97.025   5.240  9.68908E-01  1.00926E+00 -4.03485E-02
    9093.958     98.628   5.280  9.73070E-01  1.00923E+00 -3.61611E-02
    9095.573    100.243   5.320  9.80681E-01  1.00919E+00 -2.85057E-02
    9097.201    101.871   5.360  9.92813E-01  1.00908E+00 -1.62672E-02
    9098.841    103.511   5.400  1.00993E+00  1.00893E+00  1.00169E-03
    9100.493    105.163   5.440  1.03111E+00  1.00874E+00  2.23714E-02
    9102.157    106.827   5.480  1.05407E+00  1.00854E+00  4.55353E-02
    9103.834    108.503   5.520  1.07579E+00  1.00830E+00  6.74972E-02
    9105.522    110.192   5.560  1.09346E+00  1.00799E+00  8.54697E-02
    9107.223    111.893   5.600  1.10507E+00  1.00770E+00  9.73752E-02
    9108.936    113.606   5.640  1.10957E+00  1.00735E+00  1.02227E-01
    9110.661    115.331   5.680  1.10704E+00  1.00696E+00  1.00087E-01
    9112.398    117.068   5.720  1.09821E+00  1.00655E+00  9.16577E-02
    9114.148    118.818   5.760  1.08395E+00  1.00615E+00  7.77985E-02
    9115.910    120.579   5.800  1.06523E+00  1.00571E+00  5.95262E-02
    9117.684    122.353   5.840  1.04361E+00  1.00523E+00  3.83753E-02
    9119.470    124.139   5.880  1.02135E+00  1.00473E+00  1.66184E-02
    9121.268    125.938   5.920  1.00114E+00  1.00426E+00 -3.11738E-03
    9123.079    127.748   5.960  9.85264E-01  1.00376E+00 -1.84995E-02
    9124.901    129.571   6.000  9.75381E-01  1.00323E+00 -2.78471E-02
