# # comment:                                                     FEFF 9.9.1  
# # Source:
# # Structure
# # Reduced
# # space
# # abc:
# # angles:
# # sites:
# # POT  SCF 100  7.0000   0, screened core-hole, AFOLP (folp(0)= 1.150)
# # Abs   Z=29 Rmt= 1.150 Rnm= 1.245 K  shell
# # Pot 1 Z= 3 Rmt= 1.255 Rnm= 1.302
# # Pot 2 Z=27 Rmt= 1.267 Rnm= 1.378
# # Pot 3 Z=29 Rmt= 1.157 Rnm= 1.247
# # Pot 4 Z= 8 Rmt= 1.044 Rnm= 1.100
# # Gam_ch=1.729E+00 H-L exch Vi= 0.000E+00 Vr= 0.000E+00
# # Mu=-1.036E+01eV kf=2.111E+00 Vint=-1.811E+01eV Rs_int= 1.718
# FMS rfms= 9.0000
# # PATH  Rmax=-1.000,  Keep_limit= 0.00, Heap_limit 0.00  Pwcrit= 2.50%
#  S02=0.950  Temp=   0.00  Debye_temp=   0.00  Global_sig2= 0.00000
#  Energy zero shift, vr, vi    0.00000E+00   0.00000E+00
#  Curved wave amplitude ratio filter   4.000%
#     file         sig2 tot  cw amp ratio   deg  nlegs   reff  inp sig2
#     0/   0 paths used
#  xsedge+ 50, used to normalize mu           2.4503E-04
#  -----------------------------------------------------------------------
#  omega    e    k    mu    mu0     chi     @#
    8985.083    -14.172  -1.000  3.03050E-02  5.43542E-02 -2.40491E-02
    8985.382    -13.873  -0.960  3.15374E-02  5.82573E-02 -2.67199E-02
    8985.668    -13.587  -0.920  3.28420E-02  6.25880E-02 -2.97459E-02
    8985.942    -13.313  -0.880  3.42276E-02  6.74082E-02 -3.31807E-02
    8986.204    -13.050  -0.840  3.57046E-02  7.27903E-02 -3.70858E-02
    8986.454    -12.801  -0.800  3.72857E-02  7.88179E-02 -4.15322E-02
    8986.692    -12.563  -0.760  3.89861E-02  8.55867E-02 -4.66006E-02
    8986.918    -12.337  -0.720  4.08236E-02  9.32047E-02 -5.23812E-02
    8987.131    -12.124  -0.680  4.28183E-02  1.01791E-01 -5.89726E-02
    8987.332    -11.923  -0.640  4.49924E-02  1.11470E-01 -6.64780E-02
    8987.521    -11.734  -0.600  4.73679E-02  1.22366E-01 -7.49980E-02
    8987.698    -11.557  -0.560  4.99638E-02  1.34582E-01 -8.46180E-02
    8987.863    -11.392  -0.520  5.27903E-02  1.48180E-01 -9.53894E-02
    8988.015    -11.240  -0.480  5.58414E-02  1.63144E-01 -1.07303E-01
    8988.155    -11.100  -0.440  5.90863E-02  1.79344E-01 -1.20258E-01
    8988.283    -10.972  -0.400  6.24621E-02  1.96500E-01 -1.34038E-01
    8988.399    -10.856  -0.360  6.58727E-02  2.14174E-01 -1.48301E-01
    8988.503    -10.752  -0.320  6.91972E-02  2.31795E-01 -1.62598E-01
    8988.594    -10.661  -0.280  7.23086E-02  2.48730E-01 -1.76421E-01
    8988.673    -10.582  -0.240  7.50960E-02  2.64367E-01 -1.89271E-01
    8988.740    -10.515  -0.200  7.74810E-02  2.78195E-01 -2.00714E-01
    8988.795    -10.460  -0.160  7.94236E-02  2.89834E-01 -2.10410E-01
    8988.838    -10.417  -0.120  8.09153E-02  2.99041E-01 -2.18125E-01
    8988.868    -10.387  -0.080  8.19671E-02  3.05677E-01 -2.23710E-01
    8988.893    -10.362   0.000  8.28100E-02  3.11011E-01 -2.28201E-01
    8988.948    -10.307   0.120  8.47214E-02  3.23049E-01 -2.38327E-01
    8988.990    -10.265   0.160  8.60678E-02  3.32409E-01 -2.46342E-01
    8989.045    -10.210   0.200  8.76840E-02  3.44393E-01 -2.56709E-01
    8989.112    -10.143   0.240  8.94218E-02  3.58831E-01 -2.69409E-01
    8989.192    -10.063   0.280  9.11482E-02  3.75434E-01 -2.84286E-01
    8989.283     -9.972   0.320  9.27316E-02  3.93827E-01 -3.01096E-01
    8989.387     -9.868   0.360  9.40627E-02  4.13515E-01 -3.19453E-01
    8989.502     -9.753   0.400  9.50536E-02  4.33928E-01 -3.38875E-01
    8989.630     -9.625   0.440  9.58143E-02  4.54602E-01 -3.58788E-01
    8989.771     -9.484   0.480  9.64429E-02  4.75142E-01 -3.78699E-01
    8989.923     -9.332   0.520  9.71814E-02  4.95288E-01 -3.98107E-01
    8990.088     -9.167   0.560  9.82228E-02  5.14949E-01 -4.16726E-01
    8990.264     -8.991   0.600  9.96695E-02  5.34052E-01 -4.34382E-01
    8990.453     -8.802   0.640  1.01546E-01  5.52667E-01 -4.51121E-01
    8990.655     -8.600   0.680  1.03799E-01  5.70839E-01 -4.67039E-01
    8990.868     -8.387   0.720  1.06417E-01  5.88663E-01 -4.82246E-01
    8991.093     -8.161   0.760  1.09554E-01  6.06213E-01 -4.96659E-01
    8991.331     -7.924   0.800  1.13564E-01  6.23533E-01 -5.09969E-01
    8991.581     -7.674   0.840  1.18880E-01  6.40674E-01 -5.21794E-01
    8991.843     -7.412   0.880  1.25953E-01  6.57673E-01 -5.31720E-01
    8992.118     -7.137   0.920  1.35315E-01  6.74576E-01 -5.39261E-01
    8992.404     -6.851   0.960  1.47652E-01  6.91335E-01 -5.43682E-01
    8992.703     -6.552   1.000  1.64139E-01  7.07992E-01 -5.43853E-01
    8993.014     -6.241   1.040  1.86483E-01  7.24501E-01 -5.38018E-01
    8993.337     -5.918   1.080  2.17172E-01  7.40870E-01 -5.23698E-01
    8993.672     -5.583   1.120  2.59139E-01  7.57058E-01 -4.97919E-01
    8994.020     -5.235   1.160  3.14671E-01  7.73022E-01 -4.58351E-01
    8994.379     -4.876   1.200  3.82684E-01  7.88735E-01 -4.06051E-01
    8994.751     -4.504   1.240  4.53271E-01  8.04165E-01 -3.50894E-01
    8995.135     -4.120   1.280  5.10679E-01  8.19283E-01 -3.08604E-01
    8995.531     -3.724   1.320  5.53337E-01  8.34014E-01 -2.80676E-01
    8995.940     -3.315   1.360  5.92245E-01  8.48364E-01 -2.56119E-01
    8996.360     -2.895   1.400  6.27251E-01  8.62260E-01 -2.35009E-01
    8996.793     -2.462   1.440  6.48695E-01  8.75689E-01 -2.26995E-01
    8997.238     -2.017   1.480  6.62032E-01  8.88639E-01 -2.26608E-01
    8997.695     -1.560   1.520  6.91442E-01  9.01039E-01 -2.09596E-01
    8998.165     -1.090   1.560  7.52673E-01  9.12899E-01 -1.60226E-01
    8998.646     -0.609   1.600  8.23758E-01  9.24169E-01 -1.00411E-01
    8999.140     -0.115   1.640  8.61268E-01  9.34867E-01 -7.35991E-02
    8999.646      0.391   1.680  8.62629E-01  9.44966E-01 -8.23373E-02
    9000.164      0.909   1.720  8.73275E-01  9.54463E-01 -8.11879E-02
    9000.695      1.440   1.760  9.38217E-01  9.63337E-01 -2.51193E-02
    9001.237      1.982   1.800  1.05609E+00  9.71588E-01  8.44974E-02
    9001.792      2.537   1.840  1.19957E+00  9.79240E-01  2.20326E-01
    9002.359      3.104   1.880  1.34599E+00  9.86298E-01  3.59695E-01
    9002.938      3.683   1.920  1.48645E+00  9.92767E-01  4.93682E-01
    9003.529      4.274   1.960  1.60366E+00  9.98631E-01  6.05034E-01
    9004.133      4.878   2.000  1.66985E+00  1.00394E+00  6.65905E-01
    9004.748      5.493   2.040  1.68213E+00  1.00870E+00  6.73423E-01
    9005.376      6.121   2.080  1.66084E+00  1.01291E+00  6.47926E-01
    9006.016      6.761   2.120  1.60411E+00  1.01664E+00  5.87471E-01
    9006.669      7.414   2.160  1.49422E+00  1.01987E+00  4.74354E-01
    9007.333      8.078   2.200  1.35344E+00  1.02264E+00  3.30800E-01
    9008.010      8.755   2.240  1.22254E+00  1.02496E+00  1.97580E-01
    9008.699      9.444   2.280  1.11482E+00  1.02687E+00  8.79465E-02
    9009.400     10.145   2.320  1.02938E+00  1.02840E+00  9.78191E-04
    9010.113     10.858   2.360  9.66997E-01  1.02956E+00 -6.25583E-02
    9010.838     11.583   2.400  9.30239E-01  1.03038E+00 -1.00140E-01
    9011.576     12.321   2.440  9.17094E-01  1.03088E+00 -1.13782E-01
    9012.326     13.071   2.480  9.21094E-01  1.03108E+00 -1.09990E-01
    9013.088     13.833   2.520  9.44592E-01  1.03103E+00 -8.64425E-02
    9013.862     14.607   2.560  9.88202E-01  1.03074E+00 -4.25373E-02
    9014.648     15.393   2.600  1.03829E+00  1.03021E+00  8.07838E-03
    9015.447     16.192   2.640  1.08687E+00  1.02950E+00  5.73745E-02
    9016.258     17.003   2.680  1.12583E+00  1.02862E+00  9.72139E-02
    9017.081     17.826   2.720  1.14835E+00  1.02757E+00  1.20772E-01
    9017.916     18.661   2.760  1.15222E+00  1.02640E+00  1.25817E-01
    9018.763     19.508   2.800  1.14007E+00  1.02511E+00  1.14960E-01
    9019.623     20.368   2.840  1.11757E+00  1.02370E+00  9.38737E-02
    9020.494     21.239   2.880  1.09142E+00  1.02223E+00  6.91912E-02
    9021.378     22.123   2.920  1.06496E+00  1.02068E+00  4.42833E-02
    9022.274     23.019   2.960  1.04009E+00  1.01909E+00  2.09993E-02
    9023.183     23.928   3.000  1.01671E+00  1.01746E+00 -7.41809E-04
    9024.103     24.848   3.040  9.93626E-01  1.01581E+00 -2.21821E-02
    9025.036     25.781   3.080  9.70141E-01  1.01413E+00 -4.39914E-02
    9025.981     26.726   3.120  9.47212E-01  1.01245E+00 -6.52416E-02
    9026.938     27.683   3.160  9.26589E-01  1.01078E+00 -8.41883E-02
    9027.907     28.652   3.200  9.09890E-01  1.00913E+00 -9.92422E-02
    9028.889     29.634   3.240  8.97920E-01  1.00752E+00 -1.09602E-01
    9029.882     30.627   3.280  8.90177E-01  1.00595E+00 -1.15771E-01
    9030.888     31.633   3.320  8.85516E-01  1.00442E+00 -1.18899E-01
    9031.906     32.651   3.360  8.82784E-01  1.00293E+00 -1.20143E-01
    9032.936     33.681   3.400  8.81314E-01  1.00148E+00 -1.20170E-01
    9033.979     34.724   3.440  8.80806E-01  1.00011E+00 -1.19305E-01
    9035.033     35.778   3.480  8.81507E-01  9.98814E-01 -1.17307E-01
    9036.100     36.845   3.520  8.83735E-01  9.97571E-01 -1.13835E-01
    9037.179     37.924   3.560  8.87489E-01  9.96404E-01 -1.08915E-01
    9038.270     39.015   3.600  8.92561E-01  9.95338E-01 -1.02776E-01
    9039.374     40.119   3.640  8.98641E-01  9.94330E-01 -9.56900E-02
    9040.489     41.234   3.680  9.05553E-01  9.93403E-01 -8.78497E-02
    9041.617     42.362   3.720  9.13226E-01  9.92558E-01 -7.93320E-02
    9042.757     43.502   3.760  9.21932E-01  9.91817E-01 -6.98848E-02
    9043.909     44.654   3.800  9.31916E-01  9.91137E-01 -5.92205E-02
    9045.073     45.818   3.840  9.43273E-01  9.90562E-01 -4.72891E-02
    9046.250     46.995   3.880  9.55656E-01  9.90070E-01 -3.44137E-02
    9047.439     48.184   3.920  9.68612E-01  9.89661E-01 -2.10491E-02
    9048.639     49.385   3.960  9.81674E-01  9.89334E-01 -7.65986E-03
    9049.853     50.598   4.000  9.94412E-01  9.89086E-01  5.32605E-03
    9051.078     51.823   4.040  1.00639E+00  9.88921E-01  1.74648E-02
    9052.315     53.060   4.080  1.01705E+00  9.88837E-01  2.82173E-02
    9053.565     54.310   4.120  1.02578E+00  9.88831E-01  3.69525E-02
    9054.827     55.572   4.160  1.03198E+00  9.88905E-01  4.30753E-02
    9056.101     56.846   4.200  1.03528E+00  9.89056E-01  4.62226E-02
    9057.387     58.132   4.240  1.03573E+00  9.89264E-01  4.64663E-02
    9058.686     59.431   4.280  1.03388E+00  9.89567E-01  4.43166E-02
    9059.996     60.741   4.320  1.03038E+00  9.89921E-01  4.04565E-02
    9061.319     62.064   4.360  1.02590E+00  9.90325E-01  3.55797E-02
    9062.654     63.399   4.400  1.02117E+00  9.90798E-01  3.03686E-02
    9064.001     64.746   4.440  1.01692E+00  9.91317E-01  2.56020E-02
    9065.361     66.106   4.480  1.01386E+00  9.91881E-01  2.19794E-02
    9066.732     67.477   4.520  1.01241E+00  9.92511E-01  1.98984E-02
    9068.116     68.861   4.560  1.01254E+00  9.93182E-01  1.93530E-02
    9069.512     70.257   4.600  1.01403E+00  9.93870E-01  2.01553E-02
    9070.920     71.665   4.640  1.01688E+00  9.94617E-01  2.22602E-02
    9072.341     73.086   4.680  1.02143E+00  9.95375E-01  2.60587E-02
    9073.773     74.518   4.720  1.02832E+00  9.96144E-01  3.21777E-02
    9075.218     75.963   4.760  1.03785E+00  9.96966E-01  4.08894E-02
    9076.675     77.420   4.800  1.04936E+00  9.97772E-01  5.15912E-02
    9078.144     78.889   4.840  1.06125E+00  9.98604E-01  6.26478E-02
    9079.625     80.370   4.880  1.07121E+00  9.99438E-01  7.17749E-02
    9081.119     81.864   4.920  1.07728E+00  1.00027E+00  7.70055E-02
    9082.625     83.370   4.960  1.07859E+00  1.00111E+00  7.74865E-02
    9084.142     84.887   5.000  1.07564E+00  1.00193E+00  7.37077E-02
    9085.673     86.418   5.040  1.06986E+00  1.00273E+00  6.71299E-02
    9087.215     87.960   5.080  1.06276E+00  1.00353E+00  5.92323E-02
    9088.769     89.514   5.120  1.05512E+00  1.00431E+00  5.08162E-02
    9090.336     91.081   5.160  1.04688E+00  1.00506E+00  4.18276E-02
    9091.915     92.660   5.200  1.03752E+00  1.00577E+00  3.17523E-02
    9093.506     94.251   5.240  1.02671E+00  1.00644E+00  2.02722E-02
    9095.109     95.854   5.280  1.01473E+00  1.00710E+00  7.62592E-03
    9096.725     97.470   5.320  1.00241E+00  1.00772E+00 -5.30728E-03
    9098.352     99.097   5.360  9.91144E-01  1.00827E+00 -1.71281E-02
    9099.992    100.737   5.400  9.82565E-01  1.00881E+00 -2.62401E-02
    9101.644    102.389   5.440  9.77841E-01  1.00927E+00 -3.14285E-02
    9103.308    104.053   5.480  9.77260E-01  1.00969E+00 -3.24267E-02
    9104.985    105.730   5.520  9.79905E-01  1.01004E+00 -3.01310E-02
    9106.673    107.418   5.560  9.84070E-01  1.01036E+00 -2.62912E-02
    9108.374    109.119   5.600  9.87795E-01  1.01062E+00 -2.28207E-02
    9110.087    110.832   5.640  9.89643E-01  1.01080E+00 -2.11556E-02
    9111.812    112.557   5.680  9.89086E-01  1.01093E+00 -2.18474E-02
    9113.549    114.294   5.720  9.86177E-01  1.01102E+00 -2.48434E-02
    9115.299    116.044   5.760  9.80938E-01  1.01104E+00 -3.00995E-02
    9117.061    117.806   5.800  9.73190E-01  1.01100E+00 -3.78145E-02
    9118.835    119.580   5.840  9.63091E-01  1.01090E+00 -4.78103E-02
    9120.621    121.366   5.880  9.51752E-01  1.01075E+00 -5.89975E-02
    9122.419    123.164   5.920  9.40834E-01  1.01053E+00 -6.96930E-02
    9124.230    124.975   5.960  9.32066E-01  1.01025E+00 -7.81851E-02
    9126.052    126.797   6.000  9.27189E-01  1.00989E+00 -8.26973E-02
