# # comment:                                                     FEFF 9.9.1  
# # Source:
# # Structure
# # Reduced
# # space
# # abc:
# # angles:
# # sites:
# # POT  SCF 100  7.0000   0, screened core-hole, AFOLP (folp(0)= 1.150)
# # Abs   Z=29 Rmt= 1.226 Rnm= 1.318 K  shell
# # Pot 1 Z=29 Rmt= 1.226 Rnm= 1.318
# # Pot 2 Z=83 Rmt= 1.599 Rnm= 1.676
# # Pot 3 Z=15 Rmt= 0.946 Rnm= 1.163
# # Pot 4 Z= 8 Rmt= 0.888 Rnm= 1.049
# # Gam_ch=1.729E+00 H-L exch Vi= 0.000E+00 Vr= 0.000E+00
# # Mu=-5.993E+00eV kf=2.452E+00 Vint=-1.676E+01eV Rs_int= 1.479
# FMS rfms= 9.0000
# # PATH  Rmax=-1.000,  Keep_limit= 0.00, Heap_limit 0.00  Pwcrit= 2.50%
#  S02=0.950  Temp=   0.00  Debye_temp=   0.00  Global_sig2= 0.00000
#  Energy zero shift, vr, vi    0.00000E+00   0.00000E+00
#  Curved wave amplitude ratio filter   4.000%
#     file         sig2 tot  cw amp ratio   deg  nlegs   reff  inp sig2
#     0/   0 paths used
#  xsedge+ 50, used to normalize mu           2.4813E-04
#  -----------------------------------------------------------------------
#  omega    e    k    mu    mu0     chi     @#
    8983.273     -9.803  -1.000  4.22728E-02  5.31781E-02 -1.09054E-02
    8983.572     -9.505  -0.960  4.48802E-02  5.70760E-02 -1.21958E-02
    8983.858     -9.218  -0.920  4.77359E-02  6.14131E-02 -1.36772E-02
    8984.133     -8.944  -0.880  5.08718E-02  6.62547E-02 -1.53829E-02
    8984.395     -8.682  -0.840  5.43246E-02  7.16771E-02 -1.73525E-02
    8984.645     -8.432  -0.800  5.81357E-02  7.77686E-02 -1.96330E-02
    8984.883     -8.194  -0.760  6.23516E-02  8.46310E-02 -2.22794E-02
    8985.108     -7.969  -0.720  6.70236E-02  9.23790E-02 -2.53554E-02
    8985.322     -7.755  -0.680  7.22067E-02  1.01139E-01 -2.89327E-02
    8985.523     -7.554  -0.640  7.79573E-02  1.11046E-01 -3.30889E-02
    8985.712     -7.365  -0.600  8.43288E-02  1.22231E-01 -3.79022E-02
    8985.888     -7.188  -0.560  9.13649E-02  1.34807E-01 -4.34419E-02
    8986.053     -7.024  -0.520  9.90882E-02  1.48841E-01 -4.97529E-02
    8986.205     -6.871  -0.480  1.07487E-01  1.64320E-01 -5.68336E-02
    8986.346     -6.731  -0.440  1.16496E-01  1.81108E-01 -6.46118E-02
    8986.474     -6.603  -0.400  1.25986E-01  1.98909E-01 -7.29230E-02
    8986.589     -6.487  -0.360  1.35754E-01  2.17261E-01 -8.15070E-02
    8986.693     -6.384  -0.320  1.45533E-01  2.35562E-01 -9.00296E-02
    8986.785     -6.292  -0.280  1.55013E-01  2.53144E-01 -9.81313E-02
    8986.864     -6.213  -0.240  1.63880E-01  2.69366E-01 -1.05486E-01
    8986.931     -6.146  -0.200  1.71844E-01  2.83694E-01 -1.11850E-01
    8986.986     -6.091  -0.160  1.78664E-01  2.95739E-01 -1.17075E-01
    8987.028     -6.048  -0.120  1.84153E-01  3.05254E-01 -1.21101E-01
    8987.059     -6.018  -0.080  1.88179E-01  3.12105E-01 -1.23926E-01
    8987.083     -5.993   0.000  1.91500E-01  3.17607E-01 -1.26107E-01
    8987.138     -5.939   0.120  1.98889E-01  3.30001E-01 -1.31112E-01
    8987.181     -5.896   0.160  2.04693E-01  3.39619E-01 -1.34926E-01
    8987.236     -5.841   0.200  2.12270E-01  3.51893E-01 -1.39623E-01
    8987.303     -5.774   0.240  2.21661E-01  3.66643E-01 -1.44982E-01
    8987.382     -5.695   0.280  2.32854E-01  3.83513E-01 -1.50659E-01
    8987.473     -5.603   0.320  2.45868E-01  4.02091E-01 -1.56223E-01
    8987.577     -5.500   0.360  2.60572E-01  4.21795E-01 -1.61222E-01
    8987.693     -5.384   0.400  2.76811E-01  4.42007E-01 -1.65197E-01
    8987.821     -5.256   0.440  2.94340E-01  4.62186E-01 -1.67846E-01
    8987.961     -5.116   0.480  3.12944E-01  4.81933E-01 -1.68989E-01
    8988.113     -4.963   0.520  3.32327E-01  5.00942E-01 -1.68615E-01
    8988.278     -4.799   0.560  3.52278E-01  5.19091E-01 -1.66813E-01
    8988.455     -4.622   0.600  3.72533E-01  5.36371E-01 -1.63839E-01
    8988.644     -4.433   0.640  3.92687E-01  5.52825E-01 -1.60138E-01
    8988.845     -4.232   0.680  4.12269E-01  5.68553E-01 -1.56284E-01
    8989.058     -4.018   0.720  4.30878E-01  5.83652E-01 -1.52774E-01
    8989.284     -3.793   0.760  4.48219E-01  5.98238E-01 -1.50019E-01
    8989.522     -3.555   0.800  4.63496E-01  6.12377E-01 -1.48881E-01
    8989.772     -3.305   0.840  4.75060E-01  6.26183E-01 -1.51123E-01
    8990.034     -3.043   0.880  4.81375E-01  6.39716E-01 -1.58342E-01
    8990.308     -2.769   0.920  4.82718E-01  6.53002E-01 -1.70285E-01
    8990.595     -2.482   0.960  4.80740E-01  6.66116E-01 -1.85376E-01
    8990.893     -2.183   1.000  4.76265E-01  6.79059E-01 -2.02794E-01
    8991.204     -1.873   1.040  4.69557E-01  6.91864E-01 -2.22307E-01
    8991.527     -1.549   1.080  4.62688E-01  7.04520E-01 -2.41832E-01
    8991.863     -1.214   1.120  4.59724E-01  7.17065E-01 -2.57341E-01
    8992.210     -0.867   1.160  4.63721E-01  7.29472E-01 -2.65751E-01
    8992.570     -0.507   1.200  4.75195E-01  7.41751E-01 -2.66556E-01
    8992.941     -0.135   1.240  4.92847E-01  7.53866E-01 -2.61019E-01
    8993.326      0.249   1.280  5.15715E-01  7.65841E-01 -2.50126E-01
    8993.722      0.645   1.320  5.44067E-01  7.77637E-01 -2.33570E-01
    8994.130      1.053   1.360  5.77778E-01  7.89232E-01 -2.11454E-01
    8994.551      1.474   1.400  6.14702E-01  8.00622E-01 -1.85920E-01
    8994.984      1.907   1.440  6.53223E-01  8.11784E-01 -1.58561E-01
    8995.429      2.352   1.480  6.95940E-01  8.22713E-01 -1.26773E-01
    8995.886      2.809   1.520  7.48032E-01  8.33385E-01 -8.53530E-02
    8996.355      3.279   1.560  8.11841E-01  8.43774E-01 -3.19327E-02
    8996.837      3.760   1.600  8.79367E-01  8.53874E-01  2.54934E-02
    8997.331      4.254   1.640  9.29075E-01  8.63660E-01  6.54150E-02
    8997.837      4.760   1.680  9.48178E-01  8.73150E-01  7.50277E-02
    8998.355      5.278   1.720  9.52065E-01  8.82297E-01  6.97675E-02
    8998.885      5.808   1.760  9.59337E-01  8.91098E-01  6.82394E-02
    8999.428      6.351   1.800  9.67498E-01  8.99530E-01  6.79680E-02
    8999.982      6.906   1.840  9.73217E-01  9.07629E-01  6.55880E-02
    9000.549      7.473   1.880  9.89943E-01  9.15355E-01  7.45876E-02
    9001.128      8.052   1.920  1.02810E+00  9.22708E-01  1.05388E-01
    9001.720      8.643   1.960  1.08179E+00  9.29706E-01  1.52086E-01
    9002.323      9.246   2.000  1.14123E+00  9.36329E-01  2.04899E-01
    9002.939      9.862   2.040  1.19959E+00  9.42579E-01  2.57011E-01
    9003.567     10.490   2.080  1.24558E+00  9.48456E-01  2.97123E-01
    9004.207     11.130   2.120  1.27294E+00  9.53963E-01  3.18979E-01
    9004.859     11.782   2.160  1.28981E+00  9.59125E-01  3.30683E-01
    9005.524     12.447   2.200  1.30302E+00  9.63922E-01  3.39099E-01
    9006.200     13.124   2.240  1.31020E+00  9.68360E-01  3.41844E-01
    9006.889     13.812   2.280  1.30937E+00  9.72484E-01  3.36883E-01
    9007.590     14.513   2.320  1.30147E+00  9.76278E-01  3.25196E-01
    9008.303     15.227   2.360  1.28513E+00  9.79729E-01  3.05403E-01
    9009.029     15.952   2.400  1.25300E+00  9.82901E-01  2.70104E-01
    9009.766     16.690   2.440  1.20610E+00  9.85761E-01  2.20338E-01
    9010.516     17.439   2.480  1.16101E+00  9.88333E-01  1.72674E-01
    9011.278     18.201   2.520  1.13233E+00  9.90646E-01  1.41685E-01
    9012.052     18.976   2.560  1.12092E+00  9.92686E-01  1.28238E-01
    9012.839     19.762   2.600  1.11732E+00  9.94500E-01  1.22822E-01
    9013.637     20.561   2.640  1.11131E+00  9.96073E-01  1.15239E-01
    9014.448     21.371   2.680  1.09504E+00  9.97413E-01  9.76237E-02
    9015.271     22.194   2.720  1.06133E+00  9.98545E-01  6.27813E-02
    9016.106     23.029   2.760  1.01165E+00  9.99496E-01  1.21561E-02
    9016.954     23.877   2.800  9.60786E-01  1.00025E+00 -3.94670E-02
    9017.813     24.736   2.840  9.23924E-01  1.00084E+00 -7.69187E-02
    9018.685     25.608   2.880  8.99638E-01  1.00127E+00 -1.01632E-01
    9019.569     26.492   2.920  8.78920E-01  1.00154E+00 -1.22624E-01
    9020.465     27.388   2.960  8.60998E-01  1.00171E+00 -1.40712E-01
    9021.373     28.296   3.000  8.47828E-01  1.00173E+00 -1.53905E-01
    9022.294     29.217   3.040  8.40059E-01  1.00166E+00 -1.61600E-01
    9023.226     30.150   3.080  8.36828E-01  1.00150E+00 -1.64667E-01
    9024.171     31.094   3.120  8.36875E-01  1.00123E+00 -1.64351E-01
    9025.128     32.052   3.160  8.39384E-01  1.00089E+00 -1.61510E-01
    9026.098     33.021   3.200  8.43899E-01  1.00047E+00 -1.56568E-01
    9027.079     34.002   3.240  8.50572E-01  1.00001E+00 -1.49436E-01
    9028.073     34.996   3.280  8.59602E-01  9.99480E-01 -1.39878E-01
    9029.078     36.002   3.320  8.70398E-01  9.98913E-01 -1.28515E-01
    9030.096     37.020   3.360  8.82281E-01  9.98327E-01 -1.16046E-01
    9031.127     38.050   3.400  8.94493E-01  9.97685E-01 -1.03192E-01
    9032.169     39.092   3.440  9.06577E-01  9.97052E-01 -9.04745E-02
    9033.224     40.147   3.480  9.18308E-01  9.96391E-01 -7.80834E-02
    9034.290     41.214   3.520  9.29755E-01  9.95727E-01 -6.59723E-02
    9035.369     42.293   3.560  9.40894E-01  9.95059E-01 -5.41645E-02
    9036.461     43.384   3.600  9.51382E-01  9.94390E-01 -4.30079E-02
    9037.564     44.487   3.640  9.61023E-01  9.93723E-01 -3.26999E-02
    9038.680     45.603   3.680  9.69664E-01  9.93061E-01 -2.33969E-02
    9039.807     46.731   3.720  9.77285E-01  9.92428E-01 -1.51433E-02
    9040.947     47.871   3.760  9.83984E-01  9.91825E-01 -7.84104E-03
    9042.099     49.023   3.800  9.89916E-01  9.91233E-01 -1.31771E-03
    9043.264     50.187   3.840  9.95186E-01  9.90675E-01  4.51094E-03
    9044.440     51.364   3.880  9.99805E-01  9.90151E-01  9.65432E-03
    9045.629     52.552   3.920  1.00376E+00  9.89641E-01  1.41219E-02
    9046.830     53.753   3.960  1.00709E+00  9.89187E-01  1.79011E-02
    9048.043     54.966   4.000  1.00967E+00  9.88749E-01  2.09217E-02
    9049.268     56.192   4.040  1.01156E+00  9.88347E-01  2.32125E-02
    9050.506     57.429   4.080  1.01292E+00  9.87984E-01  2.49361E-02
    9051.755     58.679   4.120  1.01413E+00  9.87659E-01  2.64741E-02
    9053.017     59.941   4.160  1.01579E+00  9.87373E-01  2.84157E-02
    9054.291     61.215   4.200  1.01845E+00  9.87125E-01  3.13286E-02
    9055.578     62.501   4.240  1.02237E+00  9.86917E-01  3.54519E-02
    9056.876     63.799   4.280  1.02736E+00  9.86747E-01  4.06101E-02
    9058.187     65.110   4.320  1.03295E+00  9.86618E-01  4.63368E-02
    9059.510     66.433   4.360  1.03848E+00  9.86525E-01  5.19554E-02
    9060.845     67.768   4.400  1.04320E+00  9.86471E-01  5.67289E-02
    9062.192     69.115   4.440  1.04647E+00  9.86454E-01  6.00207E-02
    9063.551     70.474   4.480  1.04784E+00  9.86451E-01  6.13909E-02
    9064.923     71.846   4.520  1.04724E+00  9.86506E-01  6.07329E-02
    9066.307     73.230   4.560  1.04494E+00  9.86575E-01  5.83655E-02
    9067.703     74.626   4.600  1.04163E+00  9.86677E-01  5.49486E-02
    9069.111     76.034   4.640  1.03796E+00  9.86793E-01  5.11720E-02
    9070.531     77.454   4.680  1.03449E+00  9.86962E-01  4.75274E-02
    9071.964     78.887   4.720  1.03134E+00  9.87142E-01  4.42015E-02
    9073.408     80.332   4.760  1.02843E+00  9.87331E-01  4.11007E-02
    9074.865     81.789   4.800  1.02552E+00  9.87549E-01  3.79711E-02
    9076.334     83.258   4.840  1.02229E+00  9.87775E-01  3.45115E-02
    9077.816     84.739   4.880  1.01845E+00  9.88030E-01  3.04231E-02
    9079.309     86.233   4.920  1.01382E+00  9.88290E-01  2.55289E-02
    9080.815     87.738   4.960  1.00842E+00  9.88576E-01  1.98428E-02
    9082.333     89.256   5.000  1.00246E+00  9.88845E-01  1.36172E-02
    9083.863     90.786   5.040  9.96373E-01  9.89136E-01  7.23692E-03
    9085.405     92.329   5.080  9.90391E-01  9.89426E-01  9.64786E-04
    9086.960     93.883   5.120  9.84507E-01  9.89694E-01 -5.18746E-03
    9088.526     95.450   5.160  9.78612E-01  9.89983E-01 -1.13711E-02
    9090.105     97.029   5.200  9.72584E-01  9.90268E-01 -1.76840E-02
    9091.696     98.620   5.240  9.66461E-01  9.90529E-01 -2.40680E-02
    9093.300    100.223   5.280  9.60507E-01  9.90784E-01 -3.02776E-02
    9094.915    101.838   5.320  9.55142E-01  9.91034E-01 -3.58921E-02
    9096.543    103.466   5.360  9.50863E-01  9.91279E-01 -4.04155E-02
    9098.182    105.106   5.400  9.48031E-01  9.91494E-01 -4.34631E-02
    9099.834    106.758   5.440  9.46762E-01  9.91700E-01 -4.49372E-02
    9101.499    108.422   5.480  9.46844E-01  9.91874E-01 -4.50305E-02
    9103.175    110.098   5.520  9.47919E-01  9.92040E-01 -4.41209E-02
    9104.864    111.787   5.560  9.49526E-01  9.92173E-01 -4.26476E-02
    9106.564    113.488   5.600  9.51301E-01  9.92295E-01 -4.09935E-02
    9108.277    115.201   5.640  9.52974E-01  9.92383E-01 -3.94085E-02
    9110.002    116.926   5.680  9.54471E-01  9.92436E-01 -3.79651E-02
    9111.740    118.663   5.720  9.55914E-01  9.92478E-01 -3.65635E-02
    9113.489    120.413   5.760  9.57495E-01  9.92484E-01 -3.49884E-02
    9115.251    122.174   5.800  9.59417E-01  9.92453E-01 -3.30354E-02
    9117.025    123.948   5.840  9.61783E-01  9.92387E-01 -3.06040E-02
    9118.811    125.734   5.880  9.64592E-01  9.92311E-01 -2.77189E-02
    9120.609    127.533   5.920  9.67703E-01  9.92200E-01 -2.44976E-02
    9122.420    129.343   5.960  9.70984E-01  9.92052E-01 -2.10683E-02
    9124.243    131.166   6.000  9.74489E-01  9.91847E-01 -1.73584E-02
