# # comment:                                                     FEFF 9.9.1  
# # Source:
# # Structure
# # Reduced
# # space
# # abc:
# # angles:
# # sites:
# # POT  SCF 100  7.0000   0, screened core-hole, AFOLP (folp(0)= 1.150)
# # Abs   Z=29 Rmt= 1.222 Rnm= 1.298 K  shell
# # Pot 1 Z= 3 Rmt= 1.245 Rnm= 1.298
# # Pot 2 Z=25 Rmt= 1.224 Rnm= 1.343
# # Pot 3 Z=29 Rmt= 1.221 Rnm= 1.297
# # Pot 4 Z= 8 Rmt= 1.037 Rnm= 1.103
# # Gam_ch=1.729E+00 H-L exch Vi= 0.000E+00 Vr= 0.000E+00
# # Mu=-1.021E+01eV kf=2.117E+00 Vint=-1.803E+01eV Rs_int= 1.713
# FMS rfms= 9.0000
# # PATH  Rmax=-1.000,  Keep_limit= 0.00, Heap_limit 0.00  Pwcrit= 2.50%
#  S02=0.950  Temp=   0.00  Debye_temp=   0.00  Global_sig2= 0.00000
#  Energy zero shift, vr, vi    0.00000E+00   0.00000E+00
#  Curved wave amplitude ratio filter   4.000%
#     file         sig2 tot  cw amp ratio   deg  nlegs   reff  inp sig2
#     0/   0 paths used
#  xsedge+ 50, used to normalize mu           2.4753E-04
#  -----------------------------------------------------------------------
#  omega    e    k    mu    mu0     chi     @#
    8984.656    -14.021  -1.000  3.15121E-02  4.95774E-02 -1.80653E-02
    8984.954    -13.722  -0.960  3.28865E-02  5.30505E-02 -2.01641E-02
    8985.241    -13.436  -0.920  3.43455E-02  5.68991E-02 -2.25536E-02
    8985.515    -13.161  -0.880  3.58986E-02  6.11774E-02 -2.52787E-02
    8985.777    -12.899  -0.840  3.75570E-02  6.59484E-02 -2.83915E-02
    8986.027    -12.649  -0.800  3.93338E-02  7.12854E-02 -3.19516E-02
    8986.265    -12.412  -0.760  4.12446E-02  7.72719E-02 -3.60274E-02
    8986.491    -12.186  -0.720  4.33074E-02  8.40024E-02 -4.06950E-02
    8986.704    -11.973  -0.680  4.55428E-02  9.15807E-02 -4.60379E-02
    8986.905    -11.771  -0.640  4.79724E-02  1.00116E-01 -5.21437E-02
    8987.094    -11.582  -0.600  5.06179E-02  1.09716E-01 -5.90979E-02
    8987.271    -11.406  -0.560  5.34969E-02  1.20471E-01 -6.69739E-02
    8987.435    -11.241  -0.520  5.66177E-02  1.32435E-01 -7.58168E-02
    8987.588    -11.089  -0.480  5.99712E-02  1.45593E-01 -8.56219E-02
    8987.728    -10.948  -0.440  6.35221E-02  1.59832E-01 -9.63097E-02
    8987.856    -10.820  -0.400  6.72018E-02  1.74905E-01 -1.07703E-01
    8987.972    -10.705  -0.360  7.09081E-02  1.90428E-01 -1.19520E-01
    8988.075    -10.601  -0.320  7.45148E-02  2.05903E-01 -1.31388E-01
    8988.167    -10.510  -0.280  7.78906E-02  2.20773E-01 -1.42882E-01
    8988.246    -10.430  -0.240  8.09212E-02  2.34503E-01 -1.53582E-01
    8988.313    -10.363  -0.200  8.35251E-02  2.46644E-01 -1.63119E-01
    8988.368    -10.308  -0.160  8.56579E-02  2.56864E-01 -1.71206E-01
    8988.411    -10.266  -0.120  8.73054E-02  2.64948E-01 -1.77643E-01
    8988.441    -10.235  -0.080  8.84702E-02  2.70776E-01 -1.82306E-01
    8988.466    -10.211   0.000  8.93863E-02  2.75461E-01 -1.86075E-01
    8988.520    -10.156   0.120  9.14083E-02  2.86025E-01 -1.94617E-01
    8988.563    -10.113   0.160  9.29346E-02  2.94255E-01 -2.01320E-01
    8988.618    -10.058   0.200  9.47976E-02  3.04773E-01 -2.09975E-01
    8988.685     -9.991   0.240  9.69271E-02  3.17468E-01 -2.20541E-01
    8988.764     -9.912   0.280  9.91749E-02  3.32068E-01 -2.32894E-01
    8988.856     -9.821   0.320  1.01417E-01  3.48246E-01 -2.46830E-01
    8988.959     -9.717   0.360  1.03465E-01  3.65550E-01 -2.62085E-01
    8989.075     -9.601   0.400  1.05268E-01  3.83539E-01 -2.78271E-01
    8989.203     -9.473   0.440  1.06824E-01  4.01771E-01 -2.94947E-01
    8989.343     -9.333   0.480  1.08280E-01  4.19918E-01 -3.11638E-01
    8989.496     -9.181   0.520  1.09971E-01  4.37753E-01 -3.27782E-01
    8989.660     -9.016   0.560  1.12260E-01  4.55182E-01 -3.42922E-01
    8989.837     -8.839   0.600  1.15527E-01  4.72174E-01 -3.56648E-01
    8990.026     -8.650   0.640  1.20068E-01  4.88779E-01 -3.68711E-01
    8990.227     -8.449   0.680  1.25926E-01  5.05051E-01 -3.79125E-01
    8990.441     -8.236   0.720  1.32829E-01  5.21079E-01 -3.88250E-01
    8990.666     -8.010   0.760  1.40176E-01  5.36927E-01 -3.96751E-01
    8990.904     -7.772   0.800  1.47652E-01  5.52632E-01 -4.04980E-01
    8991.154     -7.523   0.840  1.55888E-01  5.68280E-01 -4.12392E-01
    8991.416     -7.260   0.880  1.66389E-01  5.83886E-01 -4.17497E-01
    8991.690     -6.986   0.920  1.81205E-01  5.99471E-01 -4.18266E-01
    8991.977     -6.700   0.960  2.02623E-01  6.15066E-01 -4.12442E-01
    8992.276     -6.401   1.000  2.33301E-01  6.30636E-01 -3.97335E-01
    8992.586     -6.090   1.040  2.76477E-01  6.46217E-01 -3.69740E-01
    8992.910     -5.767   1.080  3.35014E-01  6.61756E-01 -3.26742E-01
    8993.245     -5.432   1.120  4.08341E-01  6.77276E-01 -2.68934E-01
    8993.592     -5.084   1.160  4.85892E-01  6.92715E-01 -2.06824E-01
    8993.952     -4.725   1.200  5.49439E-01  7.08050E-01 -1.58612E-01
    8994.324     -4.353   1.240  5.92655E-01  7.23271E-01 -1.30615E-01
    8994.708     -3.969   1.280  6.25187E-01  7.38309E-01 -1.13122E-01
    8995.104     -3.572   1.320  6.55200E-01  7.53172E-01 -9.79724E-02
    8995.513     -3.164   1.360  6.75981E-01  7.67808E-01 -9.18268E-02
    8995.933     -2.743   1.400  6.73343E-01  7.82182E-01 -1.08839E-01
    8996.366     -2.310   1.440  6.52444E-01  7.96241E-01 -1.43797E-01
    8996.811     -1.865   1.480  6.36150E-01  8.09973E-01 -1.73823E-01
    8997.268     -1.408   1.520  6.39213E-01  8.23344E-01 -1.84131E-01
    8997.738     -0.939   1.560  6.60819E-01  8.36341E-01 -1.75522E-01
    8998.219     -0.457   1.600  6.96302E-01  8.48914E-01 -1.52612E-01
    8998.713      0.036   1.640  7.49039E-01  8.61031E-01 -1.11993E-01
    8999.219      0.542   1.680  8.22396E-01  8.72705E-01 -5.03093E-02
    8999.737      1.061   1.720  9.14873E-01  8.83887E-01  3.09861E-02
    9000.267      1.591   1.760  1.01912E+00  8.94589E-01  1.24529E-01
    9000.810      2.133   1.800  1.12263E+00  9.04789E-01  2.17838E-01
    9001.365      2.688   1.840  1.22378E+00  9.14463E-01  3.09317E-01
    9001.932      3.255   1.880  1.32380E+00  9.23625E-01  4.00172E-01
    9002.511      3.834   1.920  1.40870E+00  9.32258E-01  4.76444E-01
    9003.102      4.426   1.960  1.46122E+00  9.40361E-01  5.20854E-01
    9003.706      5.029   2.000  1.48316E+00  9.47956E-01  5.35209E-01
    9004.321      5.645   2.040  1.48719E+00  9.55026E-01  5.32163E-01
    9004.949      6.273   2.080  1.48238E+00  9.61596E-01  5.20783E-01
    9005.589      6.913   2.120  1.46316E+00  9.67671E-01  4.95491E-01
    9006.241      7.565   2.160  1.40709E+00  9.73255E-01  4.33830E-01
    9006.906      8.229   2.200  1.30125E+00  9.78359E-01  3.22887E-01
    9007.583      8.906   2.240  1.16961E+00  9.83007E-01  1.86604E-01
    9008.271      9.595   2.280  1.04832E+00  9.87228E-01  6.10879E-02
    9008.972     10.296   2.320  9.55472E-01  9.91012E-01 -3.55401E-02
    9009.686     11.009   2.360  8.90959E-01  9.94388E-01 -1.03429E-01
    9010.411     11.735   2.400  8.49696E-01  9.97365E-01 -1.47669E-01
    9011.149     12.472   2.440  8.27038E-01  9.99992E-01 -1.72954E-01
    9011.899     13.222   2.480  8.21488E-01  1.00226E+00 -1.80773E-01
    9012.661     13.984   2.520  8.37185E-01  1.00420E+00 -1.67015E-01
    9013.435     14.758   2.560  8.74903E-01  1.00582E+00 -1.30918E-01
    9014.221     15.545   2.600  9.15919E-01  1.00715E+00 -9.12331E-02
    9015.020     16.343   2.640  9.54340E-01  1.00823E+00 -5.38852E-02
    9015.830     17.154   2.680  9.88058E-01  1.00903E+00 -2.09712E-02
    9016.653     17.977   2.720  1.01683E+00  1.00962E+00  7.21424E-03
    9017.489     18.812   2.760  1.04049E+00  1.00999E+00  3.04940E-02
    9018.336     19.659   2.800  1.05860E+00  1.01015E+00  4.84528E-02
    9019.195     20.519   2.840  1.07100E+00  1.01015E+00  6.08498E-02
    9020.067     21.391   2.880  1.07801E+00  1.00997E+00  6.80361E-02
    9020.951     22.275   2.920  1.07900E+00  1.00966E+00  6.93446E-02
    9021.847     23.171   2.960  1.07243E+00  1.00922E+00  6.32104E-02
    9022.755     24.079   3.000  1.05701E+00  1.00866E+00  4.83577E-02
    9023.676     24.999   3.040  1.03302E+00  1.00801E+00  2.50138E-02
    9024.609     25.932   3.080  1.00255E+00  1.00727E+00 -4.72093E-03
    9025.554     26.877   3.120  9.69356E-01  1.00644E+00 -3.70815E-02
    9026.511     27.834   3.160  9.37311E-01  1.00557E+00 -6.82611E-02
    9027.480     28.803   3.200  9.09348E-01  1.00464E+00 -9.52910E-02
    9028.461     29.785   3.240  8.87624E-01  1.00366E+00 -1.16040E-01
    9029.455     30.778   3.280  8.73095E-01  1.00267E+00 -1.29579E-01
    9030.461     31.784   3.320  8.65617E-01  1.00165E+00 -1.36036E-01
    9031.479     32.802   3.360  8.64323E-01  1.00062E+00 -1.36301E-01
    9032.509     33.833   3.400  8.67830E-01  9.99571E-01 -1.31741E-01
    9033.551     34.875   3.440  8.74293E-01  9.98542E-01 -1.24249E-01
    9034.606     35.930   3.480  8.82454E-01  9.97539E-01 -1.15084E-01
    9035.673     36.996   3.520  8.91585E-01  9.96542E-01 -1.04957E-01
    9036.752     38.075   3.560  9.01361E-01  9.95556E-01 -9.41940E-02
    9037.843     39.167   3.600  9.11671E-01  9.94603E-01 -8.29310E-02
    9038.946     40.270   3.640  9.22424E-01  9.93686E-01 -7.12614E-02
    9040.062     41.385   3.680  9.33465E-01  9.92806E-01 -5.93411E-02
    9041.190     42.513   3.720  9.44598E-01  9.91966E-01 -4.73687E-02
    9042.330     43.653   3.760  9.55744E-01  9.91168E-01 -3.54241E-02
    9043.482     44.805   3.800  9.66998E-01  9.90412E-01 -2.34138E-02
    9044.646     45.970   3.840  9.78622E-01  9.89722E-01 -1.10998E-02
    9045.823     47.146   3.880  9.90927E-01  9.89077E-01  1.85059E-03
    9047.011     48.335   3.920  1.00408E+00  9.88475E-01  1.56021E-02
    9048.212     49.536   3.960  1.01778E+00  9.87920E-01  2.98603E-02
    9049.425     50.749   4.000  1.03132E+00  9.87433E-01  4.38903E-02
    9050.651     51.974   4.040  1.04377E+00  9.87014E-01  5.67604E-02
    9051.888     53.212   4.080  1.05414E+00  9.86620E-01  6.75186E-02
    9053.138     54.461   4.120  1.06156E+00  9.86295E-01  7.52666E-02
    9054.400     55.723   4.160  1.06548E+00  9.86038E-01  7.94416E-02
    9055.674     56.997   4.200  1.06583E+00  9.85827E-01  8.00020E-02
    9056.960     58.283   4.240  1.06321E+00  9.85660E-01  7.75522E-02
    9058.258     59.582   4.280  1.05865E+00  9.85539E-01  7.31137E-02
    9059.569     60.893   4.320  1.05308E+00  9.85483E-01  6.75994E-02
    9060.892     62.215   4.360  1.04696E+00  9.85471E-01  6.14921E-02
    9062.227     63.550   4.400  1.04043E+00  9.85502E-01  5.49300E-02
    9063.574     64.898   4.440  1.03366E+00  9.85575E-01  4.80872E-02
    9064.934     66.257   4.480  1.02693E+00  9.85711E-01  4.12163E-02
    9066.305     67.629   4.520  1.02051E+00  9.85865E-01  3.46427E-02
    9067.689     69.012   4.560  1.01472E+00  9.86057E-01  2.86610E-02
    9069.085     70.408   4.600  1.00978E+00  9.86308E-01  2.34732E-02
    9070.493     71.817   4.640  1.00582E+00  9.86574E-01  1.92464E-02
    9071.913     73.237   4.680  1.00309E+00  9.86853E-01  1.62331E-02
    9073.346     74.669   4.720  1.00196E+00  9.87186E-01  1.47780E-02
    9074.791     76.114   4.760  1.00272E+00  9.87530E-01  1.51913E-02
    9076.248     77.571   4.800  1.00541E+00  9.87882E-01  1.75319E-02
    9077.717     79.040   4.840  1.00964E+00  9.88265E-01  2.13778E-02
    9079.198     80.522   4.880  1.01447E+00  9.88677E-01  2.57950E-02
    9080.692     82.015   4.920  1.01868E+00  9.89093E-01  2.95853E-02
    9082.197     83.521   4.960  1.02108E+00  9.89491E-01  3.15897E-02
    9083.715     85.039   5.000  1.02093E+00  9.89934E-01  3.09964E-02
    9085.245     86.569   5.040  1.01794E+00  9.90356E-01  2.75862E-02
    9086.788     88.111   5.080  1.01253E+00  9.90777E-01  2.17566E-02
    9088.342     89.666   5.120  1.00548E+00  9.91194E-01  1.42886E-02
    9089.909     91.232   5.160  9.97495E-01  9.91607E-01  5.88792E-03
    9091.488     92.811   5.200  9.88882E-01  9.91995E-01 -3.11251E-03
    9093.079     94.402   5.240  9.79668E-01  9.92398E-01 -1.27299E-02
    9094.682     96.005   5.280  9.69750E-01  9.92772E-01 -2.30220E-02
    9096.297     97.621   5.320  9.59365E-01  9.93114E-01 -3.37497E-02
    9097.925     99.248   5.360  9.49161E-01  9.93448E-01 -4.42868E-02
    9099.565    100.888   5.400  9.39933E-01  9.93770E-01 -5.38374E-02
    9101.217    102.540   5.440  9.32352E-01  9.94038E-01 -6.16857E-02
    9102.881    104.204   5.480  9.26950E-01  9.94315E-01 -6.73644E-02
    9104.557    105.881   5.520  9.23879E-01  9.94535E-01 -7.06555E-02
    9106.246    107.569   5.560  9.23175E-01  9.94741E-01 -7.15667E-02
    9107.947    109.270   5.600  9.24620E-01  9.94912E-01 -7.02915E-02
    9109.660    110.983   5.640  9.27835E-01  9.95045E-01 -6.72099E-02
    9111.385    112.708   5.680  9.32382E-01  9.95163E-01 -6.27810E-02
    9113.122    114.446   5.720  9.37803E-01  9.95221E-01 -5.74178E-02
    9114.872    116.195   5.760  9.43845E-01  9.95264E-01 -5.14194E-02
    9116.633    117.957   5.800  9.50266E-01  9.95268E-01 -4.50018E-02
    9118.407    119.731   5.840  9.56905E-01  9.95208E-01 -3.83032E-02
    9120.194    121.517   5.880  9.63803E-01  9.95135E-01 -3.13318E-02
    9121.992    123.315   5.920  9.71008E-01  9.95025E-01 -2.40179E-02
    9123.802    125.126   5.960  9.78563E-01  9.94875E-01 -1.63125E-02
    9125.625    126.949   6.000  9.86713E-01  9.94664E-01 -7.95152E-03
