# # comment:                                                     FEFF 9.9.1  
# # Source:
# # Structure
# # Reduced
# # space
# # abc:
# # angles:
# # sites:
# # POT  SCF 100  7.0000   0, screened core-hole, AFOLP (folp(0)= 1.150)
# # Abs   Z=29 Rmt= 1.231 Rnm= 1.315 K  shell
# # Pot 1 Z=39 Rmt= 1.575 Rnm= 1.665
# # Pot 2 Z=29 Rmt= 1.231 Rnm= 1.315
# # Pot 3 Z= 8 Rmt= 1.063 Rnm= 1.117
# # Gam_ch=1.729E+00 H-L exch Vi= 0.000E+00 Vr= 0.000E+00
# # Mu=-7.703E+00eV kf=2.104E+00 Vint=-1.701E+01eV Rs_int= 1.724
# FMS rfms= 9.0000
# # PATH  Rmax=-1.000,  Keep_limit= 0.00, Heap_limit 0.00  Pwcrit= 2.50%
#  S02=0.950  Temp=   0.00  Debye_temp=   0.00  Global_sig2= 0.00000
#  Energy zero shift, vr, vi    0.00000E+00   0.00000E+00
#  Curved wave amplitude ratio filter   4.000%
#     file         sig2 tot  cw amp ratio   deg  nlegs   reff  inp sig2
#     0/   0 paths used
#  xsedge+ 50, used to normalize mu           2.4519E-04
#  -----------------------------------------------------------------------
#  omega    e    k    mu    mu0     chi     @#
    8984.340    -11.513  -1.000  4.33384E-02  5.69139E-02 -1.35755E-02
    8984.639    -11.214  -0.960  4.61209E-02  6.11324E-02 -1.50115E-02
    8984.925    -10.928  -0.920  4.92154E-02  6.58268E-02 -1.66114E-02
    8985.200    -10.654  -0.880  5.26742E-02  7.10675E-02 -1.83933E-02
    8985.462    -10.391  -0.840  5.65602E-02  7.69369E-02 -2.03767E-02
    8985.712    -10.141  -0.800  6.09480E-02  8.35302E-02 -2.25822E-02
    8985.949     -9.904  -0.760  6.59255E-02  9.09569E-02 -2.50314E-02
    8986.175     -9.678  -0.720  7.15946E-02  9.93406E-02 -2.77460E-02
    8986.388     -9.465  -0.680  7.80706E-02  1.08818E-01 -3.07473E-02
    8986.589     -9.264  -0.640  8.54785E-02  1.19533E-01 -3.40541E-02
    8986.778     -9.075  -0.600  9.39450E-02  1.31626E-01 -3.76813E-02
    8986.955     -8.898  -0.560  1.03584E-01  1.45220E-01 -4.16365E-02
    8987.120     -8.733  -0.520  1.14470E-01  1.60387E-01 -4.59163E-02
    8987.272     -8.581  -0.480  1.26609E-01  1.77110E-01 -5.05013E-02
    8987.412     -8.441  -0.440  1.39893E-01  1.95244E-01 -5.53515E-02
    8987.540     -8.313  -0.400  1.54069E-01  2.14472E-01 -6.04021E-02
    8987.656     -8.197  -0.360  1.68730E-01  2.34293E-01 -6.55628E-02
    8987.760     -8.093  -0.320  1.83341E-01  2.54061E-01 -7.07207E-02
    8987.851     -8.002  -0.280  1.97309E-01  2.73056E-01 -7.57475E-02
    8987.930     -7.923  -0.240  2.10081E-01  2.90587E-01 -8.05061E-02
    8987.998     -7.856  -0.200  2.21218E-01  3.06075E-01 -8.48571E-02
    8988.052     -7.801  -0.160  2.30437E-01  3.19100E-01 -8.86632E-02
    8988.095     -7.758  -0.120  2.37597E-01  3.29392E-01 -9.17955E-02
    8988.126     -7.727  -0.080  2.42662E-01  3.36804E-01 -9.41421E-02
    8988.150     -7.703   0.000  2.46627E-01  3.42757E-01 -9.61298E-02
    8988.205     -7.648   0.120  2.55390E-01  3.56192E-01 -1.00803E-01
    8988.247     -7.606   0.160  2.62061E-01  3.66615E-01 -1.04554E-01
    8988.302     -7.551   0.200  2.70278E-01  3.79903E-01 -1.09625E-01
    8988.369     -7.484   0.240  2.79625E-01  3.95890E-01 -1.16264E-01
    8988.449     -7.404   0.280  2.89474E-01  4.14246E-01 -1.24772E-01
    8988.540     -7.313   0.320  2.98897E-01  4.34453E-01 -1.35555E-01
    8988.644     -7.209   0.360  3.06848E-01  4.55915E-01 -1.49067E-01
    8988.760     -7.094   0.400  3.12272E-01  4.78022E-01 -1.65750E-01
    8988.888     -6.965   0.440  3.14203E-01  5.00157E-01 -1.85954E-01
    8989.028     -6.825   0.480  3.12203E-01  5.21874E-01 -2.09671E-01
    8989.180     -6.673   0.520  3.06553E-01  5.42868E-01 -2.36314E-01
    8989.345     -6.508   0.560  2.98448E-01  5.63007E-01 -2.64559E-01
    8989.522     -6.332   0.600  2.89900E-01  5.82278E-01 -2.92377E-01
    8989.711     -6.143   0.640  2.83153E-01  6.00681E-01 -3.17528E-01
    8989.912     -5.941   0.680  2.80023E-01  6.18339E-01 -3.38317E-01
    8990.125     -5.728   0.720  2.81097E-01  6.35351E-01 -3.54254E-01
    8990.351     -5.502   0.760  2.85494E-01  6.51792E-01 -3.66297E-01
    8990.588     -5.265   0.800  2.91217E-01  6.67769E-01 -3.76551E-01
    8990.838     -5.015   0.840  2.96311E-01  6.83355E-01 -3.87044E-01
    8991.100     -4.753   0.880  3.00197E-01  6.98586E-01 -3.98388E-01
    8991.375     -4.478   0.920  3.03852E-01  7.13524E-01 -4.09672E-01
    8991.661     -4.192   0.960  3.09001E-01  7.28201E-01 -4.19200E-01
    8991.960     -3.893   1.000  3.17759E-01  7.42614E-01 -4.24855E-01
    8992.271     -3.582   1.040  3.33011E-01  7.56772E-01 -4.23761E-01
    8992.594     -3.259   1.080  3.57824E-01  7.70674E-01 -4.12850E-01
    8992.929     -2.924   1.120  3.92590E-01  7.84336E-01 -3.91747E-01
    8993.277     -2.576   1.160  4.31779E-01  7.97707E-01 -3.65928E-01
    8993.636     -2.217   1.200  4.66497E-01  8.10811E-01 -3.44314E-01
    8994.008     -1.845   1.240  4.92700E-01  8.23589E-01 -3.30889E-01
    8994.392     -1.461   1.280  5.13281E-01  8.36039E-01 -3.22758E-01
    8994.788     -1.065   1.320  5.33123E-01  8.48159E-01 -3.15037E-01
    8995.197     -0.656   1.360  5.57438E-01  8.59906E-01 -3.02468E-01
    8995.618     -0.236   1.400  5.92574E-01  8.71254E-01 -2.78680E-01
    8996.050      0.197   1.440  6.44450E-01  8.82199E-01 -2.37749E-01
    8996.495      0.642   1.480  7.15222E-01  8.92717E-01 -1.77495E-01
    8996.953      1.099   1.520  8.04188E-01  9.02782E-01 -9.85943E-02
    8997.422      1.569   1.560  9.08169E-01  9.12412E-01 -4.24371E-03
    8997.904      2.050   1.600  1.02271E+00  9.21586E-01  1.01128E-01
    8998.397      2.544   1.640  1.13803E+00  9.30258E-01  2.07771E-01
    8998.903      3.050   1.680  1.24289E+00  9.38471E-01  3.04417E-01
    8999.421      3.568   1.720  1.34234E+00  9.46205E-01  3.96133E-01
    8999.952      4.099   1.760  1.43929E+00  9.53458E-01  4.85836E-01
    9000.494      4.641   1.800  1.51192E+00  9.60214E-01  5.51710E-01
    9001.049      5.196   1.840  1.57139E+00  9.66519E-01  6.04874E-01
    9001.616      5.763   1.880  1.63535E+00  9.72334E-01  6.63012E-01
    9002.195      6.342   1.920  1.65075E+00  9.77706E-01  6.73048E-01
    9002.786      6.933   1.960  1.57143E+00  9.82621E-01  5.88812E-01
    9003.390      7.537   2.000  1.44012E+00  9.87106E-01  4.53012E-01
    9004.006      8.153   2.040  1.33065E+00  9.91169E-01  3.39485E-01
    9004.633      8.780   2.080  1.26926E+00  9.94796E-01  2.74461E-01
    9005.274      9.420   2.120  1.22252E+00  9.98058E-01  2.24465E-01
    9005.926     10.073   2.160  1.16241E+00  1.00094E+00  1.61470E-01
    9006.590     10.737   2.200  1.09526E+00  1.00346E+00  9.17986E-02
    9007.267     11.414   2.240  1.03321E+00  1.00564E+00  2.75686E-02
    9007.956     12.103   2.280  9.88189E-01  1.00749E+00 -1.93050E-02
    9008.657     12.804   2.320  9.67921E-01  1.00905E+00 -4.11280E-02
    9009.370     13.517   2.360  9.70649E-01  1.01034E+00 -3.96892E-02
    9010.095     14.242   2.400  9.88067E-01  1.01135E+00 -2.32814E-02
    9010.833     14.980   2.440  1.00761E+00  1.01211E+00 -4.50169E-03
    9011.583     15.730   2.480  1.02127E+00  1.01266E+00  8.61671E-03
    9012.345     16.492   2.520  1.02943E+00  1.01299E+00  1.64345E-02
    9013.119     17.266   2.560  1.02744E+00  1.01313E+00  1.43046E-02
    9013.905     18.052   2.600  1.01798E+00  1.01312E+00  4.86122E-03
    9014.704     18.851   2.640  1.00600E+00  1.01293E+00 -6.92183E-03
    9015.515     19.662   2.680  9.93180E-01  1.01262E+00 -1.94397E-02
    9016.338     20.485   2.720  9.80296E-01  1.01217E+00 -3.18725E-02
    9017.173     21.320   2.760  9.68118E-01  1.01162E+00 -4.35033E-02
    9018.020     22.167   2.800  9.57198E-01  1.01098E+00 -5.37873E-02
    9018.880     23.027   2.840  9.47706E-01  1.01025E+00 -6.25397E-02
    9019.751     23.898   2.880  9.39519E-01  1.00947E+00 -6.99524E-02
    9020.635     24.782   2.920  9.31697E-01  1.00863E+00 -7.69310E-02
    9021.532     25.678   2.960  9.23894E-01  1.00774E+00 -8.38460E-02
    9022.440     26.587   3.000  9.16177E-01  1.00681E+00 -9.06371E-02
    9023.360     27.507   3.040  9.08883E-01  1.00587E+00 -9.69914E-02
    9024.293     28.440   3.080  9.02179E-01  1.00491E+00 -1.02729E-01
    9025.238     29.385   3.120  8.95992E-01  1.00396E+00 -1.07968E-01
    9026.195     30.342   3.160  8.90292E-01  1.00301E+00 -1.12722E-01
    9027.164     31.311   3.200  8.85464E-01  1.00207E+00 -1.16607E-01
    9028.146     32.293   3.240  8.82342E-01  1.00114E+00 -1.18795E-01
    9029.139     33.286   3.280  8.81693E-01  1.00026E+00 -1.18563E-01
    9030.145     34.292   3.320  8.84189E-01  9.99389E-01 -1.15200E-01
    9031.163     35.310   3.360  8.90408E-01  9.98558E-01 -1.08150E-01
    9032.193     36.340   3.400  9.00464E-01  9.97767E-01 -9.73036E-02
    9033.236     37.383   3.440  9.13726E-01  9.97019E-01 -8.32926E-02
    9034.290     38.437   3.480  9.29576E-01  9.96334E-01 -6.67585E-02
    9035.357     39.504   3.520  9.47464E-01  9.95673E-01 -4.82087E-02
    9036.436     40.583   3.560  9.66243E-01  9.95079E-01 -2.88355E-02
    9037.527     41.674   3.600  9.83720E-01  9.94554E-01 -1.08339E-02
    9038.631     42.778   3.640  9.96779E-01  9.94078E-01  2.70131E-03
    9039.746     43.893   3.680  1.00280E+00  9.93650E-01  9.14993E-03
    9040.874     45.021   3.720  1.00141E+00  9.93292E-01  8.11404E-03
    9042.014     46.161   3.760  9.94762E-01  9.93006E-01  1.75658E-03
    9043.166     47.313   3.800  9.86088E-01  9.92767E-01 -6.67960E-03
    9044.330     48.477   3.840  9.78555E-01  9.92578E-01 -1.40229E-02
    9045.507     49.654   3.880  9.74738E-01  9.92459E-01 -1.77209E-02
    9046.696     50.843   3.920  9.76289E-01  9.92410E-01 -1.61208E-02
    9047.897     52.044   3.960  9.83888E-01  9.92388E-01 -8.49960E-03
    9049.110     53.257   4.000  9.97227E-01  9.92455E-01  4.77245E-03
    9050.335     54.482   4.040  1.01481E+00  9.92549E-01  2.22601E-02
    9051.572     55.719   4.080  1.03461E+00  9.92710E-01  4.19007E-02
    9052.822     56.969   4.120  1.05474E+00  9.92936E-01  6.18012E-02
    9054.084     58.231   4.160  1.07406E+00  9.93186E-01  8.08706E-02
    9055.358     59.505   4.200  1.09157E+00  9.93498E-01  9.80715E-02
    9056.644     60.791   4.240  1.10541E+00  9.93830E-01  1.11579E-01
    9057.943     62.090   4.280  1.11335E+00  9.94222E-01  1.19130E-01
    9059.253     63.400   4.320  1.11393E+00  9.94632E-01  1.19294E-01
    9060.576     64.723   4.360  1.10740E+00  9.95100E-01  1.12301E-01
    9061.911     66.058   4.400  1.09550E+00  9.95581E-01  9.99191E-02
    9063.258     67.405   4.440  1.08076E+00  9.96095E-01  8.46607E-02
    9064.618     68.765   4.480  1.06556E+00  9.96620E-01  6.89409E-02
    9065.989     70.136   4.520  1.05198E+00  9.97174E-01  5.48076E-02
    9067.373     71.520   4.560  1.04136E+00  9.97736E-01  4.36257E-02
    9068.769     72.916   4.600  1.03413E+00  9.98326E-01  3.58049E-02
    9070.177     74.324   4.640  1.02957E+00  9.98920E-01  3.06515E-02
    9071.598     75.745   4.680  1.02602E+00  9.99514E-01  2.65064E-02
    9073.030     77.177   4.720  1.02151E+00  1.00011E+00  2.13971E-02
    9074.475     78.622   4.760  1.01464E+00  1.00070E+00  1.39357E-02
    9075.932     80.079   4.800  1.00516E+00  1.00129E+00  3.86126E-03
    9077.401     81.548   4.840  9.93811E-01  1.00188E+00 -8.06876E-03
    9078.882     83.029   4.880  9.81903E-01  1.00244E+00 -2.05331E-02
    9080.376     84.523   4.920  9.70938E-01  1.00299E+00 -3.20490E-02
    9081.882     86.029   4.960  9.62313E-01  1.00353E+00 -4.12155E-02
    9083.400     87.546   5.000  9.57029E-01  1.00404E+00 -4.70096E-02
    9084.930     89.077   5.040  9.55516E-01  1.00454E+00 -4.90210E-02
    9086.472     90.619   5.080  9.57394E-01  1.00500E+00 -4.76060E-02
    9088.026     92.173   5.120  9.61763E-01  1.00542E+00 -4.36614E-02
    9089.593     93.740   5.160  9.67550E-01  1.00581E+00 -3.82618E-02
    9091.172     95.319   5.200  9.73777E-01  1.00618E+00 -3.24061E-02
    9092.763     96.910   5.240  9.79374E-01  1.00649E+00 -2.71185E-02
    9094.366     98.513   5.280  9.83307E-01  1.00678E+00 -2.34775E-02
    9095.982    100.129   5.320  9.84638E-01  1.00704E+00 -2.23977E-02
    9097.609    101.756   5.360  9.83037E-01  1.00722E+00 -2.41853E-02
    9099.249    103.396   5.400  9.79040E-01  1.00739E+00 -2.83495E-02
    9100.901    105.048   5.440  9.73791E-01  1.00751E+00 -3.37240E-02
    9102.565    106.712   5.480  9.68646E-01  1.00757E+00 -3.89280E-02
    9104.242    108.389   5.520  9.64797E-01  1.00759E+00 -4.27936E-02
    9105.930    110.077   5.560  9.63053E-01  1.00759E+00 -4.45361E-02
    9107.631    111.778   5.600  9.63763E-01  1.00752E+00 -4.37583E-02
    9109.344    113.491   5.640  9.66770E-01  1.00741E+00 -4.06406E-02
    9111.069    115.216   5.680  9.71272E-01  1.00726E+00 -3.59850E-02
    9112.807    116.953   5.720  9.76114E-01  1.00706E+00 -3.09498E-02
    9114.556    118.703   5.760  9.80291E-01  1.00683E+00 -2.65383E-02
    9116.318    120.465   5.800  9.83298E-01  1.00656E+00 -2.32578E-02
    9118.092    122.239   5.840  9.85302E-01  1.00624E+00 -2.09424E-02
    9119.878    124.025   5.880  9.86921E-01  1.00589E+00 -1.89740E-02
    9121.676    125.823   5.920  9.88811E-01  1.00551E+00 -1.66992E-02
    9123.487    127.634   5.960  9.91457E-01  1.00509E+00 -1.36314E-02
    9125.309    129.456   6.000  9.95234E-01  1.00460E+00 -9.36831E-03
