# # comment:                                                     FEFF 9.9.1  
# # Source:
# # Structure
# # Reduced
# # space
# # abc:
# # angles:
# # sites:
# # POT  SCF 100  7.0000   0, screened core-hole, AFOLP (folp(0)= 1.150)
# # Abs   Z=29 Rmt= 1.182 Rnm= 1.273 K  shell
# # Pot 1 Z=38 Rmt= 1.773 Rnm= 1.846
# # Pot 2 Z=29 Rmt= 1.185 Rnm= 1.275
# # Pot 3 Z=83 Rmt= 1.488 Rnm= 1.657
# # Pot 4 Z= 8 Rmt= 1.056 Rnm= 1.106
# # Gam_ch=1.729E+00 H-L exch Vi= 0.000E+00 Vr= 0.000E+00
# # Mu=-7.925E+00eV kf=1.962E+00 Vint=-1.722E+01eV Rs_int= 1.848
# FMS rfms= 9.0000
# # PATH  Rmax=-1.000,  Keep_limit= 0.00, Heap_limit 0.00  Pwcrit= 2.50%
#  S02=0.950  Temp=   0.00  Debye_temp=   0.00  Global_sig2= 0.00000
#  Energy zero shift, vr, vi    0.00000E+00   0.00000E+00
#  Curved wave amplitude ratio filter   4.000%
#     file         sig2 tot  cw amp ratio   deg  nlegs   reff  inp sig2
#     0/   0 paths used
#  xsedge+ 50, used to normalize mu           2.4300E-04
#  -----------------------------------------------------------------------
#  omega    e    k    mu    mu0     chi     @#
    8985.186    -11.735  -1.000  4.30958E-02  6.11665E-02 -1.80707E-02
    8985.485    -11.437  -0.960  4.54901E-02  6.58034E-02 -2.03133E-02
    8985.771    -11.150  -0.920  4.80798E-02  7.09708E-02 -2.28910E-02
    8986.046    -10.876  -0.880  5.08883E-02  7.67480E-02 -2.58597E-02
    8986.308    -10.614  -0.840  5.39424E-02  8.32272E-02 -2.92848E-02
    8986.558    -10.364  -0.800  5.72732E-02  9.05155E-02 -3.32423E-02
    8986.796    -10.126  -0.760  6.09162E-02  9.87361E-02 -3.78199E-02
    8987.021     -9.900  -0.720  6.49112E-02  1.08028E-01 -4.31167E-02
    8987.234     -9.687  -0.680  6.93021E-02  1.18545E-01 -4.92424E-02
    8987.436     -9.486  -0.640  7.41345E-02  1.30448E-01 -5.63135E-02
    8987.625     -9.297  -0.600  7.94523E-02  1.43898E-01 -6.44456E-02
    8987.801     -9.120  -0.560  8.52906E-02  1.59031E-01 -7.37401E-02
    8987.966     -8.955  -0.520  9.16649E-02  1.75929E-01 -8.42636E-02
    8988.118     -8.803  -0.480  9.85564E-02  1.94575E-01 -9.60190E-02
    8988.259     -8.663  -0.440  1.05895E-01  2.14807E-01 -1.08912E-01
    8988.387     -8.535  -0.400  1.13544E-01  2.36268E-01 -1.22724E-01
    8988.502     -8.419  -0.360  1.21304E-01  2.58400E-01 -1.37096E-01
    8988.606     -8.315  -0.320  1.28921E-01  2.80476E-01 -1.51554E-01
    8988.698     -8.224  -0.280  1.36129E-01  3.01689E-01 -1.65560E-01
    8988.777     -8.145  -0.240  1.42684E-01  3.21265E-01 -1.78581E-01
    8988.844     -8.078  -0.200  1.48399E-01  3.38559E-01 -1.90160E-01
    8988.899     -8.023  -0.160  1.53150E-01  3.53099E-01 -1.99949E-01
    8988.941     -7.980  -0.120  1.56870E-01  3.64586E-01 -2.07716E-01
    8988.972     -7.950  -0.080  1.59531E-01  3.72858E-01 -2.13326E-01
    8988.996     -7.925   0.000  1.61649E-01  3.79499E-01 -2.17851E-01
    8989.051     -7.870   0.120  1.66415E-01  3.94469E-01 -2.28054E-01
    8989.094     -7.828   0.160  1.70096E-01  4.06094E-01 -2.35998E-01
    8989.149     -7.773   0.200  1.74748E-01  4.20914E-01 -2.46165E-01
    8989.216     -7.706   0.240  1.80331E-01  4.38735E-01 -2.58405E-01
    8989.295     -7.627   0.280  1.86700E-01  4.59144E-01 -2.72444E-01
    8989.386     -7.535   0.320  1.93753E-01  4.81595E-01 -2.87842E-01
    8989.490     -7.432   0.360  2.01408E-01  5.05416E-01 -3.04009E-01
    8989.606     -7.316   0.400  2.09595E-01  5.29871E-01 -3.20276E-01
    8989.734     -7.188   0.440  2.18383E-01  5.54285E-01 -3.35902E-01
    8989.874     -7.047   0.480  2.27923E-01  5.78173E-01 -3.50250E-01
    8990.026     -6.895   0.520  2.38384E-01  6.01150E-01 -3.62766E-01
    8990.191     -6.730   0.560  2.50034E-01  6.23086E-01 -3.73052E-01
    8990.368     -6.554   0.600  2.63139E-01  6.43920E-01 -3.80781E-01
    8990.557     -6.365   0.640  2.78006E-01  6.63721E-01 -3.85716E-01
    8990.758     -6.164   0.680  2.95019E-01  6.82542E-01 -3.87522E-01
    8990.971     -5.950   0.720  3.14815E-01  7.00532E-01 -3.85717E-01
    8991.197     -5.725   0.760  3.38228E-01  7.17803E-01 -3.79576E-01
    8991.435     -5.487   0.800  3.66235E-01  7.34411E-01 -3.68177E-01
    8991.685     -5.237   0.840  3.99904E-01  7.50459E-01 -3.50555E-01
    8991.947     -4.975   0.880  4.39915E-01  7.65993E-01 -3.26079E-01
    8992.221     -4.701   0.920  4.85982E-01  7.81084E-01 -2.95102E-01
    8992.508     -4.414   0.960  5.36155E-01  7.95746E-01 -2.59591E-01
    8992.806     -4.115   1.000  5.86646E-01  8.09983E-01 -2.23338E-01
    8993.117     -3.804   1.040  6.32261E-01  8.23828E-01 -1.91568E-01
    8993.440     -3.481   1.080  6.66311E-01  8.37286E-01 -1.70975E-01
    8993.775     -3.146   1.120  6.82175E-01  8.50334E-01 -1.68158E-01
    8994.123     -2.799   1.160  6.80067E-01  8.62963E-01 -1.82896E-01
    8994.483     -2.439   1.200  6.70984E-01  8.75162E-01 -2.04178E-01
    8994.854     -2.067   1.240  6.69501E-01  8.86935E-01 -2.17434E-01
    8995.239     -1.683   1.280  6.86507E-01  8.98223E-01 -2.11716E-01
    8995.635     -1.287   1.320  7.27709E-01  9.09050E-01 -1.81341E-01
    8996.043     -0.878   1.360  7.91268E-01  9.19395E-01 -1.28127E-01
    8996.464     -0.458   1.400  8.63385E-01  9.29239E-01 -6.58538E-02
    8996.897     -0.025   1.440  9.16294E-01  9.38581E-01 -2.22878E-02
    8997.342      0.420   1.480  9.31313E-01  9.47403E-01 -1.60894E-02
    8997.799      0.877   1.520  9.26680E-01  9.55682E-01 -2.90028E-02
    8998.268      1.347   1.560  9.27397E-01  9.63465E-01 -3.60672E-02
    8998.750      1.828   1.600  9.39421E-01  9.70691E-01 -3.12705E-02
    8999.244      2.322   1.640  9.68475E-01  9.77406E-01 -8.93034E-03
    8999.750      2.828   1.680  1.02583E+00  9.83592E-01  4.22333E-02
    9000.268      3.346   1.720  1.11681E+00  9.89259E-01  1.27550E-01
    9000.798      3.877   1.760  1.24081E+00  9.94431E-01  2.46375E-01
    9001.341      4.419   1.800  1.37209E+00  9.99118E-01  3.72971E-01
    9001.895      4.974   1.840  1.44145E+00  1.00333E+00  4.38123E-01
    9002.462      5.541   1.880  1.43834E+00  1.00707E+00  4.31267E-01
    9003.041      6.120   1.920  1.41531E+00  1.01037E+00  4.04937E-01
    9003.633      6.711   1.960  1.38973E+00  1.01325E+00  3.76485E-01
    9004.236      7.315   2.000  1.36404E+00  1.01573E+00  3.48313E-01
    9004.852      7.930   2.040  1.34143E+00  1.01780E+00  3.23626E-01
    9005.480      8.558   2.080  1.32308E+00  1.01952E+00  3.03564E-01
    9006.120      9.198   2.120  1.30677E+00  1.02092E+00  2.85852E-01
    9006.772      9.851   2.160  1.28823E+00  1.02197E+00  2.66262E-01
    9007.437     10.515   2.200  1.25742E+00  1.02274E+00  2.34674E-01
    9008.113     11.192   2.240  1.20282E+00  1.02325E+00  1.79568E-01
    9008.802     11.881   2.280  1.12865E+00  1.02348E+00  1.05168E-01
    9009.503     12.582   2.320  1.05429E+00  1.02349E+00  3.07958E-02
    9010.216     13.295   2.360  9.99448E-01  1.02331E+00 -2.38671E-02
    9010.942     14.020   2.400  9.86947E-01  1.02291E+00 -3.59665E-02
    9011.679     14.758   2.440  9.99775E-01  1.02236E+00 -2.25862E-02
    9012.429     15.508   2.480  1.02451E+00  1.02167E+00  2.83718E-03
    9013.191     16.270   2.520  1.05391E+00  1.02083E+00  3.30751E-02
    9013.965     17.044   2.560  1.08259E+00  1.01989E+00  6.27021E-02
    9014.752     17.830   2.600  1.10581E+00  1.01886E+00  8.69563E-02
    9015.550     18.629   2.640  1.11870E+00  1.01772E+00  1.00975E-01
    9016.361     19.440   2.680  1.11787E+00  1.01655E+00  1.01326E-01
    9017.184     20.263   2.720  1.10218E+00  1.01531E+00  8.68734E-02
    9018.019     21.098   2.760  1.07430E+00  1.01403E+00  6.02769E-02
    9018.867     21.945   2.800  1.03917E+00  1.01273E+00  2.64411E-02
    9019.726     22.805   2.840  1.00191E+00  1.01143E+00 -9.52005E-03
    9020.598     23.676   2.880  9.66912E-01  1.01012E+00 -4.32119E-02
    9021.482     24.560   2.920  9.36771E-01  1.00882E+00 -7.20496E-02
    9022.378     25.456   2.960  9.12050E-01  1.00753E+00 -9.54767E-02
    9023.286     26.365   3.000  8.92906E-01  1.00629E+00 -1.13380E-01
    9024.207     27.285   3.040  8.79288E-01  1.00506E+00 -1.25773E-01
    9025.139     28.218   3.080  8.71406E-01  1.00388E+00 -1.32469E-01
    9026.084     29.163   3.120  8.69601E-01  1.00275E+00 -1.33154E-01
    9027.041     30.120   3.160  8.73415E-01  1.00168E+00 -1.28266E-01
    9028.010     31.089   3.200  8.81467E-01  1.00066E+00 -1.19189E-01
    9028.992     32.070   3.240  8.91657E-01  9.99725E-01 -1.08068E-01
    9029.986     33.064   3.280  9.01081E-01  9.98826E-01 -9.77451E-02
    9030.991     34.070   3.320  9.06775E-01  9.98024E-01 -9.12491E-02
    9032.009     35.088   3.360  9.07323E-01  9.97278E-01 -8.99546E-02
    9033.040     36.118   3.400  9.03553E-01  9.96631E-01 -9.30776E-02
    9034.082     37.161   3.440  8.97827E-01  9.96043E-01 -9.82162E-02
    9035.137     38.215   3.480  8.92762E-01  9.95536E-01 -1.02774E-01
    9036.203     39.282   3.520  8.90425E-01  9.95129E-01 -1.04705E-01
    9037.282     40.361   3.560  8.92010E-01  9.94782E-01 -1.02772E-01
    9038.374     41.452   3.600  8.97858E-01  9.94517E-01 -9.66588E-02
    9039.477     42.555   3.640  9.07476E-01  9.94353E-01 -8.68771E-02
    9040.593     43.671   3.680  9.19724E-01  9.94247E-01 -7.45233E-02
    9041.720     44.799   3.720  9.33119E-01  9.94221E-01 -6.11021E-02
    9042.860     45.939   3.760  9.46147E-01  9.94274E-01 -4.81275E-02
    9044.012     47.091   3.800  9.58056E-01  9.94407E-01 -3.63504E-02
    9045.177     48.255   3.840  9.68900E-01  9.94616E-01 -2.57163E-02
    9046.353     49.432   3.880  9.79359E-01  9.94902E-01 -1.55430E-02
    9047.542     50.620   3.920  9.90232E-01  9.95242E-01 -5.00980E-03
    9048.743     51.821   3.960  1.00190E+00  9.95652E-01  6.24721E-03
    9049.956     53.034   4.000  1.01386E+00  9.96113E-01  1.77463E-02
    9051.181     54.260   4.040  1.02492E+00  9.96643E-01  2.82767E-02
    9052.419     55.497   4.080  1.03379E+00  9.97220E-01  3.65683E-02
    9053.668     56.747   4.120  1.03993E+00  9.97843E-01  4.20834E-02
    9054.930     58.009   4.160  1.04386E+00  9.98531E-01  4.53325E-02
    9056.204     59.283   4.200  1.04693E+00  9.99260E-01  4.76741E-02
    9057.491     60.569   4.240  1.05060E+00  1.00001E+00  5.05977E-02
    9058.789     61.868   4.280  1.05596E+00  1.00079E+00  5.51755E-02
    9060.100     63.178   4.320  1.06352E+00  1.00163E+00  6.18898E-02
    9061.422     64.501   4.360  1.07309E+00  1.00245E+00  7.06403E-02
    9062.758     65.836   4.400  1.08417E+00  1.00331E+00  8.08566E-02
    9064.105     67.183   4.440  1.09576E+00  1.00420E+00  9.15638E-02
    9065.464     68.543   4.480  1.10653E+00  1.00509E+00  1.01444E-01
    9066.836     69.914   4.520  1.11495E+00  1.00598E+00  1.08964E-01
    9068.220     71.298   4.560  1.11963E+00  1.00687E+00  1.12755E-01
    9069.615     72.694   4.600  1.11978E+00  1.00776E+00  1.12022E-01
    9071.024     74.102   4.640  1.11545E+00  1.00862E+00  1.06825E-01
    9072.444     75.523   4.680  1.10750E+00  1.00950E+00  9.79961E-02
    9073.877     76.955   4.720  1.09725E+00  1.01035E+00  8.69000E-02
    9075.321     78.400   4.760  1.08582E+00  1.01116E+00  7.46635E-02
    9076.778     79.857   4.800  1.07381E+00  1.01196E+00  6.18495E-02
    9078.247     81.326   4.840  1.06110E+00  1.01272E+00  4.83770E-02
    9079.729     82.807   4.880  1.04721E+00  1.01345E+00  3.37591E-02
    9081.222     84.301   4.920  1.03181E+00  1.01416E+00  1.76496E-02
    9082.728     85.806   4.960  1.01501E+00  1.01480E+00  2.04721E-04
    9084.246     87.324   5.000  9.97729E-01  1.01543E+00 -1.76992E-02
    9085.776     88.854   5.040  9.81386E-01  1.01599E+00 -3.46002E-02
    9087.318     90.397   5.080  9.67750E-01  1.01650E+00 -4.87487E-02
    9088.873     91.951   5.120  9.58548E-01  1.01696E+00 -5.84159E-02
    9090.439     93.518   5.160  9.54901E-01  1.01736E+00 -6.24595E-02
    9092.018     95.097   5.200  9.57005E-01  1.01773E+00 -6.07267E-02
    9093.609     96.688   5.240  9.63804E-01  1.01803E+00 -5.42287E-02
    9095.212     98.291   5.280  9.73368E-01  1.01826E+00 -4.48926E-02
    9096.828     99.906   5.320  9.83338E-01  1.01844E+00 -3.51010E-02
    9098.456    101.534   5.360  9.91451E-01  1.01857E+00 -2.71172E-02
    9100.095    103.174   5.400  9.96055E-01  1.01863E+00 -2.25714E-02
    9101.747    104.826   5.440  9.96448E-01  1.01863E+00 -2.21862E-02
    9103.412    106.490   5.480  9.92917E-01  1.01857E+00 -2.56522E-02
    9105.088    108.166   5.520  9.86777E-01  1.01846E+00 -3.16791E-02
    9106.777    109.855   5.560  9.79824E-01  1.01830E+00 -3.84725E-02
    9108.477    111.556   5.600  9.73582E-01  1.01807E+00 -4.44837E-02
    9110.190    113.269   5.640  9.68962E-01  1.01779E+00 -4.88274E-02
    9111.915    114.994   5.680  9.66243E-01  1.01747E+00 -5.12233E-02
    9113.653    116.731   5.720  9.65402E-01  1.01708E+00 -5.16741E-02
    9115.402    118.481   5.760  9.66496E-01  1.01667E+00 -5.01711E-02
    9117.164    120.243   5.800  9.69432E-01  1.01619E+00 -4.67601E-02
    9118.938    122.017   5.840  9.73845E-01  1.01568E+00 -4.18319E-02
    9120.724    123.803   5.880  9.78859E-01  1.01513E+00 -3.62657E-02
    9122.522    125.601   5.920  9.83525E-01  1.01454E+00 -3.10137E-02
    9124.333    127.411   5.960  9.86738E-01  1.01392E+00 -2.71840E-02
    9126.156    129.234   6.000  9.88928E-01  1.01327E+00 -2.43434E-02
