# # comment:                                                     FEFF 9.9.1  
# # Source:
# # Structure
# # Reduced
# # space
# # abc:
# # angles:153.298471
# # sites:
# # POT  SCF 100  7.0000   0, screened core-hole, AFOLP (folp(0)= 1.150)
# # Abs   Z=29 Rmt= 1.305 Rnm= 1.370 K  shell
# # Pot 1 Z=57 Rmt= 1.707 Rnm= 1.807
# # Pot 2 Z=29 Rmt= 1.311 Rnm= 1.372
# # Pot 3 Z=16 Rmt= 1.392 Rnm= 1.465
# # Pot 4 Z= 8 Rmt= 1.032 Rnm= 1.108
# # Gam_ch=1.729E+00 H-L exch Vi= 0.000E+00 Vr= 0.000E+00
# # Mu=-6.995E+00eV kf=1.974E+00 Vint=-1.652E+01eV Rs_int= 1.837
# FMS rfms= 9.0000
# # PATH  Rmax=-1.000,  Keep_limit= 0.00, Heap_limit 0.00  Pwcrit= 2.50%
#  S02=0.950  Temp=   0.00  Debye_temp=   0.00  Global_sig2= 0.00000
#  Energy zero shift, vr, vi    0.00000E+00   0.00000E+00
#  Curved wave amplitude ratio filter   4.000%
#     file         sig2 tot  cw amp ratio   deg  nlegs   reff  inp sig2
#     0/   0 paths used
#  xsedge+ 50, used to normalize mu           2.4537E-04
#  -----------------------------------------------------------------------
#  omega    e    k    mu    mu0     chi     @#
    8984.160    -10.805  -1.000  5.05231E-02  6.02121E-02 -9.68896E-03
    8984.459    -10.506  -0.960  5.37381E-02  6.47858E-02 -1.10478E-02
    8984.746    -10.219  -0.920  5.72519E-02  6.98848E-02 -1.26329E-02
    8985.020     -9.945  -0.880  6.11024E-02  7.55876E-02 -1.44852E-02
    8985.282     -9.683  -0.840  6.53330E-02  8.19860E-02 -1.66529E-02
    8985.532     -9.433  -0.800  6.99935E-02  8.91863E-02 -1.91927E-02
    8985.770     -9.195  -0.760  7.51405E-02  9.73108E-02 -2.21703E-02
    8985.995     -8.970  -0.720  8.08374E-02  1.06498E-01 -2.56605E-02
    8986.209     -8.756  -0.680  8.71531E-02  1.16900E-01 -2.97471E-02
    8986.410     -8.555  -0.640  9.41596E-02  1.28679E-01 -3.45194E-02
    8986.599     -8.366  -0.600  1.01926E-01  1.41993E-01 -4.00672E-02
    8986.776     -8.189  -0.560  1.10508E-01  1.56978E-01 -4.64706E-02
    8986.940     -8.025  -0.520  1.19933E-01  1.73717E-01 -5.37839E-02
    8987.093     -7.872  -0.480  1.30179E-01  1.92194E-01 -6.20143E-02
    8987.233     -7.732  -0.440  1.41148E-01  2.12245E-01 -7.10964E-02
    8987.361     -7.604  -0.400  1.52648E-01  2.33518E-01 -8.08702E-02
    8987.477     -7.488  -0.360  1.64385E-01  2.55458E-01 -9.10732E-02
    8987.580     -7.385  -0.320  1.75988E-01  2.77344E-01 -1.01356E-01
    8987.672     -7.293  -0.280  1.87050E-01  2.98373E-01 -1.11323E-01
    8987.751     -7.214  -0.240  1.97190E-01  3.17778E-01 -1.20588E-01
    8987.818     -7.147  -0.200  2.06098E-01  3.34918E-01 -1.28820E-01
    8987.873     -7.092  -0.160  2.13555E-01  3.49327E-01 -1.35772E-01
    8987.915     -7.049  -0.120  2.19426E-01  3.60709E-01 -1.41283E-01
    8987.946     -7.019  -0.080  2.23641E-01  3.68904E-01 -1.45263E-01
    8987.970     -6.995   0.000  2.27004E-01  3.75484E-01 -1.48480E-01
    8988.025     -6.940   0.120  2.34621E-01  3.90314E-01 -1.55693E-01
    8988.068     -6.897   0.160  2.40533E-01  4.01827E-01 -1.61294E-01
    8988.123     -6.842   0.200  2.48066E-01  4.16497E-01 -1.68431E-01
    8988.190     -6.775   0.240  2.57121E-01  4.34108E-01 -1.76986E-01
    8988.269     -6.696   0.280  2.67579E-01  4.54283E-01 -1.86705E-01
    8988.361     -6.604   0.320  2.79248E-01  4.76458E-01 -1.97210E-01
    8988.464     -6.501   0.360  2.92041E-01  4.99979E-01 -2.07938E-01
    8988.580     -6.385   0.400  3.05889E-01  5.24067E-01 -2.18179E-01
    8988.708     -6.257   0.440  3.21001E-01  5.48091E-01 -2.27090E-01
    8988.848     -6.117   0.480  3.37751E-01  5.71523E-01 -2.33772E-01
    8989.001     -5.964   0.520  3.56652E-01  5.94040E-01 -2.37388E-01
    8989.165     -5.800   0.560  3.78101E-01  6.15431E-01 -2.37330E-01
    8989.342     -5.623   0.600  4.02280E-01  6.35697E-01 -2.33417E-01
    8989.531     -5.434   0.640  4.28826E-01  6.54887E-01 -2.26062E-01
    8989.732     -5.233   0.680  4.56963E-01  6.73096E-01 -2.16132E-01
    8989.945     -5.020   0.720  4.85646E-01  6.90393E-01 -2.04747E-01
    8990.171     -4.794   0.760  5.14104E-01  7.06952E-01 -1.92848E-01
    8990.409     -4.556   0.800  5.41883E-01  7.22832E-01 -1.80948E-01
    8990.659     -4.306   0.840  5.69015E-01  7.38117E-01 -1.69102E-01
    8990.921     -4.044   0.880  5.96040E-01  7.52876E-01 -1.56836E-01
    8991.195     -3.770   0.920  6.23985E-01  7.67161E-01 -1.43177E-01
    8991.482     -3.483   0.960  6.54340E-01  7.81011E-01 -1.26671E-01
    8991.780     -3.185   1.000  6.88850E-01  7.94451E-01 -1.05601E-01
    8992.091     -2.874   1.040  7.29490E-01  8.07498E-01 -7.80080E-02
    8992.414     -2.551   1.080  7.78771E-01  8.20118E-01 -4.13478E-02
    8992.750     -2.215   1.120  8.39812E-01  8.32374E-01  7.43845E-03
    8993.097     -1.868   1.160  9.13975E-01  8.44218E-01  6.97578E-02
    8993.457     -1.508   1.200  9.95825E-01  8.55641E-01  1.40183E-01
    8993.829     -1.136   1.240  1.06783E+00  8.66673E-01  2.01161E-01
    8994.213     -0.752   1.280  1.10677E+00  8.77258E-01  2.29512E-01
    8994.609     -0.356   1.320  1.10561E+00  8.87421E-01  2.18192E-01
    8995.017      0.052   1.360  1.07978E+00  8.97121E-01  1.82662E-01
    8995.438      0.473   1.400  1.04813E+00  9.06385E-01  1.41749E-01
    8995.871      0.906   1.440  1.02015E+00  9.15172E-01  1.04982E-01
    8996.316      1.351   1.480  9.98369E-01  9.23485E-01  7.48832E-02
    8996.773      1.808   1.520  9.82779E-01  9.31348E-01  5.14310E-02
    8997.242      2.277   1.560  9.72378E-01  9.38724E-01  3.36539E-02
    8997.724      2.759   1.600  9.67331E-01  9.45636E-01  2.16956E-02
    8998.218      3.253   1.640  9.70387E-01  9.52089E-01  1.82979E-02
    8998.724      3.759   1.680  9.83727E-01  9.58068E-01  2.56597E-02
    8999.242      4.277   1.720  1.00351E+00  9.63600E-01  3.99128E-02
    8999.772      4.807   1.760  1.02146E+00  9.68714E-01  5.27443E-02
    9000.315      5.350   1.800  1.03485E+00  9.73373E-01  6.14789E-02
    9000.869      5.904   1.840  1.04834E+00  9.77628E-01  7.07099E-02
    9001.436      6.471   1.880  1.06459E+00  9.81468E-01  8.31229E-02
    9002.015      7.050   1.920  1.07824E+00  9.84942E-01  9.32974E-02
    9002.607      7.642   1.960  1.08080E+00  9.88039E-01  9.27565E-02
    9003.210      8.245   2.000  1.07075E+00  9.90789E-01  7.99636E-02
    9003.826      8.861   2.040  1.05253E+00  9.93203E-01  5.93237E-02
    9004.454      9.489   2.080  1.03172E+00  9.95312E-01  3.64048E-02
    9005.094     10.129   2.120  1.01446E+00  9.97124E-01  1.73378E-02
    9005.746     10.781   2.160  1.00630E+00  9.98650E-01  7.65180E-03
    9006.411     11.446   2.200  1.01178E+00  9.99942E-01  1.18403E-02
    9007.087     12.122   2.240  1.03373E+00  1.00099E+00  3.27361E-02
    9007.776     12.811   2.280  1.07178E+00  1.00182E+00  6.99523E-02
    9008.477     13.512   2.320  1.11697E+00  1.00245E+00  1.14521E-01
    9009.190     14.225   2.360  1.15451E+00  1.00290E+00  1.51610E-01
    9009.916     14.951   2.400  1.16405E+00  1.00321E+00  1.60840E-01
    9010.653     15.688   2.440  1.14743E+00  1.00336E+00  1.44072E-01
    9011.403     16.438   2.480  1.11929E+00  1.00336E+00  1.15937E-01
    9012.165     17.200   2.520  1.08821E+00  1.00328E+00  8.49312E-02
    9012.939     17.974   2.560  1.05767E+00  1.00308E+00  5.45915E-02
    9013.726     18.761   2.600  1.02946E+00  1.00280E+00  2.66613E-02
    9014.524     19.559   2.640  1.00430E+00  1.00244E+00  1.86111E-03
    9015.335     20.370   2.680  9.82762E-01  1.00203E+00 -1.92681E-02
    9016.158     21.193   2.720  9.65220E-01  1.00157E+00 -3.63517E-02
    9016.993     22.028   2.760  9.51578E-01  1.00107E+00 -4.94933E-02
    9017.841     22.876   2.800  9.41685E-01  1.00054E+00 -5.88523E-02
    9018.700     23.735   2.840  9.35222E-01  1.00001E+00 -6.47915E-02
    9019.572     24.607   2.880  9.31467E-01  9.99462E-01 -6.79950E-02
    9020.456     25.491   2.920  9.29031E-01  9.98909E-01 -6.98775E-02
    9021.352     26.387   2.960  9.26925E-01  9.98358E-01 -7.14330E-02
    9022.260     27.295   3.000  9.25116E-01  9.97834E-01 -7.27182E-02
    9023.181     28.216   3.040  9.24093E-01  9.97339E-01 -7.32454E-02
    9024.113     29.148   3.080  9.24434E-01  9.96855E-01 -7.24215E-02
    9025.058     30.093   3.120  9.26278E-01  9.96404E-01 -7.01262E-02
    9026.015     31.050   3.160  9.29682E-01  9.95968E-01 -6.62867E-02
    9026.985     32.020   3.200  9.34513E-01  9.95590E-01 -6.10778E-02
    9027.966     33.001   3.240  9.40443E-01  9.95254E-01 -5.48104E-02
    9028.960     33.995   3.280  9.47137E-01  9.94957E-01 -4.78200E-02
    9029.966     35.001   3.320  9.54114E-01  9.94701E-01 -4.05864E-02
    9030.984     36.019   3.360  9.60740E-01  9.94487E-01 -3.37469E-02
    9032.014     37.049   3.400  9.66398E-01  9.94316E-01 -2.79185E-02
    9033.056     38.091   3.440  9.70842E-01  9.94210E-01 -2.33684E-02
    9034.111     39.146   3.480  9.74123E-01  9.94147E-01 -2.00237E-02
    9035.178     40.213   3.520  9.76447E-01  9.94126E-01 -1.76793E-02
    9036.257     41.292   3.560  9.78145E-01  9.94148E-01 -1.60032E-02
    9037.348     42.383   3.600  9.79571E-01  9.94213E-01 -1.46421E-02
    9038.451     43.486   3.640  9.81128E-01  9.94343E-01 -1.32150E-02
    9039.567     44.602   3.680  9.83268E-01  9.94515E-01 -1.12469E-02
    9040.694     45.729   3.720  9.86518E-01  9.94725E-01 -8.20765E-03
    9041.834     46.869   3.760  9.91329E-01  9.94954E-01 -3.62538E-03
    9042.987     48.022   3.800  9.98040E-01  9.95243E-01  2.79684E-03
    9044.151     49.186   3.840  1.00670E+00  9.95571E-01  1.11309E-02
    9045.327     50.362   3.880  1.01712E+00  9.95915E-01  2.12055E-02
    9046.516     51.551   3.920  1.02898E+00  9.96314E-01  3.26636E-02
    9047.717     52.752   3.960  1.04153E+00  9.96727E-01  4.48041E-02
    9048.930     53.965   4.000  1.05375E+00  9.97172E-01  5.65748E-02
    9050.155     55.190   4.040  1.06440E+00  9.97626E-01  6.67696E-02
    9051.393     56.428   4.080  1.07238E+00  9.98108E-01  7.42720E-02
    9052.643     57.678   4.120  1.07692E+00  9.98598E-01  7.83253E-02
    9053.904     58.939   4.160  1.07772E+00  9.99093E-01  7.86320E-02
    9055.178     60.213   4.200  1.07484E+00  9.99612E-01  7.52323E-02
    9056.465     61.500   4.240  1.06862E+00  1.00013E+00  6.84836E-02
    9057.763     62.798   4.280  1.05965E+00  1.00066E+00  5.89889E-02
    9059.074     64.109   4.320  1.04865E+00  1.00118E+00  4.74714E-02
    9060.397     65.432   4.360  1.03646E+00  1.00170E+00  3.47630E-02
    9061.732     66.767   4.400  1.02386E+00  1.00222E+00  2.16445E-02
    9063.079     68.114   4.440  1.01159E+00  1.00273E+00  8.85989E-03
    9064.438     69.473   4.480  1.00026E+00  1.00321E+00 -2.95545E-03
    9065.810     70.845   4.520  9.90334E-01  1.00369E+00 -1.33543E-02
    9067.194     72.229   4.560  9.82050E-01  1.00416E+00 -2.21053E-02
    9068.590     73.625   4.600  9.75391E-01  1.00459E+00 -2.91974E-02
    9069.998     75.033   4.640  9.70226E-01  1.00499E+00 -3.47614E-02
    9071.418     76.453   4.680  9.66431E-01  1.00537E+00 -3.89425E-02
    9072.851     77.886   4.720  9.63890E-01  1.00573E+00 -4.18373E-02
    9074.295     79.330   4.760  9.62553E-01  1.00607E+00 -4.35133E-02
    9075.752     80.787   4.800  9.62333E-01  1.00637E+00 -4.40353E-02
    9077.222     82.257   4.840  9.63138E-01  1.00663E+00 -4.34943E-02
    9078.703     83.738   4.880  9.64858E-01  1.00686E+00 -4.19984E-02
    9080.196     85.231   4.920  9.67401E-01  1.00704E+00 -3.96425E-02
    9081.702     86.737   4.960  9.70652E-01  1.00721E+00 -3.65610E-02
    9083.220     88.255   5.000  9.74313E-01  1.00732E+00 -3.30095E-02
    9084.750     89.785   5.040  9.78005E-01  1.00741E+00 -2.94087E-02
    9086.292     91.327   5.080  9.81228E-01  1.00746E+00 -2.62368E-02
    9087.847     92.882   5.120  9.83634E-01  1.00748E+00 -2.38434E-02
    9089.413     94.448   5.160  9.85158E-01  1.00745E+00 -2.22920E-02
    9090.992     96.027   5.200  9.86027E-01  1.00738E+00 -2.13564E-02
    9092.583     97.618   5.240  9.86624E-01  1.00730E+00 -2.06763E-02
    9094.187     99.222   5.280  9.87240E-01  1.00715E+00 -1.99143E-02
    9095.802    100.837   5.320  9.88254E-01  1.00697E+00 -1.87140E-02
    9097.430    102.465   5.360  9.90142E-01  1.00677E+00 -1.66258E-02
    9099.069    104.105   5.400  9.93410E-01  1.00653E+00 -1.31189E-02
    9100.722    105.757   5.440  9.98526E-01  1.00625E+00 -7.72917E-03
    9102.386    107.421   5.480  1.00567E+00  1.00597E+00 -2.96354E-04
    9104.062    109.097   5.520  1.01447E+00  1.00562E+00  8.85139E-03
    9105.751    110.786   5.560  1.02412E+00  1.00526E+00  1.88604E-02
    9107.451    112.486   5.600  1.03343E+00  1.00489E+00  2.85426E-02
    9109.164    114.199   5.640  1.04116E+00  1.00446E+00  3.67016E-02
    9110.890    115.925   5.680  1.04656E+00  1.00405E+00  4.25155E-02
    9112.627    117.662   5.720  1.04936E+00  1.00358E+00  4.57821E-02
    9114.376    119.411   5.760  1.05000E+00  1.00312E+00  4.68765E-02
    9116.138    121.173   5.800  1.04911E+00  1.00262E+00  4.64879E-02
    9117.912    122.947   5.840  1.04750E+00  1.00213E+00  4.53628E-02
    9119.698    124.733   5.880  1.04568E+00  1.00162E+00  4.40613E-02
    9121.497    126.532   5.920  1.04385E+00  1.00111E+00  4.27379E-02
    9123.307    128.342   5.960  1.04163E+00  1.00059E+00  4.10458E-02
    9125.130    130.165   6.000  1.03816E+00  1.00008E+00  3.80716E-02
