# # comment:                                                     FEFF 9.9.1  
# # Source:
# # Structure
# # Reduced
# # space
# # abc:
# # angles:
# # sites:
# # POT  SCF 100  7.0000   0, screened core-hole, AFOLP (folp(0)= 1.150)
# # Abs   Z=29 Rmt= 1.231 Rnm= 1.295 K  shell
# # Pot 1 Z=38 Rmt= 1.809 Rnm= 1.888
# # Pot 2 Z=67 Rmt= 1.573 Rnm= 1.649
# # Pot 3 Z=29 Rmt= 1.231 Rnm= 1.295
# # Pot 4 Z= 8 Rmt= 1.049 Rnm= 1.104
# # Gam_ch=1.729E+00 H-L exch Vi= 0.000E+00 Vr= 0.000E+00
# # Mu=-7.547E+00eV kf=2.006E+00 Vint=-1.777E+01eV Rs_int= 1.808
# FMS rfms= 9.0000
# # PATH  Rmax=-1.000,  Keep_limit= 0.00, Heap_limit 0.00  Pwcrit= 2.50%
#  S02=0.950  Temp=   0.00  Debye_temp=   0.00  Global_sig2= 0.00000
#  Energy zero shift, vr, vi    0.00000E+00   0.00000E+00
#  Curved wave amplitude ratio filter   4.000%
#     file         sig2 tot  cw amp ratio   deg  nlegs   reff  inp sig2
#     0/   0 paths used
#  xsedge+ 50, used to normalize mu           2.4431E-04
#  -----------------------------------------------------------------------
#  omega    e    k    mu    mu0     chi     @#
    8984.930    -11.357  -1.000  4.44617E-02  5.96384E-02 -1.51767E-02
    8985.229    -11.058  -0.960  4.70413E-02  6.41502E-02 -1.71089E-02
    8985.516    -10.772  -0.920  4.98518E-02  6.91793E-02 -1.93275E-02
    8985.790    -10.497  -0.880  5.29242E-02  7.48033E-02 -2.18791E-02
    8986.052    -10.235  -0.840  5.62946E-02  8.11124E-02 -2.48178E-02
    8986.302     -9.985  -0.800  6.00053E-02  8.82116E-02 -2.82063E-02
    8986.540     -9.748  -0.760  6.41048E-02  9.62214E-02 -3.21166E-02
    8986.765     -9.522  -0.720  6.86484E-02  1.05278E-01 -3.66298E-02
    8986.979     -9.309  -0.680  7.36973E-02  1.15532E-01 -4.18352E-02
    8987.180     -9.108  -0.640  7.93159E-02  1.27143E-01 -4.78275E-02
    8987.369     -8.919  -0.600  8.55676E-02  1.40268E-01 -5.47000E-02
    8987.546     -8.742  -0.560  9.25053E-02  1.55039E-01 -6.25340E-02
    8987.710     -8.577  -0.520  1.00158E-01  1.71539E-01 -7.13818E-02
    8987.863     -8.425  -0.480  1.08509E-01  1.89752E-01 -8.12431E-02
    8988.003     -8.285  -0.440  1.17480E-01  2.09518E-01 -9.20381E-02
    8988.131     -8.157  -0.400  1.26904E-01  2.30488E-01 -1.03584E-01
    8988.247     -8.041  -0.360  1.36531E-01  2.52114E-01 -1.15584E-01
    8988.350     -7.937  -0.320  1.46040E-01  2.73686E-01 -1.27646E-01
    8988.442     -7.846  -0.280  1.55087E-01  2.94412E-01 -1.39325E-01
    8988.521     -7.766  -0.240  1.63355E-01  3.13536E-01 -1.50181E-01
    8988.588     -7.699  -0.200  1.70590E-01  3.30425E-01 -1.59836E-01
    8988.643     -7.644  -0.160  1.76622E-01  3.44622E-01 -1.68000E-01
    8988.686     -7.602  -0.120  1.81353E-01  3.55835E-01 -1.74483E-01
    8988.716     -7.571  -0.080  1.84734E-01  3.63908E-01 -1.79173E-01
    8988.740     -7.547   0.000  1.87407E-01  3.70389E-01 -1.82982E-01
    8988.795     -7.492   0.120  1.93424E-01  3.84982E-01 -1.91558E-01
    8988.838     -7.449   0.160  1.98116E-01  3.96322E-01 -1.98206E-01
    8988.893     -7.395   0.200  2.04091E-01  4.10771E-01 -2.06680E-01
    8988.960     -7.327   0.240  2.11237E-01  4.28112E-01 -2.16875E-01
    8989.039     -7.248   0.280  2.19378E-01  4.47951E-01 -2.28572E-01
    8989.131     -7.157   0.320  2.28346E-01  4.69788E-01 -2.41442E-01
    8989.234     -7.053   0.360  2.37869E-01  4.92892E-01 -2.55023E-01
    8989.350     -6.937   0.400  2.47688E-01  5.16552E-01 -2.68864E-01
    8989.478     -6.809   0.440  2.57643E-01  5.40141E-01 -2.82498E-01
    8989.618     -6.669   0.480  2.67602E-01  5.63120E-01 -2.95518E-01
    8989.771     -6.517   0.520  2.77560E-01  5.85171E-01 -3.07611E-01
    8989.935     -6.352   0.560  2.87675E-01  6.06144E-01 -3.18468E-01
    8990.112     -6.175   0.600  2.98126E-01  6.25962E-01 -3.27835E-01
    8990.301     -5.986   0.640  3.09185E-01  6.44736E-01 -3.35551E-01
    8990.502     -5.785   0.680  3.20982E-01  6.62523E-01 -3.41542E-01
    8990.716     -5.572   0.720  3.33657E-01  6.79456E-01 -3.45800E-01
    8990.941     -5.346   0.760  3.47273E-01  6.95648E-01 -3.48376E-01
    8991.179     -5.109   0.800  3.61808E-01  7.11221E-01 -3.49413E-01
    8991.429     -4.859   0.840  3.77317E-01  7.26221E-01 -3.48904E-01
    8991.691     -4.596   0.880  3.94591E-01  7.40760E-01 -3.46169E-01
    8991.965     -4.322   0.920  4.15251E-01  7.54870E-01 -3.39618E-01
    8992.252     -4.036   0.960  4.40614E-01  7.68592E-01 -3.27978E-01
    8992.550     -3.737   1.000  4.69779E-01  7.81956E-01 -3.12177E-01
    8992.861     -3.426   1.040  4.99776E-01  7.94998E-01 -2.95222E-01
    8993.184     -3.103   1.080  5.28567E-01  8.07686E-01 -2.79119E-01
    8993.520     -2.768   1.120  5.57060E-01  8.20063E-01 -2.63003E-01
    8993.867     -2.420   1.160  5.87471E-01  8.32103E-01 -2.44633E-01
    8994.227     -2.061   1.200  6.20985E-01  8.43819E-01 -2.22834E-01
    8994.599     -1.689   1.240  6.56598E-01  8.55177E-01 -1.98578E-01
    8994.983     -1.305   1.280  6.93826E-01  8.66160E-01 -1.72334E-01
    8995.379     -0.908   1.320  7.35247E-01  8.76793E-01 -1.41546E-01
    8995.787     -0.500   1.360  7.84347E-01  8.87035E-01 -1.02689E-01
    8996.208     -0.079   1.400  8.41586E-01  8.96869E-01 -5.52828E-02
    8996.641      0.353   1.440  9.07273E-01  9.06313E-01  9.59937E-04
    8997.086      0.798   1.480  9.86657E-01  9.15326E-01  7.13311E-02
    8997.543      1.256   1.520  1.08448E+00  9.23910E-01  1.60569E-01
    8998.012      1.725   1.560  1.19392E+00  9.32064E-01  2.61852E-01
    8998.494      2.207   1.600  1.29427E+00  9.39789E-01  3.54485E-01
    8998.988      2.700   1.640  1.35723E+00  9.47066E-01  4.10162E-01
    8999.494      3.206   1.680  1.37845E+00  9.53897E-01  4.24548E-01
    9000.012      3.725   1.720  1.39293E+00  9.60285E-01  4.32643E-01
    9000.542      4.255   1.760  1.43252E+00  9.66232E-01  4.66291E-01
    9001.085      4.797   1.800  1.48442E+00  9.71765E-01  5.12651E-01
    9001.640      5.352   1.840  1.52217E+00  9.76847E-01  5.45324E-01
    9002.206      5.919   1.880  1.53176E+00  9.81545E-01  5.50218E-01
    9002.786      6.498   1.920  1.51023E+00  9.85805E-01  5.24423E-01
    9003.377      7.089   1.960  1.45758E+00  9.89695E-01  4.67881E-01
    9003.980      7.693   2.000  1.37953E+00  9.93200E-01  3.86333E-01
    9004.596      8.309   2.040  1.28988E+00  9.96330E-01  2.93554E-01
    9005.224      8.937   2.080  1.20845E+00  9.99113E-01  2.09338E-01
    9005.864      9.577   2.120  1.15195E+00  1.00156E+00  1.50394E-01
    9006.516     10.229   2.160  1.12125E+00  1.00367E+00  1.17578E-01
    9007.181     10.893   2.200  1.10439E+00  1.00551E+00  9.88882E-02
    9007.857     11.570   2.240  1.08730E+00  1.00703E+00  8.02719E-02
    9008.546     12.259   2.280  1.06341E+00  1.00831E+00  5.51038E-02
    9009.247     12.960   2.320  1.03238E+00  1.00932E+00  2.30570E-02
    9009.961     13.673   2.360  1.00010E+00  1.01011E+00 -1.00057E-02
    9010.686     14.399   2.400  9.72833E-01  1.01068E+00 -3.78480E-02
    9011.424     15.136   2.440  9.58190E-01  1.01107E+00 -5.28815E-02
    9012.173     15.886   2.480  9.49005E-01  1.01127E+00 -6.22616E-02
    9012.935     16.648   2.520  9.41038E-01  1.01129E+00 -7.02547E-02
    9013.710     17.422   2.560  9.34002E-01  1.01118E+00 -7.71774E-02
    9014.496     18.209   2.600  9.28725E-01  1.01092E+00 -8.21922E-02
    9015.295     19.007   2.640  9.25509E-01  1.01055E+00 -8.50422E-02
    9016.105     19.818   2.680  9.23842E-01  1.01009E+00 -8.62479E-02
    9016.928     20.641   2.720  9.23556E-01  1.00952E+00 -8.59657E-02
    9017.763     21.476   2.760  9.24278E-01  1.00889E+00 -8.46127E-02
    9018.611     22.323   2.800  9.25514E-01  1.00819E+00 -8.26727E-02
    9019.470     23.183   2.840  9.26743E-01  1.00743E+00 -8.06894E-02
    9020.342     24.055   2.880  9.27156E-01  1.00663E+00 -7.94790E-02
    9021.226     24.938   2.920  9.25545E-01  1.00580E+00 -8.02556E-02
    9022.122     25.835   2.960  9.21235E-01  1.00495E+00 -8.37194E-02
    9023.030     26.743   3.000  9.14385E-01  1.00410E+00 -8.97170E-02
    9023.951     27.663   3.040  9.05968E-01  1.00325E+00 -9.72793E-02
    9024.883     28.596   3.080  8.97525E-01  1.00239E+00 -1.04869E-01
    9025.828     29.541   3.120  8.90841E-01  1.00154E+00 -1.10703E-01
    9026.785     30.498   3.160  8.86866E-01  1.00072E+00 -1.13859E-01
    9027.755     31.467   3.200  8.86051E-01  9.99938E-01 -1.13887E-01
    9028.736     32.449   3.240  8.88312E-01  9.99187E-01 -1.10875E-01
    9029.730     33.442   3.280  8.92821E-01  9.98452E-01 -1.05631E-01
    9030.736     34.448   3.320  8.98657E-01  9.97777E-01 -9.91194E-02
    9031.754     35.466   3.360  9.05190E-01  9.97122E-01 -9.19329E-02
    9032.784     36.496   3.400  9.12241E-01  9.96533E-01 -8.42920E-02
    9033.826     37.539   3.440  9.19550E-01  9.95989E-01 -7.64384E-02
    9034.881     38.593   3.480  9.27135E-01  9.95512E-01 -6.83767E-02
    9035.948     39.660   3.520  9.35061E-01  9.95082E-01 -6.00212E-02
    9037.027     40.739   3.560  9.43566E-01  9.94701E-01 -5.11353E-02
    9038.118     41.830   3.600  9.53135E-01  9.94390E-01 -4.12552E-02
    9039.221     42.934   3.640  9.64352E-01  9.94150E-01 -2.97976E-02
    9040.337     44.049   3.680  9.77689E-01  9.93959E-01 -1.62700E-02
    9041.465     45.177   3.720  9.93261E-01  9.93816E-01 -5.55318E-04
    9042.604     46.317   3.760  1.01096E+00  9.93745E-01  1.72119E-02
    9043.757     47.469   3.800  1.03020E+00  9.93745E-01  3.64509E-02
    9044.921     48.634   3.840  1.04972E+00  9.93793E-01  5.59259E-02
    9046.097     49.810   3.880  1.06806E+00  9.93889E-01  7.41679E-02
    9047.286     50.999   3.920  1.08378E+00  9.94053E-01  8.97239E-02
    9048.487     52.200   3.960  1.09563E+00  9.94264E-01  1.01364E-01
    9049.700     53.413   4.000  1.10277E+00  9.94543E-01  1.08227E-01
    9050.925     54.638   4.040  1.10479E+00  9.94844E-01  1.09944E-01
    9052.163     55.876   4.080  1.10191E+00  9.95208E-01  1.06705E-01
    9053.413     57.125   4.120  1.09498E+00  9.95617E-01  9.93604E-02
    9054.674     58.387   4.160  1.08549E+00  9.96069E-01  8.94185E-02
    9055.949     59.661   4.200  1.07504E+00  9.96581E-01  7.84578E-02
    9057.235     60.947   4.240  1.06486E+00  9.97110E-01  6.77461E-02
    9058.533     62.246   4.280  1.05574E+00  9.97674E-01  5.80676E-02
    9059.844     63.556   4.320  1.04786E+00  9.98249E-01  4.96140E-02
    9061.167     64.879   4.360  1.04092E+00  9.98857E-01  4.20585E-02
    9062.502     66.214   4.400  1.03440E+00  9.99496E-01  3.49077E-02
    9063.849     67.562   4.440  1.02805E+00  1.00015E+00  2.79057E-02
    9065.208     68.921   4.480  1.02200E+00  1.00082E+00  2.11806E-02
    9066.580     70.293   4.520  1.01672E+00  1.00151E+00  1.52112E-02
    9067.964     71.676   4.560  1.01277E+00  1.00219E+00  1.05771E-02
    9069.360     73.072   4.600  1.01050E+00  1.00288E+00  7.62090E-03
    9070.768     74.480   4.640  1.00984E+00  1.00359E+00  6.24985E-03
    9072.188     75.901   4.680  1.01028E+00  1.00427E+00  6.01555E-03
    9073.621     77.333   4.720  1.01127E+00  1.00494E+00  6.32652E-03
    9075.066     78.778   4.760  1.01222E+00  1.00559E+00  6.62427E-03
    9076.522     80.235   4.800  1.01267E+00  1.00626E+00  6.41155E-03
    9077.992     81.704   4.840  1.01205E+00  1.00689E+00  5.16126E-03
    9079.473     83.186   4.880  1.00985E+00  1.00749E+00  2.36309E-03
    9080.966     84.679   4.920  1.00575E+00  1.00808E+00 -2.32738E-03
    9082.472     86.185   4.960  9.99683E-01  1.00863E+00 -8.94599E-03
    9083.990     87.703   5.000  9.92050E-01  1.00914E+00 -1.70935E-02
    9085.520     89.233   5.040  9.83611E-01  1.00964E+00 -2.60300E-02
    9087.062     90.775   5.080  9.75214E-01  1.01008E+00 -3.48647E-02
    9088.617     92.329   5.120  9.67741E-01  1.01050E+00 -4.27560E-02
    9090.184     93.896   5.160  9.61755E-01  1.01087E+00 -4.91194E-02
    9091.762     95.475   5.200  9.57613E-01  1.01119E+00 -5.35747E-02
    9093.353     97.066   5.240  9.55530E-01  1.01148E+00 -5.59489E-02
    9094.957     98.669   5.280  9.55463E-01  1.01171E+00 -5.62430E-02
    9096.572    100.285   5.320  9.57289E-01  1.01191E+00 -5.46221E-02
    9098.200    101.912   5.360  9.60763E-01  1.01205E+00 -5.12878E-02
    9099.840    103.552   5.400  9.65780E-01  1.01215E+00 -4.63655E-02
    9101.492    105.204   5.440  9.72236E-01  1.01219E+00 -3.99581E-02
    9103.156    106.868   5.480  9.79873E-01  1.01220E+00 -3.23255E-02
    9104.832    108.545   5.520  9.88090E-01  1.01213E+00 -2.40444E-02
    9106.521    110.233   5.560  9.96095E-01  1.01203E+00 -1.59298E-02
    9108.222    111.934   5.600  1.00313E+00  1.01187E+00 -8.74061E-03
    9109.935    113.647   5.640  1.00876E+00  1.01168E+00 -2.91317E-03
    9111.660    115.372   5.680  1.01285E+00  1.01144E+00  1.40631E-03
    9113.397    117.110   5.720  1.01523E+00  1.01116E+00  4.06838E-03
    9115.147    118.859   5.760  1.01557E+00  1.01082E+00  4.75706E-03
    9116.908    120.621   5.800  1.01366E+00  1.01045E+00  3.20294E-03
    9118.682    122.395   5.840  1.00966E+00  1.01006E+00 -3.96180E-04
    9120.468    124.181   5.880  1.00451E+00  1.00960E+00 -5.08398E-03
    9122.267    125.979   5.920  9.99614E-01  1.00913E+00 -9.51186E-03
    9124.077    127.790   5.960  9.96442E-01  1.00863E+00 -1.21838E-02
    9125.900    129.612   6.000  9.96053E-01  1.00806E+00 -1.20092E-02
