# # comment:                                                     FEFF 9.9.1  
# # Source:
# # Structure
# # Reduced
# # space
# # abc:
# # angles:
# # sites:
# # POT  SCF 100  7.0000   0, screened core-hole, AFOLP (folp(0)= 1.150)
# # Abs   Z=29 Rmt= 1.262 Rnm= 1.328 K  shell
# # Pot 1 Z= 3 Rmt= 1.259 Rnm= 1.339
# # Pot 2 Z=29 Rmt= 1.262 Rnm= 1.328
# # Pot 3 Z=15 Rmt= 0.941 Rnm= 1.152
# # Pot 4 Z= 8 Rmt= 0.910 Rnm= 1.041
# # Gam_ch=1.729E+00 H-L exch Vi= 0.000E+00 Vr= 0.000E+00
# # Mu=-5.954E+00eV kf=2.359E+00 Vint=-1.735E+01eV Rs_int= 1.537
# FMS rfms= 9.0000
# # PATH  Rmax=-1.000,  Keep_limit= 0.00, Heap_limit 0.00  Pwcrit= 2.50%
#  S02=0.950  Temp=   0.00  Debye_temp=   0.00  Global_sig2= 0.00000
#  Energy zero shift, vr, vi    0.00000E+00   0.00000E+00
#  Curved wave amplitude ratio filter   4.000%
#     file         sig2 tot  cw amp ratio   deg  nlegs   reff  inp sig2
#     0/   0 paths used
#  xsedge+ 50, used to normalize mu           2.4727E-04
#  -----------------------------------------------------------------------
#  omega    e    k    mu    mu0     chi     @#
    8983.793     -9.764  -1.000  3.97780E-02  5.59106E-02 -1.61326E-02
    8984.092     -9.465  -0.960  4.18878E-02  6.00808E-02 -1.81930E-02
    8984.378     -9.178  -0.920  4.41729E-02  6.47265E-02 -2.05536E-02
    8984.653     -8.904  -0.880  4.66564E-02  6.99190E-02 -2.32626E-02
    8984.915     -8.642  -0.840  4.93656E-02  7.57414E-02 -2.63758E-02
    8985.165     -8.392  -0.800  5.23324E-02  8.22901E-02 -2.99578E-02
    8985.402     -8.154  -0.760  5.55939E-02  8.96761E-02 -3.40823E-02
    8985.628     -7.929  -0.720  5.91925E-02  9.80248E-02 -3.88322E-02
    8985.841     -7.715  -0.680  6.31759E-02  1.07475E-01 -4.42987E-02
    8986.042     -7.514  -0.640  6.75945E-02  1.18172E-01 -5.05776E-02
    8986.231     -7.325  -0.600  7.24976E-02  1.30261E-01 -5.77638E-02
    8986.408     -7.149  -0.560  7.79259E-02  1.43866E-01 -6.59403E-02
    8986.573     -6.984  -0.520  8.38988E-02  1.59061E-01 -7.51620E-02
    8986.725     -6.832  -0.480  9.03977E-02  1.75831E-01 -8.54335E-02
    8986.865     -6.691  -0.440  9.73460E-02  1.94029E-01 -9.66832E-02
    8986.993     -6.563  -0.400  1.04595E-01  2.13334E-01 -1.08740E-01
    8987.109     -6.447  -0.360  1.11921E-01  2.33242E-01 -1.21322E-01
    8987.213     -6.344  -0.320  1.19049E-01  2.53097E-01 -1.34048E-01
    8987.304     -6.252  -0.280  1.25697E-01  2.72172E-01 -1.46474E-01
    8987.384     -6.173  -0.240  1.31623E-01  2.89769E-01 -1.58146E-01
    8987.451     -6.106  -0.200  1.36660E-01  3.05308E-01 -1.68648E-01
    8987.505     -6.051  -0.160  1.40717E-01  3.18367E-01 -1.77649E-01
    8987.548     -6.009  -0.120  1.43755E-01  3.28680E-01 -1.84925E-01
    8987.579     -5.978  -0.080  1.45777E-01  3.36105E-01 -1.90328E-01
    8987.603     -5.954   0.000  1.47124E-01  3.42066E-01 -1.94942E-01
    8987.658     -5.899   0.120  1.52114E-01  3.55500E-01 -2.03386E-01
    8987.701     -5.856   0.160  1.55709E-01  3.65915E-01 -2.10206E-01
    8987.755     -5.801   0.200  1.60138E-01  3.79186E-01 -2.19048E-01
    8987.822     -5.734   0.240  1.65202E-01  3.95129E-01 -2.29927E-01
    8987.902     -5.655   0.280  1.70604E-01  4.13355E-01 -2.42752E-01
    8987.993     -5.564   0.320  1.76112E-01  4.33383E-01 -2.57271E-01
    8988.097     -5.460   0.360  1.81535E-01  4.54571E-01 -2.73036E-01
    8988.213     -5.344   0.400  1.86891E-01  4.76280E-01 -2.89389E-01
    8988.341     -5.216   0.440  1.92363E-01  4.97872E-01 -3.05508E-01
    8988.481     -5.076   0.480  1.98393E-01  5.18906E-01 -3.20513E-01
    8988.633     -4.923   0.520  2.05478E-01  5.39048E-01 -3.33569E-01
    8988.798     -4.759   0.560  2.14160E-01  5.58183E-01 -3.44023E-01
    8988.975     -4.582   0.600  2.24866E-01  5.76280E-01 -3.51414E-01
    8989.164     -4.393   0.640  2.37737E-01  5.93407E-01 -3.55670E-01
    8989.365     -4.192   0.680  2.52475E-01  6.09658E-01 -3.57183E-01
    8989.578     -3.979   0.720  2.68086E-01  6.25117E-01 -3.57031E-01
    8989.804     -3.753   0.760  2.83277E-01  6.39954E-01 -3.56677E-01
    8990.041     -3.515   0.800  2.97110E-01  6.54248E-01 -3.57138E-01
    8990.291     -3.265   0.840  3.10004E-01  6.68080E-01 -3.58076E-01
    8990.553     -3.003   0.880  3.23199E-01  6.81520E-01 -3.58321E-01
    8990.828     -2.729   0.920  3.37553E-01  6.94663E-01 -3.57110E-01
    8991.114     -2.442   0.960  3.53550E-01  7.07528E-01 -3.53978E-01
    8991.413     -2.144   1.000  3.72496E-01  7.20143E-01 -3.47647E-01
    8991.724     -1.833   1.040  3.96523E-01  7.32549E-01 -3.36026E-01
    8992.047     -1.510   1.080  4.27374E-01  7.44735E-01 -3.17361E-01
    8992.382     -1.174   1.120  4.65777E-01  7.56744E-01 -2.90967E-01
    8992.730     -0.827   1.160  5.10953E-01  7.68554E-01 -2.57602E-01
    8993.089     -0.467   1.200  5.59326E-01  7.80177E-01 -2.20851E-01
    8993.461     -0.095   1.240  6.03190E-01  7.91601E-01 -1.88411E-01
    8993.845      0.289   1.280  6.37021E-01  8.02813E-01 -1.65792E-01
    8994.242      0.685   1.320  6.67110E-01  8.13793E-01 -1.46683E-01
    8994.650      1.093   1.360  7.02402E-01  8.24543E-01 -1.22141E-01
    8995.071      1.514   1.400  7.45142E-01  8.35042E-01 -8.99008E-02
    8995.503      1.947   1.440  8.01841E-01  8.45270E-01 -4.34289E-02
    8995.948      2.392   1.480  8.81225E-01  8.55244E-01  2.59813E-02
    8996.406      2.849   1.520  9.83049E-01  8.64900E-01  1.18149E-01
    8996.875      3.318   1.560  1.10352E+00  8.74276E-01  2.29247E-01
    8997.357      3.800   1.600  1.24160E+00  8.83328E-01  3.58271E-01
    8997.850      4.294   1.640  1.38820E+00  8.92055E-01  4.96150E-01
    8998.356      4.800   1.680  1.50361E+00  9.00454E-01  6.03152E-01
    8998.874      5.318   1.720  1.51859E+00  9.08501E-01  6.10092E-01
    8999.405      5.848   1.760  1.41857E+00  9.16196E-01  5.02371E-01
    8999.947      6.391   1.800  1.27714E+00  9.23539E-01  3.53598E-01
    9000.502      6.945   1.840  1.15460E+00  9.30528E-01  2.24071E-01
    9001.069      7.512   1.880  1.06812E+00  9.37162E-01  1.30955E-01
    9001.648      8.091   1.920  1.01590E+00  9.43422E-01  7.24825E-02
    9002.239      8.683   1.960  9.94962E-01  9.49312E-01  4.56505E-02
    9002.843      9.286   2.000  1.00133E+00  9.54872E-01  4.64577E-02
    9003.459      9.902   2.040  1.02896E+00  9.60045E-01  6.89119E-02
    9004.087     10.530   2.080  1.07011E+00  9.64894E-01  1.05219E-01
    9004.727     11.170   2.120  1.11140E+00  9.69383E-01  1.42013E-01
    9005.379     11.822   2.160  1.13767E+00  9.73558E-01  1.64114E-01
    9006.043     12.487   2.200  1.14364E+00  9.77381E-01  1.66257E-01
    9006.720     13.163   2.240  1.13726E+00  9.80898E-01  1.56360E-01
    9007.409     13.852   2.280  1.13058E+00  9.84116E-01  1.46463E-01
    9008.110     14.553   2.320  1.13015E+00  9.87018E-01  1.43136E-01
    9008.823     15.266   2.360  1.13402E+00  9.89651E-01  1.44364E-01
    9009.549     15.992   2.400  1.13536E+00  9.92003E-01  1.43357E-01
    9010.286     16.729   2.440  1.12903E+00  9.94099E-01  1.34932E-01
    9011.036     17.479   2.480  1.11561E+00  9.95924E-01  1.19681E-01
    9011.798     18.241   2.520  1.09901E+00  9.97528E-01  1.01478E-01
    9012.572     19.015   2.560  1.08189E+00  9.98917E-01  8.29699E-02
    9013.358     19.802   2.600  1.06297E+00  1.00010E+00  6.28720E-02
    9014.157     20.600   2.640  1.03851E+00  1.00108E+00  3.74308E-02
    9014.968     21.411   2.680  1.01110E+00  1.00186E+00  9.24667E-03
    9015.791     22.234   2.720  9.90491E-01  1.00247E+00 -1.19762E-02
    9016.626     23.069   2.760  9.80676E-01  1.00294E+00 -2.22600E-02
    9017.473     23.917   2.800  9.72273E-01  1.00325E+00 -3.09762E-02
    9018.333     24.776   2.840  9.58763E-01  1.00341E+00 -4.46495E-02
    9019.205     25.648   2.880  9.40001E-01  1.00347E+00 -6.34703E-02
    9020.088     26.532   2.920  9.17989E-01  1.00341E+00 -8.54227E-02
    9020.985     27.428   2.960  8.95090E-01  1.00326E+00 -1.08169E-01
    9021.893     28.336   3.000  8.73830E-01  1.00300E+00 -1.29172E-01
    9022.813     29.257   3.040  8.56226E-01  1.00268E+00 -1.46458E-01
    9023.746     30.189   3.080  8.42916E-01  1.00229E+00 -1.59374E-01
    9024.691     31.134   3.120  8.34060E-01  1.00184E+00 -1.67785E-01
    9025.648     32.091   3.160  8.29628E-01  1.00135E+00 -1.71723E-01
    9026.617     33.061   3.200  8.29500E-01  1.00080E+00 -1.71296E-01
    9027.599     34.042   3.240  8.33805E-01  1.00022E+00 -1.66417E-01
    9028.592     35.036   3.280  8.42539E-01  9.99613E-01 -1.57074E-01
    9029.598     36.041   3.320  8.54614E-01  9.98994E-01 -1.44380E-01
    9030.616     37.059   3.360  8.68787E-01  9.98370E-01 -1.29582E-01
    9031.646     38.090   3.400  8.83941E-01  9.97719E-01 -1.13778E-01
    9032.689     39.132   3.440  8.99238E-01  9.97086E-01 -9.78482E-02
    9033.743     40.187   3.480  9.14095E-01  9.96435E-01 -8.23402E-02
    9034.810     41.254   3.520  9.28419E-01  9.95810E-01 -6.73908E-02
    9035.889     42.333   3.560  9.42254E-01  9.95210E-01 -5.29564E-02
    9036.980     43.424   3.600  9.55663E-01  9.94619E-01 -3.89568E-02
    9038.084     44.527   3.640  9.68813E-01  9.94037E-01 -2.52238E-02
    9039.199     45.643   3.680  9.81832E-01  9.93487E-01 -1.16554E-02
    9040.327     46.770   3.720  9.94657E-01  9.92972E-01  1.68486E-03
    9041.467     47.910   3.760  1.00709E+00  9.92493E-01  1.45948E-02
    9042.619     49.062   3.800  1.01882E+00  9.92051E-01  2.67652E-02
    9043.784     50.227   3.840  1.02950E+00  9.91624E-01  3.78811E-02
    9044.960     51.403   3.880  1.03911E+00  9.91256E-01  4.78502E-02
    9046.149     52.592   3.920  1.04779E+00  9.90907E-01  5.68800E-02
    9047.350     53.793   3.960  1.05583E+00  9.90618E-01  6.52099E-02
    9048.563     55.006   4.000  1.06316E+00  9.90368E-01  7.27966E-02
    9049.788     56.231   4.040  1.06952E+00  9.90135E-01  7.93820E-02
    9051.026     57.469   4.080  1.07450E+00  9.89964E-01  8.45337E-02
    9052.275     58.718   4.120  1.07768E+00  9.89812E-01  8.78722E-02
    9053.537     59.980   4.160  1.07899E+00  9.89719E-01  8.92714E-02
    9054.811     61.254   4.200  1.07862E+00  9.89666E-01  8.89552E-02
    9056.097     62.541   4.240  1.07699E+00  9.89630E-01  8.73569E-02
    9057.396     63.839   4.280  1.07458E+00  9.89654E-01  8.49224E-02
    9058.706     65.150   4.320  1.07162E+00  9.89696E-01  8.19282E-02
    9060.029     66.473   4.360  1.06800E+00  9.89795E-01  7.82021E-02
    9061.364     67.808   4.400  1.06318E+00  9.89910E-01  7.32691E-02
    9062.712     69.155   4.440  1.05680E+00  9.90058E-01  6.67391E-02
    9064.071     70.514   4.480  1.04878E+00  9.90242E-01  5.85423E-02
    9065.443     71.886   4.520  1.03937E+00  9.90437E-01  4.89375E-02
    9066.826     73.270   4.560  1.02903E+00  9.90664E-01  3.83648E-02
    9068.222     74.666   4.600  1.01817E+00  9.90925E-01  2.72460E-02
    9069.630     76.074   4.640  1.00713E+00  9.91195E-01  1.59378E-02
    9071.051     77.494   4.680  9.96399E-01  9.91494E-01  4.90497E-03
    9072.483     78.927   4.720  9.86512E-01  9.91798E-01 -5.28650E-03
    9073.928     80.371   4.760  9.77977E-01  9.92108E-01 -1.41305E-02
    9075.385     81.828   4.800  9.71121E-01  9.92441E-01 -2.13201E-02
    9076.854     83.297   4.840  9.65886E-01  9.92756E-01 -2.68696E-02
    9078.335     84.779   4.880  9.62118E-01  9.93096E-01 -3.09774E-02
    9079.829     86.272   4.920  9.59558E-01  9.93438E-01 -3.38799E-02
    9081.335     87.778   4.960  9.57994E-01  9.93799E-01 -3.58055E-02
    9082.853     89.296   5.000  9.57140E-01  9.94115E-01 -3.69757E-02
    9084.383     90.826   5.040  9.56794E-01  9.94450E-01 -3.76560E-02
    9085.925     92.368   5.080  9.56635E-01  9.94781E-01 -3.81466E-02
    9087.479     93.923   5.120  9.56423E-01  9.95084E-01 -3.86612E-02
    9089.046     95.489   5.160  9.56123E-01  9.95380E-01 -3.92570E-02
    9090.625     97.068   5.200  9.55910E-01  9.95670E-01 -3.97595E-02
    9092.216     98.659   5.240  9.56101E-01  9.95929E-01 -3.98283E-02
    9093.819    100.263   5.280  9.57103E-01  9.96178E-01 -3.90753E-02
    9095.435    101.878   5.320  9.59185E-01  9.96396E-01 -3.72107E-02
    9097.062    103.506   5.360  9.62409E-01  9.96602E-01 -3.41927E-02
    9098.702    105.145   5.400  9.66493E-01  9.96773E-01 -3.02806E-02
    9100.354    106.797   5.440  9.70927E-01  9.96911E-01 -2.59831E-02
    9102.018    108.462   5.480  9.75148E-01  9.97034E-01 -2.18859E-02
    9103.695    110.138   5.520  9.78654E-01  9.97122E-01 -1.84682E-02
    9105.383    111.827   5.560  9.81257E-01  9.97173E-01 -1.59163E-02
    9107.084    113.527   5.600  9.83087E-01  9.97186E-01 -1.40991E-02
    9108.797    115.240   5.640  9.84439E-01  9.97184E-01 -1.27456E-02
    9110.522    116.966   5.680  9.85511E-01  9.97123E-01 -1.16119E-02
    9112.260    118.703   5.720  9.86540E-01  9.97048E-01 -1.05087E-02
    9114.009    120.452   5.760  9.87622E-01  9.96938E-01 -9.31623E-03
    9115.771    122.214   5.800  9.88725E-01  9.96814E-01 -8.08869E-03
    9117.545    123.988   5.840  9.89511E-01  9.96629E-01 -7.11831E-03
    9119.331    125.774   5.880  9.89594E-01  9.96408E-01 -6.81335E-03
    9121.129    127.573   5.920  9.88783E-01  9.96176E-01 -7.39317E-03
    9122.940    129.383   5.960  9.87322E-01  9.95910E-01 -8.58808E-03
    9124.762    131.206   6.000  9.85985E-01  9.95585E-01 -9.59921E-03
