# # comment:                                                     FEFF 9.9.1  
# # Source:
# # Structure
# # Reduced
# # space
# # abc:
# # angles:
# # sites:
# # POT  SCF 100  7.0000   0, screened core-hole, AFOLP (folp(0)= 1.150)
# # Abs   Z=29 Rmt= 1.270 Rnm= 1.325 K  shell
# # Pot 1 Z=25 Rmt= 1.292 Rnm= 1.398
# # Pot 2 Z=29 Rmt= 1.269 Rnm= 1.347
# # Pot 3 Z= 8 Rmt= 1.028 Rnm= 1.102
# # Gam_ch=1.729E+00 H-L exch Vi= 0.000E+00 Vr= 0.000E+00
# # Mu=-1.051E+01eV kf=2.175E+00 Vint=-1.779E+01eV Rs_int= 1.668
# FMS rfms= 9.0000
# # PATH  Rmax=-1.000,  Keep_limit= 0.00, Heap_limit 0.00  Pwcrit= 2.50%
#  S02=0.950  Temp=   0.00  Debye_temp=   0.00  Global_sig2= 0.00000
#  Energy zero shift, vr, vi    0.00000E+00   0.00000E+00
#  Curved wave amplitude ratio filter   4.000%
#     file         sig2 tot  cw amp ratio   deg  nlegs   reff  inp sig2
#     0/   0 paths used
#  xsedge+ 50, used to normalize mu           2.4732E-04
#  -----------------------------------------------------------------------
#  omega    e    k    mu    mu0     chi     @#
    8984.729    -14.320  -1.000  3.07710E-02  4.82455E-02 -1.74745E-02
    8985.028    -14.021  -0.960  3.21109E-02  5.15761E-02 -1.94652E-02
    8985.314    -13.735  -0.920  3.35398E-02  5.52622E-02 -2.17224E-02
    8985.589    -13.460  -0.880  3.50689E-02  5.93546E-02 -2.42857E-02
    8985.851    -13.198  -0.840  3.67115E-02  6.39127E-02 -2.72012E-02
    8986.101    -12.948  -0.800  3.84832E-02  6.90048E-02 -3.05216E-02
    8986.338    -12.711  -0.760  4.04026E-02  7.47094E-02 -3.43068E-02
    8986.564    -12.485  -0.720  4.24908E-02  8.11147E-02 -3.86240E-02
    8986.777    -12.272  -0.680  4.47716E-02  8.83180E-02 -4.35463E-02
    8986.979    -12.071  -0.640  4.72708E-02  9.64212E-02 -4.91505E-02
    8987.167    -11.882  -0.600  5.00135E-02  1.05524E-01 -5.55109E-02
    8987.344    -11.705  -0.560  5.30218E-02  1.15712E-01 -6.26905E-02
    8987.509    -11.540  -0.520  5.63084E-02  1.27034E-01 -7.07259E-02
    8987.661    -11.388  -0.480  5.98695E-02  1.39477E-01 -7.96072E-02
    8987.801    -11.248  -0.440  6.36756E-02  1.52931E-01 -8.92555E-02
    8987.929    -11.120  -0.400  6.76644E-02  1.67167E-01 -9.95025E-02
    8988.045    -11.004  -0.360  7.17376E-02  1.81823E-01 -1.10085E-01
    8988.149    -10.900  -0.320  7.57679E-02  1.96431E-01 -1.20663E-01
    8988.240    -10.809  -0.280  7.96138E-02  2.10468E-01 -1.30855E-01
    8988.320    -10.729  -0.240  8.31404E-02  2.23433E-01 -1.40292E-01
    8988.387    -10.662  -0.200  8.62367E-02  2.34900E-01 -1.48663E-01
    8988.442    -10.608  -0.160  8.88254E-02  2.44556E-01 -1.55730E-01
    8988.484    -10.565  -0.120  9.08617E-02  2.52197E-01 -1.61335E-01
    8988.515    -10.534  -0.080  9.23248E-02  2.57707E-01 -1.65382E-01
    8988.539    -10.510   0.000  9.35026E-02  2.62138E-01 -1.68635E-01
    8988.594    -10.455   0.120  9.60766E-02  2.72137E-01 -1.76061E-01
    8988.637    -10.412   0.160  9.80695E-02  2.79941E-01 -1.81872E-01
    8988.691    -10.358   0.200  1.00511E-01  2.89908E-01 -1.89397E-01
    8988.759    -10.291   0.240  1.03347E-01  3.01924E-01 -1.98577E-01
    8988.838    -10.211   0.280  1.06429E-01  3.15795E-01 -2.09366E-01
    8988.929    -10.120   0.320  1.09561E-01  3.31185E-01 -2.21624E-01
    8989.033    -10.016   0.360  1.12497E-01  3.47717E-01 -2.35220E-01
    8989.149     -9.900   0.400  1.15028E-01  3.64924E-01 -2.49896E-01
    8989.277     -9.772   0.440  1.17080E-01  3.82440E-01 -2.65360E-01
    8989.417     -9.632   0.480  1.18776E-01  3.99943E-01 -2.81167E-01
    8989.569     -9.480   0.520  1.20514E-01  4.17261E-01 -2.96747E-01
    8989.734     -9.315   0.560  1.22613E-01  4.34249E-01 -3.11635E-01
    8989.911     -9.138   0.600  1.25424E-01  4.50937E-01 -3.25513E-01
    8990.100     -8.949   0.640  1.28903E-01  4.67350E-01 -3.38447E-01
    8990.301     -8.748   0.680  1.32708E-01  4.83516E-01 -3.50808E-01
    8990.514     -8.535   0.720  1.36324E-01  4.99537E-01 -3.63212E-01
    8990.740     -8.309   0.760  1.39409E-01  5.15469E-01 -3.76061E-01
    8990.977     -8.072   0.800  1.42165E-01  5.31344E-01 -3.89180E-01
    8991.227     -7.822   0.840  1.45494E-01  5.47220E-01 -4.01725E-01
    8991.490     -7.560   0.880  1.50362E-01  5.63123E-01 -4.12761E-01
    8991.764     -7.285   0.920  1.57470E-01  5.79074E-01 -4.21605E-01
    8992.050     -6.999   0.960  1.67483E-01  5.95078E-01 -4.27595E-01
    8992.349     -6.700   1.000  1.81418E-01  6.11133E-01 -4.29715E-01
    8992.660     -6.389   1.040  2.00403E-01  6.27231E-01 -4.26828E-01
    8992.983     -6.066   1.080  2.24845E-01  6.43336E-01 -4.18490E-01
    8993.318     -5.731   1.120  2.53884E-01  6.59428E-01 -4.05544E-01
    8993.666     -5.383   1.160  2.85779E-01  6.75503E-01 -3.89724E-01
    8994.025     -5.024   1.200  3.18785E-01  6.91492E-01 -3.72707E-01
    8994.397     -4.652   1.240  3.52838E-01  7.07385E-01 -3.54546E-01
    8994.781     -4.268   1.280  3.89839E-01  7.23127E-01 -3.33288E-01
    8995.178     -3.871   1.320  4.31310E-01  7.38704E-01 -3.07394E-01
    8995.586     -3.463   1.360  4.79835E-01  7.54042E-01 -2.74207E-01
    8996.007     -3.042   1.400  5.39755E-01  7.69145E-01 -2.29390E-01
    8996.439     -2.610   1.440  6.10365E-01  7.83937E-01 -1.73571E-01
    8996.884     -2.165   1.480  6.84945E-01  7.98380E-01 -1.13436E-01
    8997.342     -1.707   1.520  7.58146E-01  8.12481E-01 -5.43345E-02
    8997.811     -1.238   1.560  8.24573E-01  8.26166E-01 -1.59298E-03
    8998.293     -0.756   1.600  8.69385E-01  8.39440E-01  2.99448E-02
    8998.786     -0.263   1.640  8.85335E-01  8.52232E-01  3.31036E-02
    8999.292      0.243   1.680  8.98047E-01  8.64551E-01  3.34963E-02
    8999.811      0.761   1.720  9.47197E-01  8.76389E-01  7.08079E-02
    9000.341      1.292   1.760  1.05764E+00  8.87696E-01  1.69947E-01
    9000.883      1.834   1.800  1.21947E+00  8.98468E-01  3.21005E-01
    9001.438      2.389   1.840  1.39605E+00  9.08700E-01  4.87354E-01
    9002.005      2.956   1.880  1.56447E+00  9.18389E-01  6.46079E-01
    9002.584      3.535   1.920  1.72099E+00  9.27533E-01  7.93460E-01
    9003.176      4.126   1.960  1.85017E+00  9.36112E-01  9.14055E-01
    9003.779      4.730   2.000  1.88297E+00  9.44129E-01  9.38840E-01
    9004.395      5.346   2.040  1.79541E+00  9.51627E-01  8.43784E-01
    9005.023      5.974   2.080  1.63973E+00  9.58568E-01  6.81164E-01
    9005.663      6.614   2.120  1.44208E+00  9.65001E-01  4.77076E-01
    9006.315      7.266   2.160  1.23557E+00  9.70909E-01  2.64666E-01
    9006.979      7.930   2.200  1.07046E+00  9.76321E-01  9.41405E-02
    9007.656      8.607   2.240  9.64836E-01  9.81225E-01 -1.63894E-02
    9008.345      9.296   2.280  9.07024E-01  9.85689E-01 -7.86645E-02
    9009.046      9.997   2.320  8.81665E-01  9.89682E-01 -1.08017E-01
    9009.759     10.710   2.360  8.78572E-01  9.93257E-01 -1.14685E-01
    9010.485     11.435   2.400  8.84589E-01  9.96422E-01 -1.11833E-01
    9011.222     12.173   2.440  8.80675E-01  9.99188E-01 -1.18513E-01
    9011.972     12.923   2.480  8.71188E-01  1.00161E+00 -1.30417E-01
    9012.734     13.685   2.520  8.88208E-01  1.00367E+00 -1.15458E-01
    9013.508     14.459   2.560  9.43841E-01  1.00538E+00 -6.15371E-02
    9014.295     15.245   2.600  9.97577E-01  1.00681E+00 -9.23667E-03
    9015.093     16.044   2.640  1.01177E+00  1.00794E+00  3.82898E-03
    9015.904     16.855   2.680  1.00462E+00  1.00882E+00 -4.20397E-03
    9016.727     17.678   2.720  9.90775E-01  1.00945E+00 -1.86776E-02
    9017.562     18.513   2.760  9.72426E-01  1.00987E+00 -3.74432E-02
    9018.409     19.360   2.800  9.49476E-01  1.01008E+00 -6.06078E-02
    9019.269     20.220   2.840  9.23843E-01  1.01010E+00 -8.62582E-02
    9020.141     21.092   2.880  8.97733E-01  1.00995E+00 -1.12219E-01
    9021.025     21.975   2.920  8.73148E-01  1.00964E+00 -1.36496E-01
    9021.921     22.872   2.960  8.51960E-01  1.00921E+00 -1.57248E-01
    9022.829     23.780   3.000  8.35041E-01  1.00867E+00 -1.73632E-01
    9023.749     24.700   3.040  8.22647E-01  1.00800E+00 -1.85356E-01
    9024.682     25.633   3.080  8.15065E-01  1.00727E+00 -1.92204E-01
    9025.627     26.578   3.120  8.11268E-01  1.00646E+00 -1.95188E-01
    9026.584     27.535   3.160  8.10634E-01  1.00557E+00 -1.94936E-01
    9027.553     28.504   3.200  8.13276E-01  1.00466E+00 -1.91382E-01
    9028.535     29.486   3.240  8.19574E-01  1.00369E+00 -1.84112E-01
    9029.528     30.479   3.280  8.29878E-01  1.00270E+00 -1.72820E-01
    9030.534     31.485   3.320  8.44010E-01  1.00168E+00 -1.57670E-01
    9031.552     32.503   3.360  8.61121E-01  1.00065E+00 -1.39533E-01
    9032.582     33.533   3.400  8.79647E-01  9.99627E-01 -1.19979E-01
    9033.625     34.576   3.440  8.98764E-01  9.98602E-01 -9.98380E-02
    9034.680     35.630   3.480  9.18630E-01  9.97604E-01 -7.89747E-02
    9035.746     36.697   3.520  9.39841E-01  9.96617E-01 -5.67755E-02
    9036.825     37.776   3.560  9.62967E-01  9.95661E-01 -3.26933E-02
    9037.916     38.867   3.600  9.88054E-01  9.94741E-01 -6.68741E-03
    9039.020     39.971   3.640  1.01453E+00  9.93858E-01  2.06680E-02
    9040.135     41.086   3.680  1.04141E+00  9.92993E-01  4.84140E-02
    9041.263     42.214   3.720  1.06747E+00  9.92190E-01  7.52803E-02
    9042.403     43.354   3.760  1.09128E+00  9.91430E-01  9.98520E-02
    9043.555     44.506   3.800  1.11156E+00  9.90714E-01  1.20841E-01
    9044.720     45.670   3.840  1.12812E+00  9.90066E-01  1.38056E-01
    9045.896     46.847   3.880  1.14188E+00  9.89463E-01  1.52419E-01
    9047.085     48.036   3.920  1.15424E+00  9.88906E-01  1.65334E-01
    9048.286     49.237   3.960  1.16613E+00  9.88418E-01  1.77710E-01
    9049.499     50.450   4.000  1.17701E+00  9.87977E-01  1.89034E-01
    9050.724     51.675   4.040  1.18461E+00  9.87606E-01  1.97009E-01
    9051.962     52.913   4.080  1.18550E+00  9.87280E-01  1.98222E-01
    9053.211     54.162   4.120  1.17689E+00  9.87002E-01  1.89893E-01
    9054.473     55.424   4.160  1.15800E+00  9.86792E-01  1.71205E-01
    9055.747     56.698   4.200  1.13052E+00  9.86630E-01  1.43895E-01
    9057.033     57.984   4.240  1.09819E+00  9.86536E-01  1.11658E-01
    9058.332     59.283   4.280  1.06519E+00  9.86487E-01  7.86999E-02
    9059.643     60.593   4.320  1.03475E+00  9.86483E-01  4.82720E-02
    9060.965     61.916   4.360  1.00844E+00  9.86543E-01  2.18928E-02
    9062.300     63.251   4.400  9.86056E-01  9.86625E-01 -5.69033E-04
    9063.648     64.598   4.440  9.66584E-01  9.86770E-01 -2.01865E-02
    9065.007     65.958   4.480  9.48983E-01  9.86955E-01 -3.79729E-02
    9066.379     67.329   4.520  9.32948E-01  9.87181E-01 -5.42322E-02
    9067.762     68.713   4.560  9.18817E-01  9.87422E-01 -6.86042E-02
    9069.158     70.109   4.600  9.07158E-01  9.87719E-01 -8.05617E-02
    9070.567     71.517   4.640  8.98321E-01  9.88032E-01 -8.97117E-02
    9071.987     72.938   4.680  8.92442E-01  9.88379E-01 -9.59368E-02
    9073.419     74.370   4.720  8.89438E-01  9.88759E-01 -9.93214E-02
    9074.864     75.815   4.760  8.89063E-01  9.89148E-01 -1.00086E-01
    9076.321     77.272   4.800  8.91131E-01  9.89567E-01 -9.84355E-02
    9077.790     78.741   4.840  8.95625E-01  9.89992E-01 -9.43666E-02
    9079.272     80.222   4.880  9.02605E-01  9.90421E-01 -8.78162E-02
    9080.765     81.716   4.920  9.11652E-01  9.90873E-01 -7.92211E-02
    9082.271     83.222   4.960  9.21858E-01  9.91306E-01 -6.94478E-02
    9083.789     84.740   5.000  9.32388E-01  9.91762E-01 -5.93740E-02
    9085.319     86.270   5.040  9.42809E-01  9.92215E-01 -4.94063E-02
    9086.861     87.812   5.080  9.53138E-01  9.92643E-01 -3.95044E-02
    9088.416     89.366   5.120  9.63692E-01  9.93065E-01 -2.93735E-02
    9089.982     90.933   5.160  9.75031E-01  9.93483E-01 -1.84513E-02
    9091.561     92.512   5.200  9.87722E-01  9.93894E-01 -6.17220E-03
    9093.152     94.103   5.240  1.00180E+00  9.94276E-01  7.52748E-03
    9094.755     95.706   5.280  1.01651E+00  9.94648E-01  2.18670E-02
    9096.371     97.322   5.320  1.03038E+00  9.94988E-01  3.53905E-02
    9097.998     98.949   5.360  1.04188E+00  9.95315E-01  4.65652E-02
    9099.638    100.589   5.400  1.04967E+00  9.95608E-01  5.40627E-02
    9101.290    102.241   5.440  1.05246E+00  9.95864E-01  5.65929E-02
    9102.954    103.905   5.480  1.04904E+00  9.96083E-01  5.29587E-02
    9104.631    105.582   5.520  1.03923E+00  9.96288E-01  4.29462E-02
    9106.319    107.270   5.560  1.02396E+00  9.96457E-01  2.74997E-02
    9108.020    108.971   5.600  1.00456E+00  9.96587E-01  7.96822E-03
    9109.733    110.684   5.640  9.82130E-01  9.96677E-01 -1.45472E-02
    9111.458    112.409   5.680  9.58034E-01  9.96727E-01 -3.86932E-02
    9113.196    114.147   5.720  9.34716E-01  9.96737E-01 -6.20211E-02
    9114.945    115.896   5.760  9.15470E-01  9.96707E-01 -8.12365E-02
    9116.707    117.658   5.800  9.03274E-01  9.96637E-01 -9.33637E-02
    9118.481    119.432   5.840  8.99838E-01  9.96530E-01 -9.66919E-02
    9120.267    121.218   5.880  9.05550E-01  9.96385E-01 -9.08349E-02
    9122.065    123.016   5.920  9.20018E-01  9.96227E-01 -7.62096E-02
    9123.876    124.827   5.960  9.42352E-01  9.96005E-01 -5.36533E-02
    9125.699    126.649   6.000  9.71837E-01  9.95719E-01 -2.38820E-02
