# # comment:                                                     FEFF 9.9.1  
# # Source:
# # Structure
# # Reduced
# # space
# # abc:
# # angles:107.586138
# # sites:
# # POT  SCF 100  7.0000   0, screened core-hole, AFOLP (folp(0)= 1.150)
# # Abs   Z=29 Rmt= 1.115 Rnm= 1.255 K  shell
# # Pot 1 Z=56 Rmt= 1.927 Rnm= 1.992
# # Pot 2 Z=38 Rmt= 1.831 Rnm= 1.904
# # Pot 3 Z=29 Rmt= 1.114 Rnm= 1.254
# # Pot 4 Z= 8 Rmt= 1.088 Rnm= 1.145
# # Gam_ch=1.729E+00 H-L exch Vi= 0.000E+00 Vr= 0.000E+00
# # Mu=-9.523E+00eV kf=1.987E+00 Vint=-1.648E+01eV Rs_int= 1.826
# FMS rfms= 9.0000
# # PATH  Rmax=-1.000,  Keep_limit= 0.00, Heap_limit 0.00  Pwcrit= 2.50%
#  S02=0.950  Temp=   0.00  Debye_temp=   0.00  Global_sig2= 0.00000
#  Energy zero shift, vr, vi    0.00000E+00   0.00000E+00
#  Curved wave amplitude ratio filter   4.000%
#     file         sig2 tot  cw amp ratio   deg  nlegs   reff  inp sig2
#     0/   0 paths used
#  xsedge+ 50, used to normalize mu           2.4557E-04
#  -----------------------------------------------------------------------
#  omega    e    k    mu    mu0     chi     @#
    8984.688    -13.333  -1.000  2.88736E-02  5.19019E-02 -2.30283E-02
    8984.987    -13.034  -0.960  3.00446E-02  5.55191E-02 -2.54744E-02
    8985.273    -12.747  -0.920  3.12855E-02  5.95220E-02 -2.82365E-02
    8985.548    -12.473  -0.880  3.26040E-02  6.39660E-02 -3.13620E-02
    8985.810    -12.211  -0.840  3.40088E-02  6.89149E-02 -3.49061E-02
    8986.060    -11.961  -0.800  3.55103E-02  7.44427E-02 -3.89323E-02
    8986.298    -11.723  -0.760  3.71205E-02  8.06339E-02 -4.35134E-02
    8986.523    -11.498  -0.720  3.88528E-02  8.75840E-02 -4.87313E-02
    8986.737    -11.284  -0.680  4.07219E-02  9.53975E-02 -5.46756E-02
    8986.938    -11.083  -0.640  4.27435E-02  1.04185E-01 -6.14411E-02
    8987.127    -10.894  -0.600  4.49321E-02  1.14053E-01 -6.91204E-02
    8987.303    -10.718  -0.560  4.72993E-02  1.25093E-01 -7.77935E-02
    8987.468    -10.553  -0.520  4.98490E-02  1.37358E-01 -8.75090E-02
    8987.620    -10.401  -0.480  5.25723E-02  1.50833E-01 -9.82609E-02
    8987.761    -10.260  -0.440  5.54414E-02  1.65401E-01 -1.09960E-01
    8987.889    -10.132  -0.400  5.84045E-02  1.80813E-01 -1.22408E-01
    8988.004    -10.016  -0.360  6.13856E-02  1.96678E-01 -1.35293E-01
    8988.108     -9.913  -0.320  6.42915E-02  2.12492E-01 -1.48201E-01
    8988.200     -9.821  -0.280  6.70253E-02  2.27690E-01 -1.60665E-01
    8988.279     -9.742  -0.240  6.95009E-02  2.41730E-01 -1.72229E-01
    8988.346     -9.675  -0.200  7.16537E-02  2.54151E-01 -1.82497E-01
    8988.401     -9.620  -0.160  7.34398E-02  2.64613E-01 -1.91173E-01
    8988.443     -9.578  -0.120  7.48282E-02  2.72895E-01 -1.98067E-01
    8988.474     -9.547  -0.080  7.58003E-02  2.78869E-01 -2.03069E-01
    8988.498     -9.523   0.000  7.65292E-02  2.83674E-01 -2.07145E-01
    8988.553     -9.468   0.120  7.89368E-02  2.94523E-01 -2.15586E-01
    8988.596     -9.425   0.160  8.06802E-02  3.02981E-01 -2.22301E-01
    8988.651     -9.370   0.200  8.28487E-02  3.13784E-01 -2.30936E-01
    8988.718     -9.303   0.240  8.54265E-02  3.26854E-01 -2.41427E-01
    8988.797     -9.224   0.280  8.83440E-02  3.41943E-01 -2.53599E-01
    8988.888     -9.133   0.320  9.15240E-02  3.58698E-01 -2.67173E-01
    8988.992     -9.029   0.360  9.49499E-02  3.76715E-01 -2.81765E-01
    8989.108     -8.913   0.400  9.85689E-02  3.95501E-01 -2.96932E-01
    8989.236     -8.785   0.440  1.02405E-01  4.14684E-01 -3.12279E-01
    8989.376     -8.645   0.480  1.06405E-01  4.33922E-01 -3.27516E-01
    8989.528     -8.492   0.520  1.10446E-01  4.52969E-01 -3.42523E-01
    8989.693     -8.328   0.560  1.14393E-01  4.71753E-01 -3.57360E-01
    8989.870     -8.151   0.600  1.18068E-01  4.90263E-01 -3.72195E-01
    8990.059     -7.962   0.640  1.21371E-01  5.08484E-01 -3.87113E-01
    8990.260     -7.761   0.680  1.24457E-01  5.26529E-01 -4.02073E-01
    8990.473     -7.548   0.720  1.27691E-01  5.44421E-01 -4.16730E-01
    8990.699     -7.322   0.760  1.31718E-01  5.62239E-01 -4.30522E-01
    8990.937     -7.084   0.800  1.37266E-01  5.80035E-01 -4.42769E-01
    8991.187     -6.834   0.840  1.44934E-01  5.97848E-01 -4.52914E-01
    8991.449     -6.572   0.880  1.55113E-01  6.15684E-01 -4.60571E-01
    8991.723     -6.298   0.920  1.67857E-01  6.33580E-01 -4.65723E-01
    8992.010     -6.011   0.960  1.82771E-01  6.51519E-01 -4.68748E-01
    8992.308     -5.713   1.000  1.99167E-01  6.69495E-01 -4.70327E-01
    8992.619     -5.402   1.040  2.16610E-01  6.87474E-01 -4.70865E-01
    8992.942     -5.079   1.080  2.35272E-01  7.05438E-01 -4.70166E-01
    8993.278     -4.743   1.120  2.56025E-01  7.23338E-01 -4.67314E-01
    8993.625     -4.396   1.160  2.79666E-01  7.41125E-01 -4.61459E-01
    8993.985     -4.036   1.200  3.05645E-01  7.58785E-01 -4.53140E-01
    8994.356     -3.664   1.240  3.33008E-01  7.76239E-01 -4.43232E-01
    8994.741     -3.280   1.280  3.62630E-01  7.93451E-01 -4.30821E-01
    8995.137     -2.884   1.320  3.96381E-01  8.10379E-01 -4.13998E-01
    8995.545     -2.476   1.360  4.33921E-01  8.26962E-01 -3.93041E-01
    8995.966     -2.055   1.400  4.70742E-01  8.43139E-01 -3.72397E-01
    8996.399     -1.622   1.440  5.01402E-01  8.58891E-01 -3.57490E-01
    8996.844     -1.177   1.480  5.25889E-01  8.74158E-01 -3.48268E-01
    8997.301     -0.720   1.520  5.50856E-01  8.88900E-01 -3.38043E-01
    8997.770     -0.251   1.560  5.82712E-01  9.03061E-01 -3.20349E-01
    8998.252      0.231   1.600  6.20201E-01  9.16647E-01 -2.96446E-01
    8998.746      0.725   1.640  6.66391E-01  9.29625E-01 -2.63234E-01
    8999.252      1.231   1.680  7.28531E-01  9.41944E-01 -2.13412E-01
    8999.770      1.749   1.720  8.05331E-01  9.53594E-01 -1.48263E-01
    9000.300      2.279   1.760  8.79778E-01  9.64568E-01 -8.47903E-02
    9000.843      2.822   1.800  9.45879E-01  9.74844E-01 -2.89651E-02
    9001.397      3.376   1.840  1.02912E+00  9.84419E-01  4.46960E-02
    9001.964      3.943   1.880  1.14997E+00  9.93313E-01  1.56660E-01
    9002.543      4.522   1.920  1.28278E+00  1.00151E+00  2.81275E-01
    9003.135      5.114   1.960  1.35858E+00  1.00901E+00  3.49578E-01
    9003.738      5.717   2.000  1.34819E+00  1.01584E+00  3.32357E-01
    9004.354      6.333   2.040  1.28577E+00  1.02201E+00  2.63765E-01
    9004.982      6.961   2.080  1.21908E+00  1.02754E+00  1.91535E-01
    9005.622      7.601   2.120  1.17621E+00  1.03244E+00  1.43775E-01
    9006.274      8.253   2.160  1.16479E+00  1.03672E+00  1.28075E-01
    9006.939      8.918   2.200  1.18086E+00  1.04042E+00  1.40439E-01
    9007.615      9.594   2.240  1.21553E+00  1.04358E+00  1.71957E-01
    9008.304     10.283   2.280  1.26060E+00  1.04620E+00  2.14398E-01
    9009.005     10.984   2.320  1.30825E+00  1.04830E+00  2.59943E-01
    9009.718     11.697   2.360  1.35080E+00  1.04994E+00  3.00857E-01
    9010.444     12.423   2.400  1.37853E+00  1.05115E+00  3.27383E-01
    9011.181     13.160   2.440  1.38378E+00  1.05193E+00  3.31851E-01
    9011.931     13.910   2.480  1.37032E+00  1.05230E+00  3.18023E-01
    9012.693     14.672   2.520  1.33896E+00  1.05233E+00  2.86636E-01
    9013.467     15.446   2.560  1.29405E+00  1.05200E+00  2.42055E-01
    9014.254     16.233   2.600  1.24420E+00  1.05140E+00  1.92807E-01
    9015.052     17.031   2.640  1.19688E+00  1.05049E+00  1.46391E-01
    9015.863     17.842   2.680  1.15658E+00  1.04933E+00  1.07248E-01
    9016.686     18.665   2.720  1.12505E+00  1.04796E+00  7.70898E-02
    9017.521     19.500   2.760  1.10146E+00  1.04638E+00  5.50882E-02
    9018.369     20.348   2.800  1.08431E+00  1.04460E+00  3.97135E-02
    9019.228     21.207   2.840  1.07229E+00  1.04269E+00  2.96044E-02
    9020.100     22.079   2.880  1.06413E+00  1.04062E+00  2.35167E-02
    9020.984     22.963   2.920  1.05813E+00  1.03845E+00  1.96807E-02
    9021.880     23.859   2.960  1.05205E+00  1.03617E+00  1.58786E-02
    9022.788     24.767   3.000  1.04386E+00  1.03381E+00  1.00545E-02
    9023.709     25.688   3.040  1.03199E+00  1.03139E+00  5.99448E-04
    9024.641     26.620   3.080  1.01622E+00  1.02891E+00 -1.26926E-02
    9025.586     27.565   3.120  9.97540E-01  1.02641E+00 -2.88726E-02
    9026.543     28.522   3.160  9.77273E-01  1.02391E+00 -4.66319E-02
    9027.512     29.492   3.200  9.56524E-01  1.02137E+00 -6.48511E-02
    9028.494     30.473   3.240  9.36334E-01  1.01887E+00 -8.25348E-02
    9029.488     31.467   3.280  9.17309E-01  1.01637E+00 -9.90604E-02
    9030.493     32.472   3.320  8.99927E-01  1.01390E+00 -1.13970E-01
    9031.511     33.490   3.360  8.84707E-01  1.01147E+00 -1.26767E-01
    9032.542     34.521   3.400  8.71911E-01  1.00909E+00 -1.37181E-01
    9033.584     35.563   3.440  8.61689E-01  1.00678E+00 -1.45087E-01
    9034.639     36.618   3.480  8.54196E-01  1.00452E+00 -1.50323E-01
    9035.705     37.685   3.520  8.49742E-01  1.00233E+00 -1.52585E-01
    9036.784     38.764   3.560  8.48359E-01  1.00022E+00 -1.51857E-01
    9037.876     39.855   3.600  8.50089E-01  9.98190E-01 -1.48101E-01
    9038.979     40.958   3.640  8.54974E-01  9.96250E-01 -1.41276E-01
    9040.095     42.074   3.680  8.62877E-01  9.94411E-01 -1.31533E-01
    9041.222     43.201   3.720  8.73201E-01  9.92629E-01 -1.19428E-01
    9042.362     44.341   3.760  8.85200E-01  9.90963E-01 -1.05763E-01
    9043.514     45.493   3.800  8.97860E-01  9.89412E-01 -9.15518E-02
    9044.679     46.658   3.840  9.10169E-01  9.87952E-01 -7.77827E-02
    9045.855     47.834   3.880  9.21603E-01  9.86604E-01 -6.50010E-02
    9047.044     49.023   3.920  9.32217E-01  9.85371E-01 -5.31543E-02
    9048.245     50.224   3.960  9.42334E-01  9.84230E-01 -4.18957E-02
    9049.458     51.437   4.000  9.52361E-01  9.83202E-01 -3.08413E-02
    9050.683     52.662   4.040  9.62573E-01  9.82268E-01 -1.96943E-02
    9051.921     53.900   4.080  9.72977E-01  9.81446E-01 -8.46899E-03
    9053.170     55.149   4.120  9.83177E-01  9.80740E-01  2.43772E-03
    9054.432     56.411   4.160  9.92531E-01  9.80126E-01  1.24046E-02
    9055.706     57.685   4.200  1.00046E+00  9.79627E-01  2.08379E-02
    9056.993     58.972   4.240  1.00665E+00  9.79241E-01  2.74070E-02
    9058.291     60.270   4.280  1.01124E+00  9.78944E-01  3.22984E-02
    9059.602     61.581   4.320  1.01474E+00  9.78734E-01  3.60017E-02
    9060.925     62.904   4.360  1.01761E+00  9.78634E-01  3.89782E-02
    9062.260     64.239   4.400  1.02010E+00  9.78624E-01  4.14746E-02
    9063.607     65.586   4.440  1.02236E+00  9.78719E-01  4.36442E-02
    9064.966     66.945   4.480  1.02460E+00  9.78877E-01  4.57272E-02
    9066.338     68.317   4.520  1.02719E+00  9.79140E-01  4.80550E-02
    9067.722     69.701   4.560  1.03053E+00  9.79485E-01  5.10444E-02
    9069.118     71.097   4.600  1.03479E+00  9.79908E-01  5.48859E-02
    9070.526     72.505   4.640  1.03988E+00  9.80386E-01  5.94898E-02
    9071.946     73.925   4.680  1.04548E+00  9.80939E-01  6.45433E-02
    9073.379     75.358   4.720  1.05117E+00  9.81568E-01  6.96053E-02
    9074.823     76.802   4.760  1.05640E+00  9.82269E-01  7.41303E-02
    9076.280     78.259   4.800  1.06054E+00  9.83017E-01  7.75230E-02
    9077.749     79.728   4.840  1.06293E+00  9.83810E-01  7.91180E-02
    9079.231     81.210   4.880  1.06298E+00  9.84642E-01  7.83378E-02
    9080.724     82.703   4.920  1.06048E+00  9.85517E-01  7.49585E-02
    9082.230     84.209   4.960  1.05567E+00  9.86431E-01  6.92443E-02
    9083.748     85.727   5.000  1.04921E+00  9.87381E-01  6.18252E-02
    9085.278     87.257   5.040  1.04185E+00  9.88364E-01  5.34884E-02
    9086.820     88.799   5.080  1.03431E+00  9.89356E-01  4.49490E-02
    9088.375     90.354   5.120  1.02718E+00  9.90356E-01  3.68257E-02
    9089.941     91.920   5.160  1.02086E+00  9.91382E-01  2.94777E-02
    9091.520     93.499   5.200  1.01532E+00  9.92412E-01  2.29116E-02
    9093.111     95.090   5.240  1.01026E+00  9.93441E-01  1.68179E-02
    9094.715     96.694   5.280  1.00521E+00  9.94469E-01  1.07399E-02
    9096.330     98.309   5.320  9.99824E-01  9.95492E-01  4.33190E-03
    9097.958     99.937   5.360  9.94047E-01  9.96485E-01 -2.43756E-03
    9099.597    101.576   5.400  9.88268E-01  9.97467E-01 -9.19932E-03
    9101.249    103.228   5.440  9.83045E-01  9.98415E-01 -1.53700E-02
    9102.914    104.893   5.480  9.78811E-01  9.99327E-01 -2.05154E-02
    9104.590    106.569   5.520  9.75596E-01  1.00022E+00 -2.46266E-02
    9106.279    108.258   5.560  9.72943E-01  1.00106E+00 -2.81142E-02
    9107.979    109.958   5.600  9.70368E-01  1.00187E+00 -3.15049E-02
    9109.692    111.671   5.640  9.67498E-01  1.00265E+00 -3.51486E-02
    9111.417    113.397   5.680  9.64280E-01  1.00335E+00 -3.90727E-02
    9113.155    115.134   5.720  9.61013E-01  1.00401E+00 -4.29982E-02
    9114.904    116.883   5.760  9.57939E-01  1.00462E+00 -4.66828E-02
    9116.666    118.645   5.800  9.55117E-01  1.00516E+00 -5.00416E-02
    9118.440    120.419   5.840  9.52685E-01  1.00562E+00 -5.29371E-02
    9120.226    122.205   5.880  9.51112E-01  1.00606E+00 -5.49437E-02
    9122.024    124.004   5.920  9.50939E-01  1.00639E+00 -5.54468E-02
    9123.835    125.814   5.960  9.52646E-01  1.00665E+00 -5.39996E-02
    9125.658    127.637   6.000  9.56323E-01  1.00678E+00 -5.04600E-02
