# # comment:                                                     FEFF 9.9.1  
# # Source:
# # Structure
# # Reduced
# # space
# # abc:
# # angles:
# # sites:
# # POT  SCF 100  7.0000   0, screened core-hole, AFOLP (folp(0)= 1.150)
# # Abs   Z=29 Rmt= 1.242 Rnm= 1.331 K  shell
# # Pot 1 Z=23 Rmt= 1.086 Rnm= 1.309
# # Pot 2 Z=29 Rmt= 1.239 Rnm= 1.329
# # Pot 3 Z=83 Rmt= 1.616 Rnm= 1.702
# # Pot 4 Z= 8 Rmt= 1.042 Rnm= 1.113
# # Gam_ch=1.729E+00 H-L exch Vi= 0.000E+00 Vr= 0.000E+00
# # Mu=-7.138E+00eV kf=2.145E+00 Vint=-1.540E+01eV Rs_int= 1.691
# FMS rfms= 9.0000
# # PATH  Rmax=-1.000,  Keep_limit= 0.00, Heap_limit 0.00  Pwcrit= 2.50%
#  S02=0.950  Temp=   0.00  Debye_temp=   0.00  Global_sig2= 0.00000
#  Energy zero shift, vr, vi    0.00000E+00   0.00000E+00
#  Curved wave amplitude ratio filter   4.000%
#     file         sig2 tot  cw amp ratio   deg  nlegs   reff  inp sig2
#     0/   0 paths used
#  xsedge+ 50, used to normalize mu           2.4523E-04
#  -----------------------------------------------------------------------
#  omega    e    k    mu    mu0     chi     @#
    8983.698    -10.948  -1.000  3.64438E-02  5.36235E-02 -1.71797E-02
    8983.996    -10.649  -0.960  3.82926E-02  5.75076E-02 -1.92150E-02
    8984.283    -10.363  -0.920  4.02775E-02  6.18218E-02 -2.15443E-02
    8984.557    -10.088  -0.880  4.24128E-02  6.66294E-02 -2.42166E-02
    8984.819     -9.826  -0.840  4.47146E-02  7.20036E-02 -2.72890E-02
    8985.069     -9.576  -0.800  4.72008E-02  7.80295E-02 -3.08287E-02
    8985.307     -9.339  -0.760  4.98912E-02  8.48046E-02 -3.49134E-02
    8985.533     -9.113  -0.720  5.28071E-02  9.24389E-02 -3.96318E-02
    8985.746     -8.900  -0.680  5.59711E-02  1.01054E-01 -4.50825E-02
    8985.947     -8.698  -0.640  5.94055E-02  1.10777E-01 -5.13712E-02
    8986.136     -8.509  -0.600  6.31305E-02  1.21733E-01 -5.86028E-02
    8986.313     -8.333  -0.560  6.71615E-02  1.34031E-01 -6.68691E-02
    8986.478     -8.168  -0.520  7.15037E-02  1.47732E-01 -7.62282E-02
    8986.630     -8.016  -0.480  7.61466E-02  1.62823E-01 -8.66759E-02
    8986.770     -7.875  -0.440  8.10569E-02  1.79170E-01 -9.81134E-02
    8986.898     -7.747  -0.400  8.61720E-02  1.96491E-01 -1.10319E-01
    8987.014     -7.632  -0.360  9.13967E-02  2.14340E-01 -1.22944E-01
    8987.118     -7.528  -0.320  9.66061E-02  2.32138E-01 -1.35532E-01
    8987.209     -7.437  -0.280  1.01654E-01  2.49241E-01 -1.47587E-01
    8987.288     -7.357  -0.240  1.06388E-01  2.65031E-01 -1.58643E-01
    8987.355     -7.290  -0.200  1.10661E-01  2.78988E-01 -1.68327E-01
    8987.410     -7.235  -0.160  1.14343E-01  2.90732E-01 -1.76389E-01
    8987.453     -7.193  -0.120  1.17327E-01  3.00017E-01 -1.82689E-01
    8987.483     -7.162  -0.080  1.19535E-01  3.06707E-01 -1.87173E-01
    8987.508     -7.138   0.000  1.21381E-01  3.12083E-01 -1.90702E-01
    8987.563     -7.083   0.120  1.25516E-01  3.24218E-01 -1.98702E-01
    8987.605     -7.040   0.160  1.28748E-01  3.33637E-01 -2.04889E-01
    8987.660     -6.985   0.200  1.32970E-01  3.45679E-01 -2.12709E-01
    8987.727     -6.918   0.240  1.38243E-01  3.60188E-01 -2.21945E-01
    8987.806     -6.839   0.280  1.44581E-01  3.76842E-01 -2.32261E-01
    8987.898     -6.748   0.320  1.52025E-01  3.95266E-01 -2.43242E-01
    8988.002     -6.644   0.360  1.60519E-01  4.14907E-01 -2.54387E-01
    8988.117     -6.528   0.400  1.70002E-01  4.35214E-01 -2.65212E-01
    8988.245     -6.400   0.440  1.80359E-01  4.55688E-01 -2.75329E-01
    8988.386     -6.260   0.480  1.91482E-01  4.75918E-01 -2.84436E-01
    8988.538     -6.108   0.520  2.03375E-01  4.95656E-01 -2.92281E-01
    8988.703     -5.943   0.560  2.16178E-01  5.14769E-01 -2.98591E-01
    8988.879     -5.766   0.600  2.29993E-01  5.33222E-01 -3.03228E-01
    8989.068     -5.577   0.640  2.44587E-01  5.51067E-01 -3.06480E-01
    8989.270     -5.376   0.680  2.58900E-01  5.68353E-01 -3.09453E-01
    8989.483     -5.163   0.720  2.71101E-01  5.85182E-01 -3.14081E-01
    8989.708     -4.937   0.760  2.79448E-01  6.01650E-01 -3.22203E-01
    8989.946     -4.699   0.800  2.83892E-01  6.17789E-01 -3.33897E-01
    8990.196     -4.450   0.840  2.86947E-01  6.33675E-01 -3.46728E-01
    8990.458     -4.187   0.880  2.92728E-01  6.49352E-01 -3.56624E-01
    8990.733     -3.913   0.920  3.05391E-01  6.64849E-01 -3.59458E-01
    8991.019     -3.627   0.960  3.27885E-01  6.80165E-01 -3.52280E-01
    8991.318     -3.328   1.000  3.60458E-01  6.95309E-01 -3.34851E-01
    8991.629     -3.017   1.040  3.99228E-01  7.10300E-01 -3.11072E-01
    8991.952     -2.694   1.080  4.38517E-01  7.25091E-01 -2.86574E-01
    8992.287     -2.359   1.120  4.75852E-01  7.39708E-01 -2.63856E-01
    8992.634     -2.011   1.160  5.10689E-01  7.54074E-01 -2.43385E-01
    8992.994     -1.651   1.200  5.39147E-01  7.68207E-01 -2.29060E-01
    8993.366     -1.280   1.240  5.54765E-01  7.82083E-01 -2.27318E-01
    8993.750     -0.896   1.280  5.58050E-01  7.95635E-01 -2.37586E-01
    8994.146     -0.499   1.320  5.59272E-01  8.08876E-01 -2.49605E-01
    8994.555     -0.091   1.360  5.69570E-01  8.21758E-01 -2.52188E-01
    8994.975      0.330   1.400  5.92589E-01  8.34253E-01 -2.41665E-01
    8995.408      0.763   1.440  6.25456E-01  8.46333E-01 -2.20877E-01
    8995.853      1.208   1.480  6.67978E-01  8.58008E-01 -1.90030E-01
    8996.310      1.665   1.520  7.24092E-01  8.69233E-01 -1.45141E-01
    8996.780      2.134   1.560  7.94775E-01  8.79982E-01 -8.52066E-02
    8997.261      2.616   1.600  8.75474E-01  8.90249E-01 -1.47742E-02
    8997.755      3.109   1.640  9.56811E-01  9.00030E-01  5.67811E-02
    8998.261      3.615   1.680  1.02653E+00  9.09325E-01  1.17200E-01
    8998.779      4.134   1.720  1.07756E+00  9.18112E-01  1.59453E-01
    8999.310      4.664   1.760  1.11816E+00  9.26391E-01  1.91767E-01
    8999.852      5.206   1.800  1.16256E+00  9.34182E-01  2.28378E-01
    9000.407      5.761   1.840  1.21654E+00  9.41449E-01  2.75089E-01
    9000.974      6.328   1.880  1.28160E+00  9.48236E-01  3.33363E-01
    9001.553      6.907   1.920  1.35786E+00  9.54528E-01  4.03337E-01
    9002.144      7.499   1.960  1.42818E+00  9.60352E-01  4.67828E-01
    9002.748      8.102   2.000  1.46521E+00  9.65713E-01  4.99492E-01
    9003.363      8.718   2.040  1.46259E+00  9.70620E-01  4.91966E-01
    9003.991      9.346   2.080  1.43315E+00  9.75100E-01  4.58054E-01
    9004.631      9.986   2.120  1.38511E+00  9.79165E-01  4.05947E-01
    9005.284     10.638   2.160  1.32159E+00  9.82821E-01  3.38766E-01
    9005.948     11.302   2.200  1.24986E+00  9.86098E-01  2.63763E-01
    9006.625     11.979   2.240  1.18047E+00  9.89007E-01  1.91460E-01
    9007.314     12.668   2.280  1.12178E+00  9.91600E-01  1.30184E-01
    9008.015     13.369   2.320  1.07982E+00  9.93846E-01  8.59756E-02
    9008.728     14.082   2.360  1.05748E+00  9.95796E-01  6.16832E-02
    9009.453     14.808   2.400  1.05175E+00  9.97480E-01  5.42753E-02
    9010.191     15.545   2.440  1.05682E+00  9.98889E-01  5.79276E-02
    9010.941     16.295   2.480  1.06528E+00  1.00007E+00  6.52024E-02
    9011.703     17.057   2.520  1.06729E+00  1.00102E+00  6.62715E-02
    9012.477     17.831   2.560  1.05488E+00  1.00176E+00  5.31197E-02
    9013.263     18.618   2.600  1.03035E+00  1.00232E+00  2.80265E-02
    9014.062     19.416   2.640  1.00072E+00  1.00270E+00 -1.97840E-03
    9014.873     20.227   2.680  9.70332E-01  1.00293E+00 -3.26003E-02
    9015.696     21.050   2.720  9.42391E-01  1.00304E+00 -6.06478E-02
    9016.531     21.885   2.760  9.18526E-01  1.00302E+00 -8.44983E-02
    9017.378     22.732   2.800  8.99870E-01  1.00291E+00 -1.03044E-01
    9018.238     23.592   2.840  8.86711E-01  1.00270E+00 -1.15985E-01
    9019.109     24.464   2.880  8.78412E-01  1.00242E+00 -1.24006E-01
    9019.993     25.348   2.920  8.74119E-01  1.00206E+00 -1.27946E-01
    9020.889     26.244   2.960  8.72765E-01  1.00166E+00 -1.28899E-01
    9021.798     27.152   3.000  8.73193E-01  1.00122E+00 -1.28025E-01
    9022.718     28.072   3.040  8.74778E-01  1.00074E+00 -1.25957E-01
    9023.651     29.005   3.080  8.77332E-01  1.00022E+00 -1.22886E-01
    9024.596     29.950   3.120  8.80447E-01  9.99714E-01 -1.19268E-01
    9025.553     30.907   3.160  8.83796E-01  9.99186E-01 -1.15391E-01
    9026.522     31.876   3.200  8.87280E-01  9.98657E-01 -1.11377E-01
    9027.503     32.858   3.240  8.90938E-01  9.98151E-01 -1.07213E-01
    9028.497     33.851   3.280  8.94823E-01  9.97651E-01 -1.02828E-01
    9029.503     34.857   3.320  8.99140E-01  9.97159E-01 -9.80187E-02
    9030.521     35.875   3.360  9.04173E-01  9.96699E-01 -9.25258E-02
    9031.551     36.906   3.400  9.09956E-01  9.96274E-01 -8.63183E-02
    9032.594     37.948   3.440  9.16502E-01  9.95886E-01 -7.93844E-02
    9033.648     39.003   3.480  9.23802E-01  9.95535E-01 -7.17329E-02
    9034.715     40.069   3.520  9.31794E-01  9.95201E-01 -6.34071E-02
    9035.794     41.148   3.560  9.40528E-01  9.94929E-01 -5.44011E-02
    9036.885     42.240   3.600  9.50133E-01  9.94698E-01 -4.45648E-02
    9037.989     43.343   3.640  9.60818E-01  9.94507E-01 -3.36892E-02
    9039.104     44.458   3.680  9.72701E-01  9.94358E-01 -2.16577E-02
    9040.232     45.586   3.720  9.85641E-01  9.94251E-01 -8.61072E-03
    9041.372     46.726   3.760  9.99147E-01  9.94187E-01  4.96014E-03
    9042.524     47.878   3.800  1.01232E+00  9.94187E-01  1.81317E-02
    9043.688     49.043   3.840  1.02413E+00  9.94229E-01  2.99020E-02
    9044.865     50.219   3.880  1.03383E+00  9.94290E-01  3.95392E-02
    9046.054     51.408   3.920  1.04116E+00  9.94414E-01  4.67494E-02
    9047.254     52.609   3.960  1.04633E+00  9.94580E-01  5.17494E-02
    9048.468     53.822   4.000  1.05003E+00  9.94785E-01  5.52402E-02
    9049.693     55.047   4.040  1.05313E+00  9.95031E-01  5.80961E-02
    9050.930     56.285   4.080  1.05625E+00  9.95315E-01  6.09380E-02
    9052.180     57.534   4.120  1.05959E+00  9.95636E-01  6.39520E-02
    9053.442     58.796   4.160  1.06292E+00  9.95971E-01  6.69480E-02
    9054.716     60.070   4.200  1.06582E+00  9.96362E-01  6.94583E-02
    9056.002     61.356   4.240  1.06771E+00  9.96765E-01  7.09431E-02
    9057.301     62.655   4.280  1.06818E+00  9.97179E-01  7.10004E-02
    9058.611     63.966   4.320  1.06701E+00  9.97644E-01  6.93649E-02
    9059.934     65.288   4.360  1.06407E+00  9.98097E-01  6.59724E-02
    9061.269     66.623   4.400  1.05958E+00  9.98578E-01  6.10053E-02
    9062.616     67.971   4.440  1.05389E+00  9.99085E-01  5.48048E-02
    9063.976     69.330   4.480  1.04737E+00  9.99575E-01  4.77910E-02
    9065.347     70.702   4.520  1.04054E+00  1.00009E+00  4.04490E-02
    9066.731     72.085   4.560  1.03388E+00  1.00060E+00  3.32765E-02
    9068.127     73.481   4.600  1.02779E+00  1.00112E+00  2.66744E-02
    9069.535     74.890   4.640  1.02252E+00  1.00163E+00  2.08921E-02
    9070.956     76.310   4.680  1.01809E+00  1.00211E+00  1.59776E-02
    9072.388     77.742   4.720  1.01432E+00  1.00262E+00  1.17049E-02
    9073.833     79.187   4.760  1.01085E+00  1.00309E+00  7.75323E-03
    9075.290     80.644   4.800  1.00743E+00  1.00356E+00  3.87038E-03
    9076.759     82.113   4.840  1.00397E+00  1.00402E+00 -5.73848E-05
    9078.240     83.595   4.880  1.00044E+00  1.00445E+00 -4.00791E-03
    9079.734     85.088   4.920  9.96919E-01  1.00484E+00 -7.92641E-03
    9081.239     86.594   4.960  9.93460E-01  1.00523E+00 -1.17660E-02
    9082.757     88.112   5.000  9.90082E-01  1.00558E+00 -1.54937E-02
    9084.287     89.642   5.040  9.86793E-01  1.00591E+00 -1.91174E-02
    9085.830     91.184   5.080  9.83570E-01  1.00621E+00 -2.26396E-02
    9087.384     92.739   5.120  9.80426E-01  1.00647E+00 -2.60435E-02
    9088.951     94.305   5.160  9.77449E-01  1.00669E+00 -2.92413E-02
    9090.530     95.884   5.200  9.74857E-01  1.00687E+00 -3.20150E-02
    9092.121     97.475   5.240  9.72931E-01  1.00704E+00 -3.41063E-02
    9093.724     99.078   5.280  9.71781E-01  1.00714E+00 -3.53614E-02
    9095.339    100.694   5.320  9.71342E-01  1.00723E+00 -3.58870E-02
    9096.967    102.321   5.360  9.71356E-01  1.00728E+00 -3.59187E-02
    9098.607    103.961   5.400  9.71570E-01  1.00726E+00 -3.56874E-02
    9100.259    105.613   5.440  9.71963E-01  1.00722E+00 -3.52602E-02
    9101.923    107.277   5.480  9.72636E-01  1.00715E+00 -3.45149E-02
    9103.600    108.954   5.520  9.73860E-01  1.00704E+00 -3.31785E-02
    9105.288    110.642   5.560  9.75902E-01  1.00689E+00 -3.09861E-02
    9106.989    112.343   5.600  9.78944E-01  1.00672E+00 -2.77766E-02
    9108.702    114.056   5.640  9.82888E-01  1.00649E+00 -2.36035E-02
    9110.427    115.781   5.680  9.87414E-01  1.00622E+00 -1.88094E-02
    9112.164    117.519   5.720  9.91976E-01  1.00594E+00 -1.39647E-02
    9113.914    119.268   5.760  9.95957E-01  1.00562E+00 -9.66690E-03
    9115.676    121.030   5.800  9.98910E-01  1.00527E+00 -6.35996E-03
    9117.450    122.804   5.840  1.00062E+00  1.00488E+00 -4.25828E-03
    9119.236    124.590   5.880  1.00110E+00  1.00449E+00 -3.38960E-03
    9121.034    126.388   5.920  1.00041E+00  1.00406E+00 -3.64711E-03
    9122.844    128.199   5.960  9.98852E-01  1.00361E+00 -4.75594E-03
    9124.667    130.022   6.000  9.96978E-01  1.00313E+00 -6.15264E-03
