# # comment:                                                     FEFF 9.9.1  
# # Source:
# # Structure
# # Reduced
# # space
# # abc:
# # angles:
# # sites:
# # POT  SCF 100  7.0000   0, screened core-hole, AFOLP (folp(0)= 1.150)
# # Abs   Z=29 Rmt= 1.259 Rnm= 1.351 K  shell
# # Pot 1 Z=29 Rmt= 1.288 Rnm= 1.359
# # Pot 2 Z=33 Rmt= 1.086 Rnm= 1.294
# # Pot 3 Z=82 Rmt= 1.764 Rnm= 1.829
# # Pot 4 Z= 8 Rmt= 0.956 Rnm= 1.086
# # Gam_ch=1.729E+00 H-L exch Vi= 0.000E+00 Vr= 0.000E+00
# # Mu=-5.188E+00eV kf=2.254E+00 Vint=-1.507E+01eV Rs_int= 1.609
# FMS rfms= 9.0000
# # PATH  Rmax=-1.000,  Keep_limit= 0.00, Heap_limit 0.00  Pwcrit= 2.50%
#  S02=0.950  Temp=   0.00  Debye_temp=   0.00  Global_sig2= 0.00000
#  Energy zero shift, vr, vi    0.00000E+00   0.00000E+00
#  Curved wave amplitude ratio filter   4.000%
#     file         sig2 tot  cw amp ratio   deg  nlegs   reff  inp sig2
#     0/   0 paths used
#  xsedge+ 50, used to normalize mu           2.4529E-04
#  -----------------------------------------------------------------------
#  omega    e    k    mu    mu0     chi     @#
    8983.292     -8.998  -1.000  4.77808E-02  5.82265E-02 -1.04457E-02
    8983.591     -8.700  -0.960  5.10084E-02  6.25998E-02 -1.15914E-02
    8983.878     -8.413  -0.920  5.45981E-02  6.74720E-02 -1.28739E-02
    8984.152     -8.139  -0.880  5.86078E-02  7.29176E-02 -1.43097E-02
    8984.414     -7.877  -0.840  6.31065E-02  7.90234E-02 -1.59169E-02
    8984.664     -7.627  -0.800  6.81754E-02  8.58903E-02 -1.77149E-02
    8984.902     -7.389  -0.760  7.39094E-02  9.36340E-02 -1.97246E-02
    8985.127     -7.163  -0.720  8.04179E-02  1.02386E-01 -2.19677E-02
    8985.341     -6.950  -0.680  8.78232E-02  1.12289E-01 -2.44663E-02
    8985.542     -6.749  -0.640  9.62570E-02  1.23498E-01 -2.72414E-02
    8985.731     -6.560  -0.600  1.05851E-01  1.36163E-01 -3.03120E-02
    8985.908     -6.383  -0.560  1.16718E-01  1.50411E-01 -3.36928E-02
    8986.072     -6.218  -0.520  1.28929E-01  1.66321E-01 -3.73920E-02
    8986.224     -6.066  -0.480  1.42468E-01  1.83877E-01 -4.14088E-02
    8986.365     -5.926  -0.440  1.57195E-01  2.02924E-01 -4.57293E-02
    8986.493     -5.798  -0.400  1.72807E-01  2.23129E-01 -5.03218E-02
    8986.609     -5.682  -0.360  1.88833E-01  2.43963E-01 -5.51304E-02
    8986.712     -5.578  -0.320  2.04676E-01  2.64744E-01 -6.00676E-02
    8986.804     -5.487  -0.280  2.19700E-01  2.84711E-01 -6.50106E-02
    8986.883     -5.408  -0.240  2.33332E-01  3.03135E-01 -6.98038E-02
    8986.950     -5.341  -0.200  2.45139E-01  3.19409E-01 -7.42701E-02
    8987.005     -5.286  -0.160  2.54862E-01  3.33090E-01 -7.82284E-02
    8987.047     -5.243  -0.120  2.62378E-01  3.43898E-01 -8.15196E-02
    8987.078     -5.213  -0.080  2.67654E-01  3.51679E-01 -8.40251E-02
    8987.102     -5.188   0.000  2.71655E-01  3.57928E-01 -8.62725E-02
    8987.157     -5.133   0.120  2.80900E-01  3.72009E-01 -9.11086E-02
    8987.200     -5.091   0.160  2.88178E-01  3.82943E-01 -9.47653E-02
    8987.255     -5.036   0.200  2.97343E-01  3.96872E-01 -9.95293E-02
    8987.322     -4.969   0.240  3.08135E-01  4.13612E-01 -1.05477E-01
    8987.401     -4.890   0.280  3.20107E-01  4.32787E-01 -1.12679E-01
    8987.492     -4.798   0.320  3.32676E-01  4.53859E-01 -1.21183E-01
    8987.596     -4.695   0.360  3.45243E-01  4.76211E-01 -1.30968E-01
    8987.712     -4.579   0.400  3.57203E-01  4.99146E-01 -1.41943E-01
    8987.840     -4.451   0.440  3.68096E-01  5.22045E-01 -1.53949E-01
    8987.980     -4.310   0.480  3.77583E-01  5.44389E-01 -1.66807E-01
    8988.133     -4.158   0.520  3.85523E-01  5.65894E-01 -1.80371E-01
    8988.297     -3.993   0.560  3.91871E-01  5.86378E-01 -1.94507E-01
    8988.474     -3.817   0.600  3.96793E-01  6.05825E-01 -2.09032E-01
    8988.663     -3.628   0.640  4.00738E-01  6.24284E-01 -2.23546E-01
    8988.864     -3.427   0.680  4.04555E-01  6.41843E-01 -2.37288E-01
    8989.077     -3.213   0.720  4.09532E-01  6.58609E-01 -2.49077E-01
    8989.303     -2.988   0.760  4.17209E-01  6.74710E-01 -2.57501E-01
    8989.541     -2.750   0.800  4.28352E-01  6.90241E-01 -2.61889E-01
    8989.791     -2.500   0.840  4.41408E-01  7.05262E-01 -2.63854E-01
    8990.053     -2.238   0.880  4.51764E-01  7.19859E-01 -2.68096E-01
    8990.327     -1.964   0.920  4.53873E-01  7.34063E-01 -2.80191E-01
    8990.614     -1.677   0.960  4.46177E-01  7.47930E-01 -3.01753E-01
    8990.912     -1.378   1.000  4.32951E-01  7.61463E-01 -3.28512E-01
    8991.223     -1.067   1.040  4.21085E-01  7.74679E-01 -3.53594E-01
    8991.546     -0.744   1.080  4.16140E-01  7.87601E-01 -3.71461E-01
    8991.882     -0.409   1.120  4.20340E-01  8.00231E-01 -3.79891E-01
    8992.229     -0.062   1.160  4.33291E-01  8.12541E-01 -3.79250E-01
    8992.589      0.298   1.200  4.55257E-01  8.24519E-01 -3.69262E-01
    8992.961      0.670   1.240  4.89208E-01  8.36172E-01 -3.46964E-01
    8993.345      1.054   1.280  5.40046E-01  8.47485E-01 -3.07439E-01
    8993.741      1.450   1.320  6.10879E-01  8.58457E-01 -2.47578E-01
    8994.149      1.859   1.360  6.99370E-01  8.69028E-01 -1.69658E-01
    8994.570      2.279   1.400  7.96448E-01  8.79219E-01 -8.27706E-02
    8995.003      2.712   1.440  8.83623E-01  8.89007E-01 -5.38344E-03
    8995.448      3.157   1.480  9.46688E-01  8.98393E-01  4.82953E-02
    8995.905      3.614   1.520  9.91065E-01  9.07354E-01  8.37110E-02
    8996.374      4.084   1.560  1.02738E+00  9.15890E-01  1.11490E-01
    8996.856      4.565   1.600  1.05732E+00  9.24003E-01  1.33312E-01
    8997.350      5.059   1.640  1.07536E+00  9.31672E-01  1.43685E-01
    8997.856      5.565   1.680  1.08447E+00  9.38898E-01  1.45574E-01
    8998.374      6.083   1.720  1.09843E+00  9.45685E-01  1.52747E-01
    8998.904      6.614   1.760  1.12693E+00  9.52033E-01  1.74894E-01
    8999.447      7.156   1.800  1.17001E+00  9.57948E-01  2.12066E-01
    9000.001      7.711   1.840  1.22687E+00  9.63436E-01  2.63438E-01
    9000.568      8.278   1.880  1.29460E+00  9.68521E-01  3.26078E-01
    9001.147      8.857   1.920  1.35274E+00  9.73190E-01  3.79547E-01
    9001.739      9.448   1.960  1.38146E+00  9.77468E-01  4.03994E-01
    9002.342     10.052   2.000  1.38217E+00  9.81384E-01  4.00787E-01
    9002.958     10.667   2.040  1.36679E+00  9.84906E-01  3.81888E-01
    9003.586     11.295   2.080  1.34960E+00  9.88082E-01  3.61523E-01
    9004.226     11.935   2.120  1.33856E+00  9.90920E-01  3.47639E-01
    9004.878     12.588   2.160  1.33565E+00  9.93448E-01  3.42204E-01
    9005.543     13.252   2.200  1.33804E+00  9.95677E-01  3.42363E-01
    9006.219     13.929   2.240  1.33121E+00  9.97594E-01  3.33619E-01
    9006.908     14.618   2.280  1.29458E+00  9.99249E-01  2.95330E-01
    9007.609     15.319   2.320  1.22174E+00  1.00067E+00  2.21068E-01
    9008.322     16.032   2.360  1.13151E+00  1.00183E+00  1.29679E-01
    9009.048     16.757   2.400  1.05271E+00  1.00280E+00  4.99167E-02
    9009.785     17.495   2.440  1.00094E+00  1.00356E+00 -2.61648E-03
    9010.535     18.245   2.480  9.73940E-01  1.00412E+00 -3.01772E-02
    9011.297     19.007   2.520  9.61620E-01  1.00451E+00 -4.28894E-02
    9012.071     19.781   2.560  9.57223E-01  1.00476E+00 -4.75400E-02
    9012.858     20.567   2.600  9.58640E-01  1.00488E+00 -4.62433E-02
    9013.656     21.366   2.640  9.57211E-01  1.00486E+00 -4.76466E-02
    9014.467     22.177   2.680  9.46762E-01  1.00476E+00 -5.79941E-02
    9015.290     23.000   2.720  9.35193E-01  1.00452E+00 -6.93289E-02
    9016.125     23.835   2.760  9.26736E-01  1.00422E+00 -7.74884E-02
    9016.973     24.682   2.800  9.19815E-01  1.00387E+00 -8.40551E-02
    9017.832     25.542   2.840  9.12342E-01  1.00344E+00 -9.11018E-02
    9018.704     26.413   2.880  9.03893E-01  1.00295E+00 -9.90568E-02
    9019.588     27.297   2.920  8.95353E-01  1.00244E+00 -1.07084E-01
    9020.484     28.193   2.960  8.87645E-01  1.00191E+00 -1.14262E-01
    9021.392     29.102   3.000  8.81058E-01  1.00135E+00 -1.20288E-01
    9022.313     30.022   3.040  8.75634E-01  1.00078E+00 -1.25144E-01
    9023.245     30.955   3.080  8.71731E-01  1.00018E+00 -1.28453E-01
    9024.190     31.900   3.120  8.69916E-01  9.99613E-01 -1.29697E-01
    9025.147     32.857   3.160  8.70378E-01  9.99067E-01 -1.28689E-01
    9026.117     33.826   3.200  8.73091E-01  9.98505E-01 -1.25414E-01
    9027.098     34.807   3.240  8.77779E-01  9.97973E-01 -1.20194E-01
    9028.092     35.801   3.280  8.83756E-01  9.97474E-01 -1.13718E-01
    9029.097     36.807   3.320  8.90363E-01  9.97010E-01 -1.06647E-01
    9030.116     37.825   3.360  8.97089E-01  9.96582E-01 -9.94928E-02
    9031.146     38.855   3.400  9.03703E-01  9.96170E-01 -9.24675E-02
    9032.188     39.898   3.440  9.10372E-01  9.95819E-01 -8.54468E-02
    9033.243     40.952   3.480  9.17645E-01  9.95486E-01 -7.78410E-02
    9034.310     42.019   3.520  9.26360E-01  9.95216E-01 -6.88560E-02
    9035.389     43.098   3.560  9.37222E-01  9.94988E-01 -5.77658E-02
    9036.480     44.189   3.600  9.50691E-01  9.94802E-01 -4.41107E-02
    9037.583     45.292   3.640  9.66669E-01  9.94659E-01 -2.79902E-02
    9038.699     46.408   3.680  9.84404E-01  9.94581E-01 -1.01768E-02
    9039.826     47.536   3.720  1.00249E+00  9.94523E-01  7.96553E-03
    9040.966     48.676   3.760  1.01954E+00  9.94530E-01  2.50056E-02
    9042.118     49.828   3.800  1.03435E+00  9.94581E-01  3.97723E-02
    9043.283     50.992   3.840  1.04627E+00  9.94695E-01  5.15767E-02
    9044.459     52.169   3.880  1.05508E+00  9.94829E-01  6.02524E-02
    9045.648     53.357   3.920  1.06085E+00  9.95002E-01  6.58448E-02
    9046.849     54.558   3.960  1.06361E+00  9.95216E-01  6.83902E-02
    9048.062     55.771   4.000  1.06356E+00  9.95489E-01  6.80661E-02
    9049.287     56.997   4.040  1.06105E+00  9.95780E-01  6.52671E-02
    9050.525     58.234   4.080  1.05670E+00  9.96109E-01  6.05912E-02
    9051.775     59.484   4.120  1.05131E+00  9.96473E-01  5.48323E-02
    9053.036     60.746   4.160  1.04588E+00  9.96872E-01  4.90121E-02
    9054.310     62.020   4.200  1.04145E+00  9.97283E-01  4.41624E-02
    9055.597     63.306   4.240  1.03893E+00  9.97726E-01  4.12021E-02
    9056.895     64.605   4.280  1.03892E+00  9.98200E-01  4.07165E-02
    9058.206     65.915   4.320  1.04152E+00  9.98681E-01  4.28342E-02
    9059.529     67.238   4.360  1.04629E+00  9.99168E-01  4.71197E-02
    9060.864     68.573   4.400  1.05228E+00  9.99682E-01  5.26004E-02
    9062.211     69.920   4.440  1.05825E+00  1.00020E+00  5.80453E-02
    9063.570     71.280   4.480  1.06281E+00  1.00072E+00  6.20910E-02
    9064.942     72.651   4.520  1.06487E+00  1.00124E+00  6.36345E-02
    9066.326     74.035   4.560  1.06395E+00  1.00176E+00  6.21973E-02
    9067.722     75.431   4.600  1.06031E+00  1.00227E+00  5.80356E-02
    9069.130     76.839   4.640  1.05472E+00  1.00278E+00  5.19369E-02
    9070.550     78.260   4.680  1.04809E+00  1.00329E+00  4.47991E-02
    9071.983     79.692   4.720  1.04098E+00  1.00377E+00  3.72162E-02
    9073.427     81.137   4.760  1.03369E+00  1.00424E+00  2.94546E-02
    9074.884     82.594   4.800  1.02630E+00  1.00470E+00  2.15966E-02
    9076.353     84.063   4.840  1.01875E+00  1.00513E+00  1.36156E-02
    9077.835     85.544   4.880  1.01096E+00  1.00555E+00  5.40827E-03
    9079.328     87.038   4.920  1.00274E+00  1.00591E+00 -3.17549E-03
    9080.834     88.543   4.960  9.94059E-01  1.00628E+00 -1.22214E-02
    9082.352     90.061   5.000  9.84901E-01  1.00659E+00 -2.16908E-02
    9083.882     91.591   5.040  9.75456E-01  1.00689E+00 -3.14322E-02
    9085.424     93.134   5.080  9.66016E-01  1.00715E+00 -4.11306E-02
    9086.979     94.688   5.120  9.57122E-01  1.00737E+00 -5.02439E-02
    9088.545     96.255   5.160  9.49431E-01  1.00755E+00 -5.81169E-02
    9090.124     97.834   5.200  9.43581E-01  1.00771E+00 -6.41304E-02
    9091.715     99.425   5.240  9.39895E-01  1.00781E+00 -6.79171E-02
    9093.319    101.028   5.280  9.38482E-01  1.00787E+00 -6.93899E-02
    9094.934    102.643   5.320  9.39260E-01  1.00791E+00 -6.86523E-02
    9096.562    104.271   5.360  9.42053E-01  1.00789E+00 -6.58388E-02
    9098.201    105.911   5.400  9.46797E-01  1.00785E+00 -6.10554E-02
    9099.853    107.563   5.440  9.53343E-01  1.00775E+00 -5.44074E-02
    9101.518    109.227   5.480  9.61497E-01  1.00763E+00 -4.61350E-02
    9103.194    110.903   5.520  9.70746E-01  1.00747E+00 -3.67273E-02
    9104.883    112.592   5.560  9.80249E-01  1.00727E+00 -2.70245E-02
    9106.583    114.293   5.600  9.88911E-01  1.00701E+00 -1.81009E-02
    9108.296    116.006   5.640  9.95739E-01  1.00674E+00 -1.09964E-02
    9110.022    117.731   5.680  1.00014E+00  1.00644E+00 -6.30586E-03
    9111.759    119.468   5.720  1.00220E+00  1.00609E+00 -3.89317E-03
    9113.508    121.218   5.760  1.00273E+00  1.00570E+00 -2.97671E-03
    9115.270    122.980   5.800  1.00266E+00  1.00530E+00 -2.63741E-03
    9117.044    124.754   5.840  1.00259E+00  1.00487E+00 -2.27737E-03
    9118.830    126.540   5.880  1.00269E+00  1.00440E+00 -1.70862E-03
    9120.629    128.338   5.920  1.00284E+00  1.00393E+00 -1.09032E-03
    9122.439    130.148   5.960  1.00301E+00  1.00344E+00 -4.29268E-04
    9124.262    131.971   6.000  1.00328E+00  1.00289E+00  3.95170E-04
