# # comment:                                                     FEFF 9.9.1  
# # Source:
# # Structure
# # Reduced
# # space
# # abc:
# # angles:
# # sites:
# # POT  SCF 100  7.0000   0, screened core-hole, AFOLP (folp(0)= 1.150)
# # Abs   Z=29 Rmt= 1.262 Rnm= 1.332 K  shell
# # Pot 1 Z= 3 Rmt= 1.237 Rnm= 1.300
# # Pot 2 Z=29 Rmt= 1.262 Rnm= 1.332
# # Pot 3 Z=14 Rmt= 1.012 Rnm= 1.219
# # Pot 4 Z= 8 Rmt= 0.962 Rnm= 1.072
# # Gam_ch=1.729E+00 H-L exch Vi= 0.000E+00 Vr= 0.000E+00
# # Mu=-7.781E+00eV kf=2.244E+00 Vint=-1.736E+01eV Rs_int= 1.616
# FMS rfms= 9.0000
# # PATH  Rmax=-1.000,  Keep_limit= 0.00, Heap_limit 0.00  Pwcrit= 2.50%
#  S02=0.950  Temp=   0.00  Debye_temp=   0.00  Global_sig2= 0.00000
#  Energy zero shift, vr, vi    0.00000E+00   0.00000E+00
#  Curved wave amplitude ratio filter   4.000%
#     file         sig2 tot  cw amp ratio   deg  nlegs   reff  inp sig2
#     0/   0 paths used
#  xsedge+ 50, used to normalize mu           2.4671E-04
#  -----------------------------------------------------------------------
#  omega    e    k    mu    mu0     chi     @#
    8984.003    -11.591  -1.000  4.16708E-02  5.50775E-02 -1.34067E-02
    8984.301    -11.293  -0.960  4.40271E-02  5.91211E-02 -1.50940E-02
    8984.588    -11.006  -0.920  4.65803E-02  6.36185E-02 -1.70382E-02
    8984.862    -10.732  -0.880  4.93532E-02  6.86368E-02 -1.92837E-02
    8985.124    -10.470  -0.840  5.23719E-02  7.42544E-02 -2.18825E-02
    8985.374    -10.220  -0.800  5.56659E-02  8.05620E-02 -2.48961E-02
    8985.612     -9.982  -0.760  5.92681E-02  8.76638E-02 -2.83957E-02
    8985.837     -9.756  -0.720  6.32144E-02  9.56775E-02 -3.24631E-02
    8986.051     -9.543  -0.680  6.75434E-02  1.04733E-01 -3.71897E-02
    8986.252     -9.342  -0.640  7.22943E-02  1.14968E-01 -4.26732E-02
    8986.441     -9.153  -0.600  7.75036E-02  1.26516E-01 -4.90120E-02
    8986.618     -8.976  -0.560  8.31999E-02  1.39492E-01 -5.62926E-02
    8986.782     -8.812  -0.520  8.93954E-02  1.53967E-01 -6.45715E-02
    8986.935     -8.659  -0.480  9.60754E-02  1.69924E-01 -7.38491E-02
    8987.075     -8.519  -0.440  1.03185E-01  1.87225E-01 -8.40397E-02
    8987.203     -8.391  -0.400  1.10619E-01  2.05565E-01 -9.49467E-02
    8987.319     -8.275  -0.360  1.18216E-01  2.24471E-01 -1.06255E-01
    8987.422     -8.171  -0.320  1.25770E-01  2.43324E-01 -1.17554E-01
    8987.514     -8.080  -0.280  1.33045E-01  2.61438E-01 -1.28393E-01
    8987.593     -8.001  -0.240  1.39809E-01  2.78156E-01 -1.38347E-01
    8987.660     -7.934  -0.200  1.45851E-01  2.92926E-01 -1.47075E-01
    8987.715     -7.879  -0.160  1.51001E-01  3.05346E-01 -1.54345E-01
    8987.758     -7.836  -0.120  1.55132E-01  3.15161E-01 -1.60029E-01
    8987.788     -7.806  -0.080  1.58157E-01  3.22230E-01 -1.64073E-01
    8987.813     -7.781   0.000  1.60650E-01  3.27908E-01 -1.67258E-01
    8987.867     -7.726   0.120  1.66160E-01  3.40718E-01 -1.74559E-01
    8987.910     -7.684   0.160  1.70462E-01  3.50655E-01 -1.80194E-01
    8987.965     -7.629   0.200  1.76056E-01  3.63341E-01 -1.87284E-01
    8988.032     -7.562   0.240  1.82991E-01  3.78595E-01 -1.95604E-01
    8988.111     -7.483   0.280  1.91248E-01  3.96084E-01 -2.04836E-01
    8988.203     -7.391   0.320  2.00881E-01  4.15351E-01 -2.14470E-01
    8988.306     -7.288   0.360  2.11893E-01  4.35832E-01 -2.23938E-01
    8988.422     -7.172   0.400  2.24305E-01  4.56923E-01 -2.32619E-01
    8988.550     -7.044   0.440  2.38127E-01  4.78057E-01 -2.39929E-01
    8988.690     -6.903   0.480  2.53343E-01  4.98787E-01 -2.45444E-01
    8988.843     -6.751   0.520  2.69877E-01  5.18864E-01 -2.48987E-01
    8989.007     -6.586   0.560  2.87578E-01  5.38146E-01 -2.50568E-01
    8989.184     -6.410   0.600  3.06261E-01  5.56578E-01 -2.50317E-01
    8989.373     -6.221   0.640  3.26029E-01  5.74241E-01 -2.48212E-01
    8989.574     -6.020   0.680  3.47067E-01  5.91197E-01 -2.44130E-01
    8989.788     -5.806   0.720  3.69466E-01  6.07579E-01 -2.38113E-01
    8990.013     -5.581   0.760  3.92637E-01  6.23458E-01 -2.30822E-01
    8990.251     -5.343   0.800  4.15043E-01  6.38921E-01 -2.23877E-01
    8990.501     -5.093   0.840  4.33933E-01  6.54056E-01 -2.20123E-01
    8990.763     -4.831   0.880  4.45598E-01  6.68899E-01 -2.23300E-01
    8991.037     -4.557   0.920  4.47869E-01  6.83490E-01 -2.35621E-01
    8991.324     -4.270   0.960  4.42690E-01  6.97902E-01 -2.55212E-01
    8991.623     -3.971   1.000  4.35680E-01  7.12111E-01 -2.76430E-01
    8991.933     -3.660   1.040  4.33765E-01  7.26145E-01 -2.92381E-01
    8992.256     -3.337   1.080  4.41632E-01  7.39987E-01 -2.98355E-01
    8992.592     -3.002   1.120  4.58748E-01  7.53670E-01 -2.94922E-01
    8992.939     -2.655   1.160  4.81169E-01  7.67124E-01 -2.85955E-01
    8993.299     -2.295   1.200  5.08301E-01  7.80392E-01 -2.72091E-01
    8993.671     -1.923   1.240  5.43342E-01  7.93417E-01 -2.50075E-01
    8994.055     -1.539   1.280  5.89067E-01  8.06196E-01 -2.17128E-01
    8994.451     -1.143   1.320  6.46724E-01  8.18687E-01 -1.71963E-01
    8994.859     -0.734   1.360  7.17035E-01  8.30905E-01 -1.13870E-01
    8995.280     -0.314   1.400  8.02143E-01  8.42804E-01 -4.06616E-02
    8995.713      0.119   1.440  8.96902E-01  8.54359E-01  4.25430E-02
    8996.158      0.564   1.480  9.83350E-01  8.65562E-01  1.17788E-01
    8996.615      1.021   1.520  1.05614E+00  8.76369E-01  1.79775E-01
    8997.085      1.491   1.560  1.13081E+00  8.86812E-01  2.43998E-01
    8997.566      1.972   1.600  1.21086E+00  8.96827E-01  3.14035E-01
    8998.060      2.466   1.640  1.27462E+00  9.06430E-01  3.68186E-01
    8998.566      2.972   1.680  1.29798E+00  9.15576E-01  3.82402E-01
    8999.084      3.490   1.720  1.28202E+00  9.24303E-01  3.57714E-01
    8999.614      4.020   1.760  1.24377E+00  9.32571E-01  3.11198E-01
    9000.157      4.563   1.800  1.19431E+00  9.40397E-01  2.53914E-01
    9000.712      5.118   1.840  1.15579E+00  9.47740E-01  2.08053E-01
    9001.279      5.685   1.880  1.13647E+00  9.54664E-01  1.81808E-01
    9001.858      6.264   1.920  1.12499E+00  9.61111E-01  1.63880E-01
    9002.449      6.855   1.960  1.11243E+00  9.67123E-01  1.45305E-01
    9003.052      7.459   2.000  1.09950E+00  9.72684E-01  1.26819E-01
    9003.668      8.074   2.040  1.09313E+00  9.77819E-01  1.15307E-01
    9004.296      8.702   2.080  1.09875E+00  9.82533E-01  1.16216E-01
    9004.936      9.342   2.120  1.11394E+00  9.86813E-01  1.27125E-01
    9005.588      9.995   2.160  1.12989E+00  9.90727E-01  1.39167E-01
    9006.253     10.659   2.200  1.13693E+00  9.94240E-01  1.42691E-01
    9006.930     11.336   2.240  1.13418E+00  9.97381E-01  1.36798E-01
    9007.618     12.025   2.280  1.13128E+00  1.00016E+00  1.31124E-01
    9008.319     12.726   2.320  1.13795E+00  1.00262E+00  1.35325E-01
    9009.033     13.439   2.360  1.15383E+00  1.00474E+00  1.49091E-01
    9009.758     14.164   2.400  1.16907E+00  1.00658E+00  1.62494E-01
    9010.496     14.902   2.440  1.17254E+00  1.00811E+00  1.64435E-01
    9011.245     15.652   2.480  1.15854E+00  1.00938E+00  1.49169E-01
    9012.007     16.414   2.520  1.12964E+00  1.01037E+00  1.19269E-01
    9012.782     17.188   2.560  1.09426E+00  1.01115E+00  8.31134E-02
    9013.568     17.974   2.600  1.05650E+00  1.01171E+00  4.47879E-02
    9014.367     18.773   2.640  1.01594E+00  1.01207E+00  3.86805E-03
    9015.177     19.584   2.680  9.80073E-01  1.01223E+00 -3.21622E-02
    9016.000     20.406   2.720  9.56261E-01  1.01223E+00 -5.59685E-02
    9016.835     21.242   2.760  9.42629E-01  1.01208E+00 -6.94559E-02
    9017.683     22.089   2.800  9.35423E-01  1.01179E+00 -7.63639E-02
    9018.542     22.948   2.840  9.30643E-01  1.01136E+00 -8.07219E-02
    9019.414     23.820   2.880  9.25850E-01  1.01085E+00 -8.49956E-02
    9020.298     24.704   2.920  9.20146E-01  1.01022E+00 -9.00692E-02
    9021.194     25.600   2.960  9.13828E-01  1.00950E+00 -9.56732E-02
    9022.102     26.509   3.000  9.07411E-01  1.00873E+00 -1.01320E-01
    9023.023     27.429   3.040  9.01242E-01  1.00789E+00 -1.06647E-01
    9023.956     28.362   3.080  8.95862E-01  1.00700E+00 -1.11139E-01
    9024.900     29.307   3.120  8.92025E-01  1.00609E+00 -1.14067E-01
    9025.858     30.264   3.160  8.89881E-01  1.00513E+00 -1.15246E-01
    9026.827     31.233   3.200  8.89177E-01  1.00415E+00 -1.14973E-01
    9027.808     32.214   3.240  8.89444E-01  1.00317E+00 -1.13722E-01
    9028.802     33.208   3.280  8.90319E-01  1.00218E+00 -1.11861E-01
    9029.808     34.214   3.320  8.91591E-01  1.00120E+00 -1.09605E-01
    9030.826     35.232   3.360  8.93421E-01  1.00021E+00 -1.06793E-01
    9031.856     36.262   3.400  8.96208E-01  9.99262E-01 -1.03054E-01
    9032.898     37.305   3.440  9.00198E-01  9.98343E-01 -9.81448E-02
    9033.953     38.359   3.480  9.05599E-01  9.97434E-01 -9.18358E-02
    9035.020     39.426   3.520  9.12714E-01  9.96561E-01 -8.38477E-02
    9036.099     40.505   3.560  9.21787E-01  9.95726E-01 -7.39387E-02
    9037.190     41.596   3.600  9.32914E-01  9.94929E-01 -6.20152E-02
    9038.293     42.699   3.640  9.46099E-01  9.94173E-01 -4.80744E-02
    9039.409     43.815   3.680  9.61125E-01  9.93461E-01 -3.23351E-02
    9040.537     44.943   3.720  9.77474E-01  9.92813E-01 -1.53391E-02
    9041.677     46.083   3.760  9.94382E-01  9.92211E-01  2.17131E-03
    9042.829     47.235   3.800  1.01106E+00  9.91652E-01  1.94080E-02
    9043.993     48.399   3.840  1.02665E+00  9.91140E-01  3.55063E-02
    9045.170     49.576   3.880  1.04047E+00  9.90696E-01  4.97701E-02
    9046.358     50.764   3.920  1.05213E+00  9.90319E-01  6.18126E-02
    9047.559     51.965   3.960  1.06146E+00  9.89969E-01  7.14871E-02
    9048.772     53.178   4.000  1.06847E+00  9.89686E-01  7.87830E-02
    9049.998     54.404   4.040  1.07345E+00  9.89472E-01  8.39804E-02
    9051.235     55.641   4.080  1.07680E+00  9.89304E-01  8.74997E-02
    9052.485     56.891   4.120  1.07894E+00  9.89181E-01  8.97629E-02
    9053.747     58.153   4.160  1.08017E+00  9.89103E-01  9.10641E-02
    9055.021     59.427   4.200  1.08052E+00  9.89091E-01  9.14273E-02
    9056.307     60.713   4.240  1.07963E+00  9.89122E-01  9.05082E-02
    9057.605     62.012   4.280  1.07697E+00  9.89197E-01  8.77745E-02
    9058.916     63.322   4.320  1.07213E+00  9.89314E-01  8.28173E-02
    9060.239     64.645   4.360  1.06503E+00  9.89494E-01  7.55327E-02
    9061.574     65.980   4.400  1.05597E+00  9.89691E-01  6.62757E-02
    9062.921     67.327   4.440  1.04573E+00  9.89928E-01  5.58064E-02
    9064.280     68.687   4.480  1.03520E+00  9.90223E-01  4.49789E-02
    9065.652     70.058   4.520  1.02500E+00  9.90533E-01  3.44629E-02
    9067.036     71.442   4.560  1.01547E+00  9.90856E-01  2.46171E-02
    9068.432     72.838   4.600  1.00673E+00  9.91233E-01  1.54973E-02
    9069.840     74.246   4.640  9.98613E-01  9.91621E-01  6.99232E-03
    9071.260     75.666   4.680  9.90993E-01  9.92017E-01 -1.02352E-03
    9072.693     77.099   4.720  9.83753E-01  9.92442E-01 -8.68921E-03
    9074.138     78.544   4.760  9.76787E-01  9.92895E-01 -1.61087E-02
    9075.595     80.001   4.800  9.70053E-01  9.93332E-01 -2.32795E-02
    9077.064     81.470   4.840  9.63760E-01  9.93792E-01 -3.00319E-02
    9078.545     82.951   4.880  9.58279E-01  9.94255E-01 -3.59757E-02
    9080.039     84.445   4.920  9.54213E-01  9.94717E-01 -4.05039E-02
    9081.544     85.950   4.960  9.52180E-01  9.95176E-01 -4.29955E-02
    9083.062     87.468   5.000  9.52626E-01  9.95609E-01 -4.29840E-02
    9084.592     88.998   5.040  9.55687E-01  9.96061E-01 -4.03741E-02
    9086.135     90.541   5.080  9.60949E-01  9.96486E-01 -3.55374E-02
    9087.689     92.095   5.120  9.67672E-01  9.96905E-01 -2.92330E-02
    9089.256     93.662   5.160  9.74832E-01  9.97316E-01 -2.24836E-02
    9090.835     95.241   5.200  9.81363E-01  9.97694E-01 -1.63308E-02
    9092.426     96.832   5.240  9.86361E-01  9.98039E-01 -1.16774E-02
    9094.029     98.435   5.280  9.89251E-01  9.98374E-01 -9.12296E-03
    9095.644    100.050   5.320  9.89875E-01  9.98696E-01 -8.82105E-03
    9097.272    101.678   5.360  9.88468E-01  9.98961E-01 -1.04927E-02
    9098.912    103.318   5.400  9.85604E-01  9.99211E-01 -1.36070E-02
    9100.564    104.970   5.440  9.81788E-01  9.99423E-01 -1.76355E-02
    9102.228    106.634   5.480  9.77500E-01  9.99599E-01 -2.20990E-02
    9103.904    108.310   5.520  9.73279E-01  9.99759E-01 -2.64799E-02
    9105.593    109.999   5.560  9.69645E-01  9.99859E-01 -3.02139E-02
    9107.294    111.700   5.600  9.67096E-01  9.99939E-01 -3.28428E-02
    9109.007    113.413   5.640  9.65824E-01  9.99959E-01 -3.41346E-02
    9110.732    115.138   5.680  9.65887E-01  9.99961E-01 -3.40745E-02
    9112.469    116.875   5.720  9.67137E-01  9.99923E-01 -3.27858E-02
    9114.219    118.625   5.760  9.69397E-01  9.99823E-01 -3.04258E-02
    9115.980    120.387   5.800  9.72606E-01  9.99706E-01 -2.70998E-02
    9117.754    122.160   5.840  9.76729E-01  9.99550E-01 -2.28213E-02
    9119.540    123.947   5.880  9.81741E-01  9.99333E-01 -1.75920E-02
    9121.339    125.745   5.920  9.87531E-01  9.99102E-01 -1.15709E-02
    9123.149    127.555   5.960  9.93686E-01  9.98834E-01 -5.14785E-03
    9124.972    129.378   6.000  9.99802E-01  9.98503E-01  1.29855E-03
