# # comment:                                                     FEFF 9.9.1  
# # Source:
# # Structure
# # Reduced
# # space
# # abc:
# # angles:
# # sites:
# # POT  SCF 100  7.0000   0, screened core-hole, AFOLP (folp(0)= 1.150)
# # Abs   Z=29 Rmt= 1.327 Rnm= 1.393 K  shell
# # Pot 1 Z= 3 Rmt= 1.244 Rnm= 1.308
# # Pot 2 Z=29 Rmt= 1.296 Rnm= 1.364
# # Pot 3 Z=15 Rmt= 0.938 Rnm= 1.155
# # Pot 4 Z= 8 Rmt= 0.917 Rnm= 1.048
# # Gam_ch=1.729E+00 H-L exch Vi= 0.000E+00 Vr= 0.000E+00
# # Mu=-6.298E+00eV kf=2.420E+00 Vint=-1.712E+01eV Rs_int= 1.499
# FMS rfms= 9.0000
# # PATH  Rmax=-1.000,  Keep_limit= 0.00, Heap_limit 0.00  Pwcrit= 2.50%
#  S02=0.950  Temp=   0.00  Debye_temp=   0.00  Global_sig2= 0.00000
#  Energy zero shift, vr, vi    0.00000E+00   0.00000E+00
#  Curved wave amplitude ratio filter   4.000%
#     file         sig2 tot  cw amp ratio   deg  nlegs   reff  inp sig2
#     0/   0 paths used
#  xsedge+ 50, used to normalize mu           2.4661E-04
#  -----------------------------------------------------------------------
#  omega    e    k    mu    mu0     chi     @#
    8983.456    -10.108  -1.000  4.94770E-02  5.50486E-02 -5.57159E-03
    8983.754     -9.810  -0.960  5.25837E-02  5.90813E-02 -6.49759E-03
    8984.041     -9.523  -0.920  5.59750E-02  6.35668E-02 -7.59186E-03
    8984.315     -9.249  -0.880  5.96861E-02  6.85723E-02 -8.88623E-03
    8984.577     -8.987  -0.840  6.37576E-02  7.41761E-02 -1.04185E-02
    8984.827     -8.737  -0.800  6.82358E-02  8.04691E-02 -1.22333E-02
    8985.065     -8.499  -0.760  7.31727E-02  8.75554E-02 -1.43827E-02
    8985.290     -8.273  -0.720  7.86266E-02  9.55533E-02 -1.69267E-02
    8985.504     -8.060  -0.680  8.46601E-02  1.04593E-01 -1.99325E-02
    8985.705     -7.859  -0.640  9.13385E-02  1.14811E-01 -2.34724E-02
    8985.894     -7.670  -0.600  9.87243E-02  1.26343E-01 -2.76189E-02
    8986.071     -7.493  -0.560  1.06869E-01  1.39305E-01 -3.24363E-02
    8986.235     -7.329  -0.520  1.15800E-01  1.53766E-01 -3.79662E-02
    8986.388     -7.176  -0.480  1.25503E-01  1.69711E-01 -4.42087E-02
    8986.528     -7.036  -0.440  1.35901E-01  1.87001E-01 -5.10999E-02
    8986.656     -6.908  -0.400  1.46837E-01  2.05331E-01 -5.84941E-02
    8986.772     -6.792  -0.360  1.58067E-01  2.24227E-01 -6.61602E-02
    8986.875     -6.689  -0.320  1.69268E-01  2.43070E-01 -7.38022E-02
    8986.967     -6.597  -0.280  1.80071E-01  2.61172E-01 -8.11013E-02
    8987.046     -6.518  -0.240  1.90108E-01  2.77876E-01 -8.77675E-02
    8987.113     -6.451  -0.200  1.99053E-01  2.92631E-01 -9.35779E-02
    8987.168     -6.396  -0.160  2.06646E-01  3.05036E-01 -9.83899E-02
    8987.211     -6.353  -0.120  2.12706E-01  3.14836E-01 -1.02130E-01
    8987.241     -6.323  -0.080  2.17118E-01  3.21893E-01 -1.04775E-01
    8987.266     -6.298   0.000  2.20727E-01  3.27561E-01 -1.06834E-01
    8987.320     -6.244   0.120  2.28561E-01  3.40333E-01 -1.11772E-01
    8987.363     -6.201   0.160  2.34690E-01  3.50245E-01 -1.15554E-01
    8987.418     -6.146   0.200  2.42565E-01  3.62899E-01 -1.20334E-01
    8987.485     -6.079   0.240  2.52137E-01  3.78092E-01 -1.25954E-01
    8987.564     -6.000   0.280  2.63268E-01  3.95525E-01 -1.32257E-01
    8987.656     -5.908   0.320  2.75727E-01  4.14692E-01 -1.38966E-01
    8987.759     -5.805   0.360  2.89220E-01  4.35041E-01 -1.45821E-01
    8987.875     -5.689   0.400  3.03431E-01  4.55962E-01 -1.52531E-01
    8988.003     -5.561   0.440  3.18087E-01  4.76882E-01 -1.58795E-01
    8988.143     -5.421   0.480  3.33073E-01  4.97371E-01 -1.64299E-01
    8988.296     -5.268   0.520  3.48494E-01  5.17159E-01 -1.68665E-01
    8988.460     -5.104   0.560  3.64760E-01  5.36102E-01 -1.71342E-01
    8988.637     -4.927   0.600  3.82617E-01  5.54170E-01 -1.71553E-01
    8988.826     -4.738   0.640  4.03129E-01  5.71446E-01 -1.68317E-01
    8989.027     -4.537   0.680  4.27261E-01  5.87996E-01 -1.60736E-01
    8989.241     -4.323   0.720  4.55306E-01  6.03959E-01 -1.48654E-01
    8989.466     -4.098   0.760  4.85912E-01  6.19413E-01 -1.33501E-01
    8989.704     -3.860   0.800  5.16576E-01  6.34486E-01 -1.17910E-01
    8989.954     -3.610   0.840  5.45704E-01  6.49213E-01 -1.03509E-01
    8990.216     -3.348   0.880  5.74298E-01  6.63695E-01 -8.93975E-02
    8990.490     -3.074   0.920  6.05060E-01  6.77980E-01 -7.29206E-02
    8990.777     -2.787   0.960  6.40688E-01  6.92101E-01 -5.14134E-02
    8991.076     -2.488   1.000  6.81543E-01  7.06081E-01 -2.45387E-02
    8991.386     -2.178   1.040  7.24658E-01  7.19933E-01  4.72549E-03
    8991.710     -1.854   1.080  7.66346E-01  7.33660E-01  3.26853E-02
    8992.045     -1.519   1.120  8.06522E-01  7.47302E-01  5.92201E-02
    8992.392     -1.172   1.160  8.49006E-01  7.60809E-01  8.81973E-02
    8992.752     -0.812   1.200  8.97430E-01  7.74168E-01  1.23263E-01
    8993.124     -0.440   1.240  9.50022E-01  7.87403E-01  1.62619E-01
    8993.508     -0.056   1.280  9.95715E-01  8.00452E-01  1.95263E-01
    8993.904      0.340   1.320  1.02123E+00  8.13335E-01  2.07895E-01
    8994.313      0.749   1.360  1.02729E+00  8.25984E-01  2.01302E-01
    8994.733      1.169   1.400  1.02742E+00  8.38414E-01  1.89005E-01
    8995.166      1.602   1.440  1.02562E+00  8.50579E-01  1.75040E-01
    8995.611      2.047   1.480  1.01408E+00  8.62469E-01  1.51611E-01
    8996.068      2.504   1.520  9.90581E-01  8.74056E-01  1.16525E-01
    8996.538      2.974   1.560  9.61955E-01  8.85291E-01  7.66640E-02
    8997.019      3.455   1.600  9.43397E-01  8.96185E-01  4.72118E-02
    8997.513      3.949   1.640  9.43610E-01  9.06712E-01  3.68984E-02
    8998.019      4.455   1.680  9.57582E-01  9.16841E-01  4.07412E-02
    8998.537      4.973   1.720  9.82743E-01  9.26568E-01  5.61749E-02
    8999.067      5.503   1.760  1.02273E+00  9.35865E-01  8.68619E-02
    8999.610      6.046   1.800  1.07811E+00  9.44706E-01  1.33408E-01
    9000.165      6.601   1.840  1.14321E+00  9.53107E-01  1.90101E-01
    9000.732      7.168   1.880  1.20396E+00  9.61067E-01  2.42892E-01
    9001.311      7.747   1.920  1.24590E+00  9.68541E-01  2.77356E-01
    9001.902      8.338   1.960  1.26391E+00  9.75548E-01  2.88357E-01
    9002.506      8.942   2.000  1.25762E+00  9.82087E-01  2.75536E-01
    9003.121      9.557   2.040  1.23427E+00  9.88142E-01  2.46130E-01
    9003.749     10.185   2.080  1.20764E+00  9.93753E-01  2.13886E-01
    9004.389     10.825   2.120  1.18474E+00  9.98881E-01  1.85861E-01
    9005.041     11.477   2.160  1.16638E+00  1.00355E+00  1.62826E-01
    9005.706     12.142   2.200  1.15266E+00  1.00777E+00  1.44883E-01
    9006.383     12.819   2.240  1.14130E+00  1.01157E+00  1.29738E-01
    9007.071     13.507   2.280  1.12927E+00  1.01494E+00  1.14332E-01
    9007.772     14.208   2.320  1.11396E+00  1.01788E+00  9.60799E-02
    9008.486     14.922   2.360  1.09212E+00  1.02044E+00  7.16870E-02
    9009.211     15.647   2.400  1.06386E+00  1.02262E+00  4.12384E-02
    9009.949     16.385   2.440  1.03398E+00  1.02443E+00  9.55340E-03
    9010.699     17.135   2.480  1.00768E+00  1.02588E+00 -1.82011E-02
    9011.461     17.897   2.520  9.88650E-01  1.02702E+00 -3.83711E-02
    9012.235     18.671   2.560  9.78012E-01  1.02784E+00 -4.98304E-02
    9013.021     19.457   2.600  9.72377E-01  1.02837E+00 -5.59980E-02
    9013.820     20.256   2.640  9.64683E-01  1.02862E+00 -6.39417E-02
    9014.630     21.066   2.680  9.48463E-01  1.02863E+00 -8.01629E-02
    9015.453     21.889   2.720  9.23075E-01  1.02841E+00 -1.05331E-01
    9016.289     22.725   2.760  8.96258E-01  1.02796E+00 -1.31699E-01
    9017.136     23.572   2.800  8.79694E-01  1.02733E+00 -1.47632E-01
    9017.995     24.431   2.840  8.76911E-01  1.02652E+00 -1.49613E-01
    9018.867     25.303   2.880  8.76815E-01  1.02554E+00 -1.48724E-01
    9019.751     26.187   2.920  8.77741E-01  1.02442E+00 -1.46680E-01
    9020.647     27.083   2.960  8.80979E-01  1.02320E+00 -1.42221E-01
    9021.555     27.991   3.000  8.87278E-01  1.02184E+00 -1.34565E-01
    9022.476     28.912   3.040  8.96350E-01  1.02042E+00 -1.24068E-01
    9023.409     29.845   3.080  9.07224E-01  1.01891E+00 -1.11691E-01
    9024.353     30.790   3.120  9.18957E-01  1.01734E+00 -9.83810E-02
    9025.311     31.747   3.160  9.30825E-01  1.01572E+00 -8.48912E-02
    9026.280     32.716   3.200  9.42446E-01  1.01408E+00 -7.16317E-02
    9027.261     33.697   3.240  9.53934E-01  1.01241E+00 -5.84726E-02
    9028.255     34.691   3.280  9.65351E-01  1.01073E+00 -4.53784E-02
    9029.261     35.697   3.320  9.76470E-01  1.00905E+00 -3.25823E-02
    9030.279     36.715   3.360  9.86888E-01  1.00738E+00 -2.04923E-02
    9031.309     37.745   3.400  9.96148E-01  1.00574E+00 -9.59002E-03
    9032.351     38.787   3.440  1.00407E+00  1.00413E+00 -6.22452E-05
    9033.406     39.842   3.480  1.01089E+00  1.00254E+00  8.34909E-03
    9034.473     40.909   3.520  1.01716E+00  1.00101E+00  1.61492E-02
    9035.552     41.988   3.560  1.02330E+00  9.99557E-01  2.37453E-02
    9036.643     43.079   3.600  1.02941E+00  9.98149E-01  3.12596E-02
    9037.746     44.182   3.640  1.03524E+00  9.96793E-01  3.84469E-02
    9038.862     45.298   3.680  1.04033E+00  9.95534E-01  4.47971E-02
    9039.990     46.426   3.720  1.04415E+00  9.94330E-01  4.98178E-02
    9041.130     47.566   3.760  1.04653E+00  9.93206E-01  5.33280E-02
    9042.282     48.718   3.800  1.04760E+00  9.92184E-01  5.54117E-02
    9043.446     49.882   3.840  1.04748E+00  9.91224E-01  5.62525E-02
    9044.623     51.059   3.880  1.04647E+00  9.90369E-01  5.61057E-02
    9045.811     52.247   3.920  1.04478E+00  9.89597E-01  5.51865E-02
    9047.012     53.448   3.960  1.04260E+00  9.88909E-01  5.36871E-02
    9048.225     54.661   4.000  1.04013E+00  9.88306E-01  5.18198E-02
    9049.451     55.887   4.040  1.03769E+00  9.87811E-01  4.98792E-02
    9050.688     57.124   4.080  1.03550E+00  9.87401E-01  4.80991E-02
    9051.938     58.374   4.120  1.03366E+00  9.87076E-01  4.65887E-02
    9053.200     59.636   4.160  1.03217E+00  9.86856E-01  4.53185E-02
    9054.474     60.910   4.200  1.03078E+00  9.86697E-01  4.40794E-02
    9055.760     62.196   4.240  1.02918E+00  9.86642E-01  4.25381E-02
    9057.058     63.494   4.280  1.02704E+00  9.86670E-01  4.03750E-02
    9058.369     64.805   4.320  1.02418E+00  9.86777E-01  3.74029E-02
    9059.692     66.128   4.360  1.02048E+00  9.86940E-01  3.35373E-02
    9061.027     67.463   4.400  1.01599E+00  9.87201E-01  2.87933E-02
    9062.374     68.810   4.440  1.01078E+00  9.87516E-01  2.32663E-02
    9063.733     70.170   4.480  1.00500E+00  9.87904E-01  1.70923E-02
    9065.105     71.541   4.520  9.98779E-01  9.88341E-01  1.04379E-02
    9066.489     72.925   4.560  9.92268E-01  9.88848E-01  3.41943E-03
    9067.885     74.321   4.600  9.85481E-01  9.89400E-01 -3.91935E-03
    9069.293     75.729   4.640  9.78522E-01  9.89996E-01 -1.14744E-02
    9070.713     77.149   4.680  9.71724E-01  9.90655E-01 -1.89306E-02
    9072.146     78.582   4.720  9.65539E-01  9.91330E-01 -2.57909E-02
    9073.591     80.027   4.760  9.60547E-01  9.92039E-01 -3.14915E-02
    9075.048     81.484   4.800  9.57163E-01  9.92760E-01 -3.55972E-02
    9076.517     82.953   4.840  9.55569E-01  9.93533E-01 -3.79646E-02
    9077.998     84.434   4.880  9.55532E-01  9.94292E-01 -3.87596E-02
    9079.492     85.928   4.920  9.56685E-01  9.95074E-01 -3.83886E-02
    9080.997     87.433   4.960  9.58476E-01  9.95835E-01 -3.73587E-02
    9082.515     88.951   5.000  9.60556E-01  9.96617E-01 -3.60609E-02
    9084.045     90.481   5.040  9.62696E-01  9.97396E-01 -3.46999E-02
    9085.588     92.024   5.080  9.64843E-01  9.98147E-01 -3.33040E-02
    9087.142     93.578   5.120  9.67039E-01  9.98888E-01 -3.18489E-02
    9088.709     95.145   5.160  9.69195E-01  9.99593E-01 -3.03985E-02
    9090.288     96.724   5.200  9.71242E-01  1.00026E+00 -2.90211E-02
    9091.879     98.315   5.240  9.73259E-01  1.00092E+00 -2.76573E-02
    9093.482     99.918   5.280  9.75492E-01  1.00151E+00 -2.60163E-02
    9095.097    101.533   5.320  9.78430E-01  1.00208E+00 -2.36501E-02
    9096.725    103.161   5.360  9.82465E-01  1.00259E+00 -2.01204E-02
    9098.365    104.801   5.400  9.87854E-01  1.00304E+00 -1.51910E-02
    9100.017    106.453   5.440  9.94463E-01  1.00346E+00 -8.99537E-03
    9101.681    108.117   5.480  1.00170E+00  1.00380E+00 -2.10289E-03
    9103.357    109.793   5.520  1.00867E+00  1.00410E+00  4.57128E-03
    9105.046    111.482   5.560  1.01437E+00  1.00434E+00  1.00259E-02
    9106.747    113.183   5.600  1.01803E+00  1.00449E+00  1.35369E-02
    9108.460    114.896   5.640  1.01951E+00  1.00461E+00  1.49007E-02
    9110.185    116.621   5.680  1.01907E+00  1.00463E+00  1.44395E-02
    9111.922    118.358   5.720  1.01739E+00  1.00460E+00  1.27836E-02
    9113.672    120.108   5.760  1.01506E+00  1.00450E+00  1.05642E-02
    9115.433    121.869   5.800  1.01253E+00  1.00435E+00  8.18524E-03
    9117.207    123.643   5.840  1.00994E+00  1.00412E+00  5.81401E-03
    9118.993    125.430   5.880  1.00737E+00  1.00382E+00  3.54779E-03
    9120.792    127.228   5.920  1.00506E+00  1.00348E+00  1.57717E-03
    9122.602    129.038   5.960  1.00327E+00  1.00306E+00  2.15984E-04
    9124.425    130.861   6.000  1.00242E+00  1.00255E+00 -1.26506E-04
