# # comment:                                                     FEFF 9.9.1  
# # Source:
# # Structure
# # Reduced
# # space
# # abc:
# # angles:108.617638
# # sites:
# # POT  SCF 100  7.0000   0, screened core-hole, AFOLP (folp(0)= 1.150)
# # Abs   Z=29 Rmt= 1.189 Rnm= 1.287 K  shell
# # Pot 1 Z=29 Rmt= 1.189 Rnm= 1.287
# # Pot 2 Z=15 Rmt= 0.938 Rnm= 1.156
# # Pot 3 Z= 8 Rmt= 0.892 Rnm= 1.048
# # Gam_ch=1.729E+00 H-L exch Vi= 0.000E+00 Vr= 0.000E+00
# # Mu=-6.705E+00eV kf=2.480E+00 Vint=-1.703E+01eV Rs_int= 1.462
# FMS rfms= 9.0000
# # PATH  Rmax=-1.000,  Keep_limit= 0.00, Heap_limit 0.00  Pwcrit= 2.50%
#  S02=0.950  Temp=   0.00  Debye_temp=   0.00  Global_sig2= 0.00000
#  Energy zero shift, vr, vi    0.00000E+00   0.00000E+00
#  Curved wave amplitude ratio filter   4.000%
#     file         sig2 tot  cw amp ratio   deg  nlegs   reff  inp sig2
#     0/   0 paths used
#  xsedge+ 50, used to normalize mu           2.4817E-04
#  -----------------------------------------------------------------------
#  omega    e    k    mu    mu0     chi     @#
    8983.311    -10.515  -1.000  3.74920E-02  5.19699E-02 -1.44778E-02
    8983.610    -10.216  -0.960  3.97002E-02  5.57440E-02 -1.60438E-02
    8983.897     -9.930  -0.920  4.21269E-02  5.99404E-02 -1.78135E-02
    8984.171     -9.655  -0.880  4.48048E-02  6.46217E-02 -1.98169E-02
    8984.433     -9.393  -0.840  4.77722E-02  6.98610E-02 -2.20888E-02
    8984.683     -9.143  -0.800  5.10741E-02  7.57427E-02 -2.46687E-02
    8984.921     -8.906  -0.760  5.47624E-02  8.23642E-02 -2.76018E-02
    8985.146     -8.680  -0.720  5.88969E-02  8.98353E-02 -3.09383E-02
    8985.360     -8.467  -0.680  6.35438E-02  9.82771E-02 -3.47333E-02
    8985.561     -8.265  -0.640  6.87739E-02  1.07818E-01 -3.90438E-02
    8985.750     -8.076  -0.600  7.46573E-02  1.18583E-01 -4.39255E-02
    8985.927     -7.900  -0.560  8.12543E-02  1.30680E-01 -4.94259E-02
    8986.091     -7.735  -0.520  8.86010E-02  1.44174E-01 -5.55732E-02
    8986.244     -7.583  -0.480  9.66885E-02  1.59051E-01 -6.23626E-02
    8986.384     -7.443  -0.440  1.05441E-01  1.75180E-01 -6.97397E-02
    8986.512     -7.314  -0.400  1.14694E-01  1.92279E-01 -7.75857E-02
    8986.628     -7.199  -0.360  1.24192E-01  2.09904E-01 -8.57121E-02
    8986.731     -7.095  -0.320  1.33609E-01  2.27479E-01 -9.38699E-02
    8986.823     -7.004  -0.280  1.42589E-01  2.44364E-01 -1.01775E-01
    8986.902     -6.924  -0.240  1.50800E-01  2.59944E-01 -1.09145E-01
    8986.969     -6.857  -0.200  1.57981E-01  2.73707E-01 -1.15726E-01
    8987.024     -6.802  -0.160  1.63959E-01  2.85279E-01 -1.21319E-01
    8987.066     -6.760  -0.120  1.68642E-01  2.94422E-01 -1.25780E-01
    8987.097     -6.729  -0.080  1.71991E-01  3.01006E-01 -1.29015E-01
    8987.121     -6.705   0.000  1.74661E-01  3.06295E-01 -1.31635E-01
    8987.176     -6.650   0.120  1.80455E-01  3.18203E-01 -1.37749E-01
    8987.219     -6.607   0.160  1.84956E-01  3.27470E-01 -1.42514E-01
    8987.274     -6.552   0.200  1.90603E-01  3.39269E-01 -1.48667E-01
    8987.341     -6.485   0.240  1.97273E-01  3.53451E-01 -1.56178E-01
    8987.420     -6.406   0.280  2.04764E-01  3.69719E-01 -1.64955E-01
    8987.512     -6.315   0.320  2.12761E-01  3.87622E-01 -1.74861E-01
    8987.615     -6.211   0.360  2.20973E-01  4.06647E-01 -1.85674E-01
    8987.731     -6.095   0.400  2.28995E-01  4.26188E-01 -1.97193E-01
    8987.859     -5.967   0.440  2.36565E-01  4.45748E-01 -2.09183E-01
    8987.999     -5.827   0.480  2.43505E-01  4.64912E-01 -2.21407E-01
    8988.152     -5.675   0.520  2.50006E-01  4.83446E-01 -2.33440E-01
    8988.316     -5.510   0.560  2.56700E-01  5.01196E-01 -2.44496E-01
    8988.493     -5.333   0.600  2.64804E-01  5.18151E-01 -2.53347E-01
    8988.682     -5.144   0.640  2.75627E-01  5.34370E-01 -2.58742E-01
    8988.883     -4.943   0.680  2.89729E-01  5.49931E-01 -2.60201E-01
    8989.096     -4.730   0.720  3.05624E-01  5.64924E-01 -2.59300E-01
    8989.322     -4.504   0.760  3.18942E-01  5.79479E-01 -2.60537E-01
    8989.560     -4.267   0.800  3.24098E-01  5.93656E-01 -2.69557E-01
    8989.810     -4.017   0.840  3.19436E-01  6.07543E-01 -2.88107E-01
    8990.072     -3.754   0.880  3.09533E-01  6.21197E-01 -3.11665E-01
    8990.346     -3.480   0.920  3.01197E-01  6.34659E-01 -3.33462E-01
    8990.633     -3.194   0.960  2.99436E-01  6.47978E-01 -3.48543E-01
    8990.931     -2.895   1.000  3.06909E-01  6.61176E-01 -3.54267E-01
    8991.242     -2.584   1.040  3.24818E-01  6.74263E-01 -3.49444E-01
    8991.565     -2.261   1.080  3.52548E-01  6.87242E-01 -3.34694E-01
    8991.901     -1.926   1.120  3.86369E-01  7.00130E-01 -3.13760E-01
    8992.248     -1.578   1.160  4.19625E-01  7.12919E-01 -2.93294E-01
    8992.608     -1.219   1.200  4.46994E-01  7.25577E-01 -2.78583E-01
    8992.980     -0.847   1.240  4.69028E-01  7.38126E-01 -2.69098E-01
    8993.364     -0.463   1.280  4.91311E-01  7.50528E-01 -2.59218E-01
    8993.760     -0.066   1.320  5.18619E-01  7.62763E-01 -2.44143E-01
    8994.168      0.342   1.360  5.48799E-01  7.74827E-01 -2.26028E-01
    8994.589      0.763   1.400  5.77426E-01  7.86695E-01 -2.09269E-01
    8995.022      1.195   1.440  6.07653E-01  7.98362E-01 -1.90709E-01
    8995.467      1.640   1.480  6.47209E-01  8.09783E-01 -1.62574E-01
    8995.924      2.098   1.520  6.95425E-01  8.20951E-01 -1.25526E-01
    8996.393      2.567   1.560  7.39330E-01  8.31861E-01 -9.25312E-02
    8996.875      3.049   1.600  7.68794E-01  8.42465E-01 -7.36715E-02
    8997.369      3.542   1.640  7.91180E-01  8.52777E-01 -6.15971E-02
    8997.875      4.048   1.680  8.19375E-01  8.62771E-01 -4.33964E-02
    8998.393      4.567   1.720  8.54430E-01  8.72403E-01 -1.79731E-02
    8998.923      5.097   1.760  8.87544E-01  8.81708E-01  5.83635E-03
    8999.466      5.639   1.800  9.09889E-01  8.90661E-01  1.92277E-02
    9000.020      6.194   1.840  9.31495E-01  8.99241E-01  3.22544E-02
    9000.587      6.761   1.880  9.74697E-01  9.07463E-01  6.72341E-02
    9001.166      7.340   1.920  1.04424E+00  9.15285E-01  1.28958E-01
    9001.758      7.932   1.960  1.11928E+00  9.22728E-01  1.96547E-01
    9002.361      8.535   2.000  1.17455E+00  9.29791E-01  2.44762E-01
    9002.977      9.151   2.040  1.20606E+00  9.36475E-01  2.69581E-01
    9003.605      9.779   2.080  1.22622E+00  9.42780E-01  2.83438E-01
    9004.245     10.419   2.120  1.23182E+00  9.48710E-01  2.83114E-01
    9004.897     11.071   2.160  1.21596E+00  9.54244E-01  2.61719E-01
    9005.562     11.735   2.200  1.19230E+00  9.59429E-01  2.32868E-01
    9006.238     12.412   2.240  1.17856E+00  9.64248E-01  2.14314E-01
    9006.927     13.101   2.280  1.18019E+00  9.68704E-01  2.11482E-01
    9007.628     13.802   2.320  1.19515E+00  9.72822E-01  2.22325E-01
    9008.341     14.515   2.360  1.21502E+00  9.76609E-01  2.38410E-01
    9009.067     15.241   2.400  1.23441E+00  9.80068E-01  2.54344E-01
    9009.804     15.978   2.440  1.25493E+00  9.83206E-01  2.71723E-01
    9010.554     16.728   2.480  1.27385E+00  9.86049E-01  2.87800E-01
    9011.316     17.490   2.520  1.28918E+00  9.88604E-01  3.00580E-01
    9012.090     18.264   2.560  1.29631E+00  9.90876E-01  3.05433E-01
    9012.877     19.051   2.600  1.28210E+00  9.92874E-01  2.89227E-01
    9013.675     19.849   2.640  1.23202E+00  9.94645E-01  2.37371E-01
    9014.486     20.660   2.680  1.15456E+00  9.96175E-01  1.58383E-01
    9015.309     21.483   2.720  1.08081E+00  9.97492E-01  8.33134E-02
    9016.144     22.318   2.760  1.02926E+00  9.98581E-01  3.06799E-02
    9016.992     23.165   2.800  1.00047E+00  9.99489E-01  9.85124E-04
    9017.851     24.025   2.840  9.89311E-01  1.00020E+00 -1.08915E-02
    9018.723     24.897   2.880  9.81623E-01  1.00075E+00 -1.91258E-02
    9019.607     25.781   2.920  9.62574E-01  1.00113E+00 -3.85596E-02
    9020.503     26.677   2.960  9.38508E-01  1.00139E+00 -6.28775E-02
    9021.411     27.585   3.000  9.18588E-01  1.00149E+00 -8.29016E-02
    9022.332     28.505   3.040  9.05497E-01  1.00149E+00 -9.59946E-02
    9023.264     29.438   3.080  8.96886E-01  1.00138E+00 -1.04492E-01
    9024.209     30.383   3.120  8.89689E-01  1.00117E+00 -1.11483E-01
    9025.166     31.340   3.160  8.82069E-01  1.00086E+00 -1.18792E-01
    9026.136     32.309   3.200  8.73945E-01  1.00049E+00 -1.26547E-01
    9027.117     33.291   3.240  8.66463E-01  1.00005E+00 -1.33583E-01
    9028.111     34.284   3.280  8.61267E-01  9.99550E-01 -1.38284E-01
    9029.117     35.290   3.320  8.58921E-01  9.98989E-01 -1.40067E-01
    9030.135     36.308   3.360  8.59605E-01  9.98405E-01 -1.38800E-01
    9031.165     37.339   3.400  8.63096E-01  9.97784E-01 -1.34688E-01
    9032.207     38.381   3.440  8.68699E-01  9.97129E-01 -1.28430E-01
    9033.262     39.436   3.480  8.75612E-01  9.96462E-01 -1.20850E-01
    9034.329     40.502   3.520  8.83226E-01  9.95767E-01 -1.12541E-01
    9035.408     41.581   3.560  8.91391E-01  9.95090E-01 -1.03699E-01
    9036.499     42.672   3.600  8.99994E-01  9.94392E-01 -9.43981E-02
    9037.602     43.776   3.640  9.09231E-01  9.93715E-01 -8.44839E-02
    9038.718     44.891   3.680  9.19158E-01  9.93042E-01 -7.38835E-02
    9039.845     46.019   3.720  9.29645E-01  9.92374E-01 -6.27287E-02
    9040.985     47.159   3.760  9.40328E-01  9.91734E-01 -5.14052E-02
    9042.138     48.311   3.800  9.50578E-01  9.91104E-01 -4.05259E-02
    9043.302     49.476   3.840  9.59607E-01  9.90506E-01 -3.08992E-02
    9044.478     50.652   3.880  9.66550E-01  9.89941E-01 -2.33902E-02
    9045.667     51.841   3.920  9.70861E-01  9.89390E-01 -1.85290E-02
    9046.868     53.042   3.960  9.72496E-01  9.88897E-01 -1.64003E-02
    9048.081     54.255   4.000  9.71869E-01  9.88419E-01 -1.65501E-02
    9049.306     55.480   4.040  9.69955E-01  9.87978E-01 -1.80221E-02
    9050.544     56.718   4.080  9.68047E-01  9.87574E-01 -1.95271E-02
    9051.794     57.967   4.120  9.67497E-01  9.87210E-01 -1.97124E-02
    9053.055     59.229   4.160  9.69498E-01  9.86886E-01 -1.73881E-02
    9054.329     60.503   4.200  9.74978E-01  9.86623E-01 -1.16450E-02
    9055.616     61.789   4.240  9.84394E-01  9.86377E-01 -1.98288E-03
    9056.914     63.088   4.280  9.97786E-01  9.86169E-01  1.16169E-02
    9058.225     64.399   4.320  1.01472E+00  9.86001E-01  2.87156E-02
    9059.548     65.721   4.360  1.03420E+00  9.85871E-01  4.83307E-02
    9060.883     67.056   4.400  1.05462E+00  9.85779E-01  6.88387E-02
    9062.230     68.404   4.440  1.07391E+00  9.85726E-01  8.81827E-02
    9063.589     69.763   4.480  1.08981E+00  9.85712E-01  1.04094E-01
    9064.961     71.135   4.520  1.10023E+00  9.85734E-01  1.14500E-01
    9066.345     72.518   4.560  1.10401E+00  9.85792E-01  1.18214E-01
    9067.741     73.914   4.600  1.10112E+00  9.85865E-01  1.15257E-01
    9069.149     75.323   4.640  1.09269E+00  9.85972E-01  1.06723E-01
    9070.569     76.743   4.680  1.08051E+00  9.86113E-01  9.44015E-02
    9072.002     78.175   4.720  1.06658E+00  9.86288E-01  8.02962E-02
    9073.446     79.620   4.760  1.05260E+00  9.86474E-01  6.61294E-02
    9074.903     81.077   4.800  1.03972E+00  9.86690E-01  5.30288E-02
    9076.373     82.546   4.840  1.02828E+00  9.86914E-01  4.13657E-02
    9077.854     84.028   4.880  1.01810E+00  9.87168E-01  3.09305E-02
    9079.347     85.521   4.920  1.00895E+00  9.87428E-01  2.15255E-02
    9080.853     87.027   4.960  1.00105E+00  9.87692E-01  1.33555E-02
    9082.371     88.545   5.000  9.94898E-01  9.87983E-01  6.91487E-03
    9083.901     90.075   5.040  9.90760E-01  9.88278E-01  2.48240E-03
    9085.443     91.617   5.080  9.88380E-01  9.88574E-01 -1.94700E-04
    9086.998     93.172   5.120  9.87104E-01  9.88871E-01 -1.76706E-03
    9088.564     94.738   5.160  9.86187E-01  9.89165E-01 -2.97801E-03
    9090.143     96.317   5.200  9.85104E-01  9.89460E-01 -4.35616E-03
    9091.734     97.908   5.240  9.83648E-01  9.89754E-01 -6.10643E-03
    9093.338     99.511   5.280  9.81880E-01  9.90044E-01 -8.16412E-03
    9094.953    101.127   5.320  9.79867E-01  9.90330E-01 -1.04625E-02
    9096.581    102.754   5.360  9.77384E-01  9.90588E-01 -1.32036E-02
    9098.220    104.394   5.400  9.74014E-01  9.90838E-01 -1.68239E-02
    9099.873    106.046   5.440  9.69499E-01  9.91082E-01 -2.15838E-02
    9101.537    107.710   5.480  9.64111E-01  9.91296E-01 -2.71858E-02
    9103.213    109.387   5.520  9.58675E-01  9.91500E-01 -3.28247E-02
    9104.902    111.075   5.560  9.53975E-01  9.91670E-01 -3.76947E-02
    9106.602    112.776   5.600  9.50418E-01  9.91806E-01 -4.13885E-02
    9108.315    114.489   5.640  9.47999E-01  9.91933E-01 -4.39344E-02
    9110.041    116.214   5.680  9.46550E-01  9.92048E-01 -4.54986E-02
    9111.778    117.952   5.720  9.45955E-01  9.92107E-01 -4.61517E-02
    9113.527    119.701   5.760  9.46337E-01  9.92152E-01 -4.58146E-02
    9115.289    121.463   5.800  9.47772E-01  9.92163E-01 -4.43908E-02
    9117.063    123.237   5.840  9.50267E-01  9.92163E-01 -4.18963E-02
    9118.849    125.023   5.880  9.53602E-01  9.92127E-01 -3.85250E-02
    9120.648    126.821   5.920  9.57405E-01  9.92028E-01 -3.46231E-02
    9122.458    128.632   5.960  9.61359E-01  9.91916E-01 -3.05576E-02
    9124.281    130.455   6.000  9.65327E-01  9.91779E-01 -2.64519E-02
