# # comment:                                                     FEFF 9.9.1  
# # Source:
# # Structure
# # Reduced
# # space
# # abc:
# # angles:
# # sites:
# # POT  SCF 100  7.0000   0, screened core-hole, AFOLP (folp(0)= 1.150)
# # Abs   Z=29 Rmt= 1.179 Rnm= 1.290 K  shell
# # Pot 1 Z=56 Rmt= 1.973 Rnm= 2.015
# # Pot 2 Z=64 Rmt= 1.549 Rnm= 1.632
# # Pot 3 Z=29 Rmt= 1.179 Rnm= 1.290
# # Pot 4 Z= 8 Rmt= 1.058 Rnm= 1.113
# # Gam_ch=1.729E+00 H-L exch Vi= 0.000E+00 Vr= 0.000E+00
# # Mu=-9.002E+00eV kf=1.993E+00 Vint=-1.779E+01eV Rs_int= 1.820
# FMS rfms= 9.0000
# # PATH  Rmax=-1.000,  Keep_limit= 0.00, Heap_limit 0.00  Pwcrit= 2.50%
#  S02=0.950  Temp=   0.00  Debye_temp=   0.00  Global_sig2= 0.00000
#  Energy zero shift, vr, vi    0.00000E+00   0.00000E+00
#  Curved wave amplitude ratio filter   4.000%
#     file         sig2 tot  cw amp ratio   deg  nlegs   reff  inp sig2
#     0/   0 paths used
#  xsedge+ 50, used to normalize mu           2.4578E-04
#  -----------------------------------------------------------------------
#  omega    e    k    mu    mu0     chi     @#
    8985.007    -12.812  -1.000  3.65537E-02  5.56780E-02 -1.91243E-02
    8985.305    -12.514  -0.960  3.84058E-02  5.97599E-02 -2.13541E-02
    8985.592    -12.227  -0.920  4.04046E-02  6.42980E-02 -2.38934E-02
    8985.866    -11.953  -0.880  4.25693E-02  6.93594E-02 -2.67902E-02
    8986.128    -11.691  -0.840  4.49229E-02  7.50226E-02 -3.00997E-02
    8986.378    -11.441  -0.800  4.74926E-02  8.13782E-02 -3.38856E-02
    8986.616    -11.203  -0.760  5.03102E-02  8.85303E-02 -3.82201E-02
    8986.842    -10.977  -0.720  5.34126E-02  9.65965E-02 -4.31839E-02
    8987.055    -10.764  -0.680  5.68413E-02  1.05706E-01 -4.88651E-02
    8987.256    -10.563  -0.640  6.06408E-02  1.15997E-01 -5.53558E-02
    8987.445    -10.374  -0.600  6.48558E-02  1.27602E-01 -6.27459E-02
    8987.622    -10.197  -0.560  6.95238E-02  1.40636E-01 -7.11122E-02
    8987.786    -10.032  -0.520  7.46658E-02  1.55168E-01 -8.05022E-02
    8987.939     -9.880  -0.480  8.02709E-02  1.71182E-01 -9.09116E-02
    8988.079     -9.740  -0.440  8.62798E-02  1.88539E-01 -1.02259E-01
    8988.207     -9.612  -0.400  9.25711E-02  2.06935E-01 -1.14364E-01
    8988.323     -9.496  -0.360  9.89586E-02  2.25895E-01 -1.26937E-01
    8988.426     -9.392  -0.320  1.05207E-01  2.44803E-01 -1.39596E-01
    8988.518     -9.301  -0.280  1.11069E-01  2.62972E-01 -1.51903E-01
    8988.597     -9.222  -0.240  1.16323E-01  2.79743E-01 -1.63420E-01
    8988.664     -9.155  -0.200  1.20814E-01  2.94564E-01 -1.73750E-01
    8988.719     -9.100  -0.160  1.24457E-01  3.07031E-01 -1.82574E-01
    8988.762     -9.057  -0.120  1.27229E-01  3.16887E-01 -1.89657E-01
    8988.792     -9.027  -0.080  1.29148E-01  3.23987E-01 -1.94839E-01
    8988.817     -9.002   0.000  1.30605E-01  3.29691E-01 -1.99087E-01
    8988.871     -8.947   0.120  1.34204E-01  3.42563E-01 -2.08359E-01
    8988.914     -8.905   0.160  1.36789E-01  3.52543E-01 -2.15754E-01
    8988.969     -8.850   0.200  1.39896E-01  3.65302E-01 -2.25406E-01
    8989.036     -8.783   0.240  1.43322E-01  3.80667E-01 -2.37345E-01
    8989.115     -8.704   0.280  1.46744E-01  3.98290E-01 -2.51545E-01
    8989.207     -8.612   0.320  1.49894E-01  4.17723E-01 -2.67829E-01
    8989.310     -8.508   0.360  1.52584E-01  4.38450E-01 -2.85866E-01
    8989.426     -8.393   0.400  1.54690E-01  4.59796E-01 -3.05106E-01
    8989.554     -8.265   0.440  1.56495E-01  4.81282E-01 -3.24786E-01
    8989.694     -8.124   0.480  1.58400E-01  5.02425E-01 -3.44025E-01
    8989.847     -7.972   0.520  1.61061E-01  5.22979E-01 -3.61918E-01
    8990.011     -7.807   0.560  1.65106E-01  5.42780E-01 -3.77674E-01
    8990.188     -7.631   0.600  1.71172E-01  5.61814E-01 -3.90642E-01
    8990.377     -7.442   0.640  1.79657E-01  5.80119E-01 -4.00462E-01
    8990.578     -7.241   0.680  1.90709E-01  5.97791E-01 -4.07082E-01
    8990.792     -7.027   0.720  2.04038E-01  6.14900E-01 -4.10862E-01
    8991.017     -6.802   0.760  2.19023E-01  6.31553E-01 -4.12530E-01
    8991.255     -6.564   0.800  2.35030E-01  6.47809E-01 -4.12780E-01
    8991.505     -6.314   0.840  2.52236E-01  6.63754E-01 -4.11518E-01
    8991.767     -6.052   0.880  2.72106E-01  6.79417E-01 -4.07312E-01
    8992.041     -5.777   0.920  2.97352E-01  6.94856E-01 -3.97505E-01
    8992.328     -5.491   0.960  3.30643E-01  7.10075E-01 -3.79432E-01
    8992.627     -5.192   1.000  3.73326E-01  7.25066E-01 -3.51740E-01
    8992.938     -4.881   1.040  4.24739E-01  7.39875E-01 -3.15136E-01
    8993.261     -4.558   1.080  4.80229E-01  7.54456E-01 -2.74227E-01
    8993.596     -4.223   1.120  5.29367E-01  7.68821E-01 -2.39454E-01
    8993.943     -3.876   1.160  5.62715E-01  7.82935E-01 -2.20220E-01
    8994.303     -3.516   1.200  5.81574E-01  7.96778E-01 -2.15204E-01
    8994.675     -3.144   1.240  5.92765E-01  8.10329E-01 -2.17564E-01
    8995.059     -2.760   1.280  6.00140E-01  8.23563E-01 -2.23422E-01
    8995.455     -2.364   1.320  6.07315E-01  8.36474E-01 -2.29159E-01
    8995.864     -1.955   1.360  6.23578E-01  8.48996E-01 -2.25418E-01
    8996.284     -1.535   1.400  6.57291E-01  8.61122E-01 -2.03831E-01
    8996.717     -1.102   1.440  7.07391E-01  8.72845E-01 -1.65455E-01
    8997.162     -0.657   1.480  7.55912E-01  8.84138E-01 -1.28226E-01
    8997.619     -0.200   1.520  7.67202E-01  8.94976E-01 -1.27774E-01
    8998.089      0.270   1.560  7.50737E-01  9.05332E-01 -1.54595E-01
    8998.570      0.751   1.600  7.64887E-01  9.15224E-01 -1.50337E-01
    8999.064      1.245   1.640  8.44978E-01  9.24605E-01 -7.96269E-02
    8999.570      1.751   1.680  9.93010E-01  9.33473E-01  5.95370E-02
    9000.088      2.269   1.720  1.17567E+00  9.41852E-01  2.33815E-01
    9000.618      2.800   1.760  1.32558E+00  9.49719E-01  3.75858E-01
    9001.161      3.342   1.800  1.39366E+00  9.57074E-01  4.36588E-01
    9001.716      3.897   1.840  1.39469E+00  9.63922E-01  4.30766E-01
    9002.283      4.464   1.880  1.36859E+00  9.70267E-01  3.98318E-01
    9002.862      5.043   1.920  1.33600E+00  9.76113E-01  3.59883E-01
    9003.453      5.634   1.960  1.29259E+00  9.81488E-01  3.11102E-01
    9004.057      6.238   2.000  1.23878E+00  9.86397E-01  2.52381E-01
    9004.672      6.853   2.040  1.18973E+00  9.90848E-01  1.98877E-01
    9005.300      7.481   2.080  1.16089E+00  9.94850E-01  1.66041E-01
    9005.940      8.121   2.120  1.15258E+00  9.98452E-01  1.54127E-01
    9006.592      8.774   2.160  1.15046E+00  1.00162E+00  1.48837E-01
    9007.257      9.438   2.200  1.13862E+00  1.00441E+00  1.34213E-01
    9007.934     10.115   2.240  1.11146E+00  1.00685E+00  1.04607E-01
    9008.622     10.804   2.280  1.08065E+00  1.00893E+00  7.17187E-02
    9009.323     11.505   2.320  1.06472E+00  1.01067E+00  5.40442E-02
    9010.037     12.218   2.360  1.07046E+00  1.01210E+00  5.83590E-02
    9010.762     12.943   2.400  1.09364E+00  1.01326E+00  8.03801E-02
    9011.500     13.681   2.440  1.11591E+00  1.01416E+00  1.01753E-01
    9012.250     14.431   2.480  1.12094E+00  1.01479E+00  1.06153E-01
    9013.012     15.193   2.520  1.11552E+00  1.01520E+00  1.00322E-01
    9013.786     15.967   2.560  1.10634E+00  1.01541E+00  9.09342E-02
    9014.572     16.753   2.600  1.09598E+00  1.01541E+00  8.05632E-02
    9015.371     17.552   2.640  1.08527E+00  1.01527E+00  7.00010E-02
    9016.181     18.363   2.680  1.07454E+00  1.01495E+00  5.95939E-02
    9017.004     19.186   2.720  1.06429E+00  1.01451E+00  4.97810E-02
    9017.840     20.021   2.760  1.05398E+00  1.01393E+00  4.00430E-02
    9018.687     20.868   2.800  1.04235E+00  1.01326E+00  2.90887E-02
    9019.546     21.728   2.840  1.02844E+00  1.01250E+00  1.59441E-02
    9020.418     22.599   2.880  1.01204E+00  1.01165E+00  3.83049E-04
    9021.302     23.483   2.920  9.93432E-01  1.01073E+00 -1.73021E-02
    9022.198     24.379   2.960  9.73886E-01  1.00977E+00 -3.58817E-02
    9023.106     25.288   3.000  9.55205E-01  1.00878E+00 -5.35751E-02
    9024.027     26.208   3.040  9.38803E-01  1.00774E+00 -6.89318E-02
    9024.960     27.141   3.080  9.25067E-01  1.00668E+00 -8.16130E-02
    9025.905     28.086   3.120  9.13469E-01  1.00562E+00 -9.21504E-02
    9026.862     29.043   3.160  9.02753E-01  1.00456E+00 -1.01804E-01
    9027.831     30.012   3.200  8.91923E-01  1.00352E+00 -1.11596E-01
    9028.812     30.993   3.240  8.81007E-01  1.00249E+00 -1.21482E-01
    9029.806     31.987   3.280  8.71228E-01  1.00147E+00 -1.30238E-01
    9030.812     32.993   3.320  8.64328E-01  1.00048E+00 -1.36148E-01
    9031.830     34.011   3.360  8.61985E-01  9.99521E-01 -1.37536E-01
    9032.860     35.041   3.400  8.65452E-01  9.98605E-01 -1.33153E-01
    9033.902     36.084   3.440  8.74852E-01  9.97730E-01 -1.22878E-01
    9034.957     37.138   3.480  8.89807E-01  9.96896E-01 -1.07089E-01
    9036.024     38.205   3.520  9.09422E-01  9.96106E-01 -8.66846E-02
    9037.103     39.284   3.560  9.32212E-01  9.95382E-01 -6.31708E-02
    9038.194     40.375   3.600  9.55939E-01  9.94706E-01 -3.87666E-02
    9039.297     41.479   3.640  9.78031E-01  9.94078E-01 -1.60470E-02
    9040.413     42.594   3.680  9.95823E-01  9.93541E-01  2.28263E-03
    9041.541     43.722   3.720  1.00703E+00  9.93032E-01  1.39975E-02
    9042.681     44.862   3.760  1.01081E+00  9.92594E-01  1.82197E-02
    9043.833     46.014   3.800  1.00791E+00  9.92227E-01  1.56876E-02
    9044.997     47.178   3.840  1.00042E+00  9.91910E-01  8.51238E-03
    9046.174     48.355   3.880  9.91192E-01  9.91661E-01 -4.69137E-04
    9047.362     49.543   3.920  9.82866E-01  9.91462E-01 -8.59596E-03
    9048.563     50.744   3.960  9.77426E-01  9.91311E-01 -1.38854E-02
    9049.776     51.957   4.000  9.76105E-01  9.91230E-01 -1.51246E-02
    9051.002     53.183   4.040  9.79359E-01  9.91219E-01 -1.18600E-02
    9052.239     54.420   4.080  9.86884E-01  9.91255E-01 -4.37061E-03
    9053.489     55.670   4.120  9.97703E-01  9.91334E-01  6.36855E-03
    9054.751     56.932   4.160  1.01043E+00  9.91460E-01  1.89657E-02
    9056.025     58.206   4.200  1.02361E+00  9.91651E-01  3.19570E-02
    9057.311     59.492   4.240  1.03588E+00  9.91885E-01  4.39957E-02
    9058.609     60.791   4.280  1.04602E+00  9.92161E-01  5.38555E-02
    9059.920     62.101   4.320  1.05309E+00  9.92476E-01  6.06099E-02
    9061.243     63.424   4.360  1.05675E+00  9.92828E-01  6.39206E-02
    9062.578     64.759   4.400  1.05739E+00  9.93194E-01  6.41997E-02
    9063.925     66.106   4.440  1.05608E+00  9.93618E-01  6.24663E-02
    9065.285     67.466   4.480  1.05382E+00  9.94053E-01  5.97646E-02
    9066.656     68.837   4.520  1.05136E+00  9.94499E-01  5.68578E-02
    9068.040     70.221   4.560  1.04910E+00  9.94996E-01  5.41088E-02
    9069.436     71.617   4.600  1.04671E+00  9.95479E-01  5.12320E-02
    9070.844     73.025   4.640  1.04328E+00  9.95991E-01  4.72894E-02
    9072.264     74.446   4.680  1.03776E+00  9.96529E-01  4.12322E-02
    9073.697     75.878   4.720  1.02969E+00  9.97046E-01  3.26477E-02
    9075.142     77.323   4.760  1.01967E+00  9.97563E-01  2.21069E-02
    9076.599     78.780   4.800  1.00909E+00  9.98101E-01  1.09875E-02
    9078.068     80.249   4.840  9.99539E-01  9.98614E-01  9.24211E-04
    9079.549     81.730   4.880  9.92402E-01  9.99124E-01 -6.72229E-03
    9081.043     83.224   4.920  9.88416E-01  9.99629E-01 -1.12132E-02
    9082.548     84.729   4.960  9.87676E-01  1.00013E+00 -1.24516E-02
    9084.066     86.247   5.000  9.89751E-01  1.00060E+00 -1.08449E-02
    9085.596     87.777   5.040  9.93899E-01  1.00106E+00 -7.15579E-03
    9087.139     89.320   5.080  9.99118E-01  1.00148E+00 -2.36406E-03
    9088.693     90.874   5.120  1.00442E+00  1.00190E+00  2.52312E-03
    9090.260     92.441   5.160  1.00888E+00  1.00227E+00  6.60283E-03
    9091.839     94.020   5.200  1.01162E+00  1.00261E+00  9.00749E-03
    9093.430     95.611   5.240  1.01171E+00  1.00292E+00  8.78808E-03
    9095.033     97.214   5.280  1.00838E+00  1.00321E+00  5.17307E-03
    9096.648     98.829   5.320  1.00186E+00  1.00343E+00 -1.57582E-03
    9098.276    100.457   5.360  9.93393E-01  1.00364E+00 -1.02484E-02
    9099.916    102.097   5.400  9.85582E-01  1.00381E+00 -1.82308E-02
    9101.568    103.749   5.440  9.80396E-01  1.00394E+00 -2.35463E-02
    9103.232    105.413   5.480  9.78159E-01  1.00403E+00 -2.58726E-02
    9104.908    107.089   5.520  9.77587E-01  1.00408E+00 -2.64913E-02
    9106.597    108.778   5.560  9.76812E-01  1.00406E+00 -2.72497E-02
    9108.298    110.479   5.600  9.74528E-01  1.00403E+00 -2.94989E-02
    9110.011    112.192   5.640  9.70940E-01  1.00395E+00 -3.30120E-02
    9111.736    113.917   5.680  9.66993E-01  1.00384E+00 -3.68428E-02
    9113.473    115.654   5.720  9.64079E-01  1.00368E+00 -3.96020E-02
    9115.223    117.404   5.760  9.63244E-01  1.00348E+00 -4.02395E-02
    9116.984    119.166   5.800  9.64762E-01  1.00322E+00 -3.84618E-02
    9118.758    120.940   5.840  9.68405E-01  1.00295E+00 -3.45444E-02
    9120.545    122.726   5.880  9.73969E-01  1.00264E+00 -2.86688E-02
    9122.343    124.524   5.920  9.81696E-01  1.00229E+00 -2.05974E-02
    9124.153    126.334   5.960  9.91851E-01  1.00191E+00 -1.00621E-02
    9125.976    128.157   6.000  1.00399E+00  1.00150E+00  2.48780E-03
