# # comment:                                                     FEFF 9.9.1  
# # Source:
# # Structure
# # Reduced
# # space
# # abc:
# # angles:
# # sites:
# # POT  SCF 100  7.0000   0, screened core-hole, AFOLP (folp(0)= 1.150)
# # Abs   Z=29 Rmt= 1.230 Rnm= 1.306 K  shell
# # Pot 1 Z=56 Rmt= 1.962 Rnm= 2.016
# # Pot 2 Z=60 Rmt= 1.708 Rnm= 1.779
# # Pot 3 Z=29 Rmt= 1.230 Rnm= 1.306
# # Pot 4 Z= 8 Rmt= 1.059 Rnm= 1.110
# # Gam_ch=1.729E+00 H-L exch Vi= 0.000E+00 Vr= 0.000E+00
# # Mu=-8.226E+00eV kf=1.987E+00 Vint=-1.747E+01eV Rs_int= 1.826
# FMS rfms= 9.0000
# # PATH  Rmax=-1.000,  Keep_limit= 0.00, Heap_limit 0.00  Pwcrit= 2.50%
#  S02=0.950  Temp=   0.00  Debye_temp=   0.00  Global_sig2= 0.00000
#  Energy zero shift, vr, vi    0.00000E+00   0.00000E+00
#  Curved wave amplitude ratio filter   4.000%
#     file         sig2 tot  cw amp ratio   deg  nlegs   reff  inp sig2
#     0/   0 paths used
#  xsedge+ 50, used to normalize mu           2.4392E-04
#  -----------------------------------------------------------------------
#  omega    e    k    mu    mu0     chi     @#
    8985.118    -12.036  -1.000  4.30513E-02  5.84497E-02 -1.53984E-02
    8985.417    -11.737  -0.960  4.55238E-02  6.28182E-02 -1.72944E-02
    8985.703    -11.450  -0.920  4.82171E-02  6.76819E-02 -1.94648E-02
    8985.978    -11.176  -0.880  5.11610E-02  7.31145E-02 -2.19535E-02
    8986.240    -10.914  -0.840  5.43904E-02  7.92018E-02 -2.48114E-02
    8986.490    -10.664  -0.800  5.79461E-02  8.60432E-02 -2.80972E-02
    8986.728    -10.426  -0.760  6.18749E-02  9.37530E-02 -3.18781E-02
    8986.953    -10.201  -0.720  6.62304E-02  1.02460E-01 -3.62300E-02
    8987.166     -9.987  -0.680  7.10718E-02  1.12308E-01 -4.12358E-02
    8987.368     -9.786  -0.640  7.64621E-02  1.23445E-01 -4.69829E-02
    8987.557     -9.597  -0.600  8.24633E-02  1.36021E-01 -5.35572E-02
    8987.733     -9.420  -0.560  8.91283E-02  1.50161E-01 -6.10324E-02
    8987.898     -9.256  -0.520  9.64873E-02  1.65941E-01 -6.94540E-02
    8988.050     -9.103  -0.480  1.04530E-01  1.83347E-01 -7.88166E-02
    8988.191     -8.963  -0.440  1.13185E-01  2.02224E-01 -8.90392E-02
    8988.319     -8.835  -0.400  1.22299E-01  2.22242E-01 -9.99431E-02
    8988.434     -8.719  -0.360  1.31636E-01  2.42882E-01 -1.11245E-01
    8988.538     -8.616  -0.320  1.40890E-01  2.63467E-01 -1.22577E-01
    8988.629     -8.524  -0.280  1.49722E-01  2.83247E-01 -1.33526E-01
    8988.709     -8.445  -0.240  1.57812E-01  3.01503E-01 -1.43691E-01
    8988.776     -8.378  -0.200  1.64903E-01  3.17632E-01 -1.52729E-01
    8988.831     -8.323  -0.160  1.70816E-01  3.31194E-01 -1.60378E-01
    8988.873     -8.280  -0.120  1.75453E-01  3.41911E-01 -1.66458E-01
    8988.904     -8.250  -0.080  1.78771E-01  3.49630E-01 -1.70858E-01
    8988.928     -8.226   0.000  1.81417E-01  3.55829E-01 -1.74412E-01
    8988.983     -8.171   0.120  1.87249E-01  3.69805E-01 -1.82556E-01
    8989.026     -8.128   0.160  1.91721E-01  3.80649E-01 -1.88928E-01
    8989.081     -8.073   0.200  1.97339E-01  3.94487E-01 -1.97148E-01
    8989.148     -8.006   0.240  2.03940E-01  4.11124E-01 -2.07184E-01
    8989.227     -7.927   0.280  2.11274E-01  4.30215E-01 -2.18940E-01
    8989.318     -7.835   0.320  2.18990E-01  4.51217E-01 -2.32228E-01
    8989.422     -7.732   0.360  2.26771E-01  4.73532E-01 -2.46761E-01
    8989.538     -7.616   0.400  2.34316E-01  4.96476E-01 -2.62160E-01
    8989.666     -7.488   0.440  2.41508E-01  5.19448E-01 -2.77940E-01
    8989.806     -7.348   0.480  2.48463E-01  5.41959E-01 -2.93497E-01
    8989.958     -7.195   0.520  2.55493E-01  5.63693E-01 -3.08200E-01
    8990.123     -7.031   0.560  2.63132E-01  5.84510E-01 -3.21377E-01
    8990.300     -6.854   0.600  2.71916E-01  6.04373E-01 -3.32458E-01
    8990.489     -6.665   0.640  2.82389E-01  6.23307E-01 -3.40918E-01
    8990.690     -6.464   0.680  2.95260E-01  6.41437E-01 -3.46177E-01
    8990.903     -6.251   0.720  3.11446E-01  6.58846E-01 -3.47399E-01
    8991.129     -6.025   0.760  3.32182E-01  6.75633E-01 -3.43451E-01
    8991.367     -5.787   0.800  3.58567E-01  6.91888E-01 -3.33321E-01
    8991.617     -5.537   0.840  3.90568E-01  7.07687E-01 -3.17119E-01
    8991.879     -5.275   0.880  4.25672E-01  7.23091E-01 -2.97419E-01
    8992.153     -5.001   0.920  4.57946E-01  7.38145E-01 -2.80199E-01
    8992.439     -4.714   0.960  4.79881E-01  7.52858E-01 -2.72976E-01
    8992.738     -4.416   1.000  4.88163E-01  7.67251E-01 -2.79088E-01
    8993.049     -4.105   1.040  4.86869E-01  7.81354E-01 -2.94485E-01
    8993.372     -3.782   1.080  4.83819E-01  7.95148E-01 -3.11329E-01
    8993.707     -3.446   1.120  4.85666E-01  8.08628E-01 -3.22962E-01
    8994.055     -3.099   1.160  4.96170E-01  8.21783E-01 -3.25613E-01
    8994.415     -2.739   1.200  5.17030E-01  8.34599E-01 -3.17569E-01
    8994.786     -2.367   1.240  5.48828E-01  8.47038E-01 -2.98210E-01
    8995.170     -1.983   1.280  5.90738E-01  8.59121E-01 -2.68383E-01
    8995.567     -1.587   1.320  6.41804E-01  8.70784E-01 -2.28980E-01
    8995.975     -1.179   1.360  7.04415E-01  8.82046E-01 -1.77631E-01
    8996.396     -0.758   1.400  7.84284E-01  8.92863E-01 -1.08579E-01
    8996.829     -0.325   1.440  8.86549E-01  9.03232E-01 -1.66839E-02
    8997.274      0.120   1.480  1.00286E+00  9.13131E-01  8.97330E-02
    8997.731      0.577   1.520  1.10948E+00  9.22557E-01  1.86922E-01
    8998.200      1.046   1.560  1.18174E+00  9.31488E-01  2.50253E-01
    8998.682      1.528   1.600  1.20984E+00  9.39944E-01  2.69894E-01
    8999.176      2.022   1.640  1.22906E+00  9.47886E-01  2.81170E-01
    8999.681      2.528   1.680  1.30190E+00  9.55334E-01  3.46561E-01
    9000.200      3.046   1.720  1.45490E+00  9.62271E-01  4.92628E-01
    9000.730      3.576   1.760  1.62601E+00  9.68741E-01  6.57265E-01
    9001.273      4.119   1.800  1.68450E+00  9.74687E-01  7.09810E-01
    9001.827      4.673   1.840  1.59081E+00  9.80177E-01  6.10629E-01
    9002.394      5.240   1.880  1.43897E+00  9.85197E-01  4.53778E-01
    9002.973      5.819   1.920  1.31106E+00  9.89753E-01  3.21308E-01
    9003.565      6.411   1.960  1.21933E+00  9.93875E-01  2.25454E-01
    9004.168      7.014   2.000  1.15459E+00  9.97570E-01  1.57019E-01
    9004.784      7.630   2.040  1.11761E+00  1.00085E+00  1.16765E-01
    9005.412      8.258   2.080  1.11018E+00  1.00374E+00  1.06446E-01
    9006.052      8.898   2.120  1.11186E+00  1.00625E+00  1.05614E-01
    9006.704      9.550   2.160  1.08927E+00  1.00842E+00  8.08525E-02
    9007.369     10.215   2.200  1.03555E+00  1.01023E+00  2.53247E-02
    9008.045     10.891   2.240  9.82370E-01  1.01175E+00 -2.93803E-02
    9008.734     11.580   2.280  9.54353E-01  1.01296E+00 -5.86074E-02
    9009.435     12.281   2.320  9.55163E-01  1.01391E+00 -5.87423E-02
    9010.148     12.994   2.360  9.76115E-01  1.01460E+00 -3.84821E-02
    9010.874     13.720   2.400  1.01209E+00  1.01505E+00 -2.95388E-03
    9011.611     14.457   2.440  1.05273E+00  1.01530E+00  3.74229E-02
    9012.361     15.207   2.480  1.08270E+00  1.01534E+00  6.73630E-02
    9013.123     15.969   2.520  1.09999E+00  1.01522E+00  8.47666E-02
    9013.897     16.743   2.560  1.10449E+00  1.01494E+00  8.95482E-02
    9014.684     17.530   2.600  1.09781E+00  1.01450E+00  8.33116E-02
    9015.482     18.328   2.640  1.08324E+00  1.01396E+00  6.92760E-02
    9016.293     19.139   2.680  1.06416E+00  1.01330E+00  5.08598E-02
    9017.116     19.962   2.720  1.04318E+00  1.01255E+00  3.06256E-02
    9017.951     20.797   2.760  1.02153E+00  1.01172E+00  9.80468E-03
    9018.798     21.645   2.800  9.99139E-01  1.01084E+00 -1.17038E-02
    9019.658     22.504   2.840  9.75434E-01  1.00991E+00 -3.44794E-02
    9020.530     23.376   2.880  9.50183E-01  1.00894E+00 -5.87593E-02
    9021.414     24.260   2.920  9.24159E-01  1.00793E+00 -8.37756E-02
    9022.310     25.156   2.960  8.99441E-01  1.00692E+00 -1.07475E-01
    9023.218     26.064   3.000  8.78485E-01  1.00587E+00 -1.27389E-01
    9024.139     26.985   3.040  8.62860E-01  1.00485E+00 -1.41993E-01
    9025.071     27.917   3.080  8.53091E-01  1.00386E+00 -1.50766E-01
    9026.016     28.862   3.120  8.49115E-01  1.00287E+00 -1.53755E-01
    9026.973     29.819   3.160  8.49806E-01  1.00190E+00 -1.52089E-01
    9027.942     30.789   3.200  8.53915E-01  1.00098E+00 -1.47061E-01
    9028.924     31.770   3.240  8.60134E-01  1.00008E+00 -1.39942E-01
    9029.918     32.764   3.280  8.67529E-01  9.99237E-01 -1.31708E-01
    9030.923     33.770   3.320  8.75731E-01  9.98421E-01 -1.22690E-01
    9031.941     34.788   3.360  8.85222E-01  9.97692E-01 -1.12470E-01
    9032.972     35.818   3.400  8.96755E-01  9.96991E-01 -1.00235E-01
    9034.014     36.860   3.440  9.10646E-01  9.96360E-01 -8.57137E-02
    9035.069     37.915   3.480  9.26799E-01  9.95800E-01 -6.90007E-02
    9036.135     38.982   3.520  9.44586E-01  9.95292E-01 -5.07056E-02
    9037.214     40.061   3.560  9.63120E-01  9.94858E-01 -3.17375E-02
    9038.306     41.152   3.600  9.81508E-01  9.94498E-01 -1.29897E-02
    9039.409     42.255   3.640  9.98951E-01  9.94191E-01  4.76043E-03
    9040.525     43.371   3.680  1.01482E+00  9.93959E-01  2.08593E-02
    9041.652     44.498   3.720  1.02837E+00  9.93801E-01  3.45721E-02
    9042.792     45.638   3.760  1.03891E+00  9.93698E-01  4.52167E-02
    9043.944     46.791   3.800  1.04599E+00  9.93689E-01  5.23008E-02
    9045.109     47.955   3.840  1.04929E+00  9.93712E-01  5.55804E-02
    9046.285     49.131   3.880  1.04931E+00  9.93829E-01  5.54838E-02
    9047.474     50.320   3.920  1.04694E+00  9.93997E-01  5.29472E-02
    9048.675     51.521   3.960  1.04335E+00  9.94212E-01  4.91378E-02
    9049.888     52.734   4.000  1.03963E+00  9.94497E-01  4.51342E-02
    9051.113     53.959   4.040  1.03645E+00  9.94832E-01  4.16226E-02
    9052.351     55.197   4.080  1.03396E+00  9.95234E-01  3.87228E-02
    9053.600     56.447   4.120  1.03179E+00  9.95680E-01  3.61074E-02
    9054.862     57.708   4.160  1.02972E+00  9.96170E-01  3.35471E-02
    9056.136     58.982   4.200  1.02791E+00  9.96701E-01  3.12115E-02
    9057.423     60.269   4.240  1.02701E+00  9.97271E-01  2.97361E-02
    9058.721     61.567   4.280  1.02771E+00  9.97881E-01  2.98318E-02
    9060.032     62.878   4.320  1.03037E+00  9.98528E-01  3.18438E-02
    9061.354     64.201   4.360  1.03481E+00  9.99209E-01  3.55979E-02
    9062.689     65.536   4.400  1.04059E+00  9.99901E-01  4.06896E-02
    9064.037     66.883   4.440  1.04751E+00  1.00062E+00  4.68840E-02
    9065.396     68.242   4.480  1.05535E+00  1.00136E+00  5.39980E-02
    9066.768     69.614   4.520  1.06368E+00  1.00211E+00  6.15631E-02
    9068.151     70.998   4.560  1.07142E+00  1.00285E+00  6.85722E-02
    9069.547     72.394   4.600  1.07709E+00  1.00361E+00  7.34811E-02
    9070.956     73.802   4.640  1.07906E+00  1.00437E+00  7.46874E-02
    9072.376     75.222   4.680  1.07637E+00  1.00513E+00  7.12415E-02
    9073.809     76.655   4.720  1.06908E+00  1.00589E+00  6.31888E-02
    9075.253     78.099   4.760  1.05799E+00  1.00661E+00  5.13721E-02
    9076.710     79.556   4.800  1.04439E+00  1.00733E+00  3.70568E-02
    9078.179     81.026   4.840  1.02960E+00  1.00802E+00  2.15857E-02
    9079.661     82.507   4.880  1.01492E+00  1.00869E+00  6.23149E-03
    9081.154     84.000   4.920  1.00141E+00  1.00935E+00 -7.94178E-03
    9082.660     85.506   4.960  9.89733E-01  1.00996E+00 -2.02262E-02
    9084.178     87.024   5.000  9.80320E-01  1.01055E+00 -3.02276E-02
    9085.708     88.554   5.040  9.73259E-01  1.01110E+00 -3.78368E-02
    9087.250     90.096   5.080  9.68415E-01  1.01161E+00 -4.31903E-02
    9088.805     91.651   5.120  9.65410E-01  1.01207E+00 -4.66634E-02
    9090.371     93.217   5.160  9.63624E-01  1.01250E+00 -4.88741E-02
    9091.950     94.796   5.200  9.62405E-01  1.01288E+00 -5.04756E-02
    9093.541     96.387   5.240  9.61306E-01  1.01322E+00 -5.19114E-02
    9095.144     97.991   5.280  9.60336E-01  1.01349E+00 -5.31520E-02
    9096.760     99.606   5.320  9.60065E-01  1.01374E+00 -5.36705E-02
    9098.388    101.234   5.360  9.60983E-01  1.01391E+00 -5.29313E-02
    9100.027    102.874   5.400  9.63381E-01  1.01404E+00 -5.06639E-02
    9101.679    104.526   5.440  9.67009E-01  1.01411E+00 -4.70963E-02
    9103.344    106.190   5.480  9.71292E-01  1.01412E+00 -4.28278E-02
    9105.020    107.866   5.520  9.75522E-01  1.01409E+00 -3.85676E-02
    9106.709    109.555   5.560  9.79032E-01  1.01401E+00 -3.49828E-02
    9108.409    111.255   5.600  9.81359E-01  1.01390E+00 -3.25359E-02
    9110.122    112.968   5.640  9.82427E-01  1.01371E+00 -3.12791E-02
    9111.847    114.694   5.680  9.82624E-01  1.01347E+00 -3.08469E-02
    9113.585    116.431   5.720  9.82385E-01  1.01319E+00 -3.08073E-02
    9115.334    118.180   5.760  9.82217E-01  1.01285E+00 -3.06308E-02
    9117.096    119.942   5.800  9.82882E-01  1.01248E+00 -2.96019E-02
    9118.870    121.716   5.840  9.85148E-01  1.01206E+00 -2.69105E-02
    9120.656    123.502   5.880  9.89571E-01  1.01162E+00 -2.20492E-02
    9122.454    125.301   5.920  9.95977E-01  1.01112E+00 -1.51455E-02
    9124.265    127.111   5.960  1.00372E+00  1.01061E+00 -6.89006E-03
    9126.088    128.934   6.000  1.01202E+00  1.01001E+00  2.01061E-03
