# # comment:                                                     FEFF 9.9.1  
# # Source:
# # Structure
# # Reduced
# # space
# # abc:
# # angles:
# # sites:
# # POT  SCF 100  7.0000   0, screened core-hole, AFOLP (folp(0)= 1.150)
# # Abs   Z=29 Rmt= 1.241 Rnm= 1.363 K  shell
# # Pot 1 Z=29 Rmt= 1.241 Rnm= 1.363
# # Pot 2 Z=34 Rmt= 1.123 Rnm= 1.343
# # Pot 3 Z=17 Rmt= 1.398 Rnm= 1.582
# # Pot 4 Z= 8 Rmt= 0.959 Rnm= 1.075
# # Gam_ch=1.729E+00 H-L exch Vi= 0.000E+00 Vr= 0.000E+00
# # Mu=-5.319E+00eV kf=2.091E+00 Vint=-1.413E+01eV Rs_int= 1.735
# FMS rfms= 9.0000
# # PATH  Rmax=-1.000,  Keep_limit= 0.00, Heap_limit 0.00  Pwcrit= 2.50%
#  S02=0.950  Temp=   0.00  Debye_temp=   0.00  Global_sig2= 0.00000
#  Energy zero shift, vr, vi    0.00000E+00   0.00000E+00
#  Curved wave amplitude ratio filter   4.000%
#     file         sig2 tot  cw amp ratio   deg  nlegs   reff  inp sig2
#     0/   0 paths used
#  xsedge+ 50, used to normalize mu           2.4358E-04
#  -----------------------------------------------------------------------
#  omega    e    k    mu    mu0     chi     @#
    8983.287     -9.129  -1.000  4.85267E-02  6.01615E-02 -1.16348E-02
    8983.586     -8.830  -0.960  5.15738E-02  6.47105E-02 -1.31367E-02
    8983.872     -8.544  -0.920  5.49041E-02  6.97789E-02 -1.48748E-02
    8984.146     -8.270  -0.880  5.85532E-02  7.54442E-02 -1.68911E-02
    8984.409     -8.007  -0.840  6.25616E-02  8.17967E-02 -1.92351E-02
    8984.658     -7.757  -0.800  6.69755E-02  8.89408E-02 -2.19653E-02
    8984.896     -7.520  -0.760  7.18471E-02  9.69968E-02 -2.51497E-02
    8985.122     -7.294  -0.720  7.72341E-02  1.06101E-01 -2.88664E-02
    8985.335     -7.081  -0.680  8.31988E-02  1.16402E-01 -3.32030E-02
    8985.536     -6.880  -0.640  8.98056E-02  1.28059E-01 -3.82533E-02
    8985.725     -6.691  -0.600  9.71155E-02  1.41227E-01 -4.41120E-02
    8985.902     -6.514  -0.560  1.05178E-01  1.56041E-01 -5.08629E-02
    8986.067     -6.349  -0.520  1.14016E-01  1.72578E-01 -5.85619E-02
    8986.219     -6.197  -0.480  1.23612E-01  1.90825E-01 -6.72126E-02
    8986.359     -6.057  -0.440  1.33882E-01  2.10619E-01 -7.67378E-02
    8986.487     -5.929  -0.400  1.44659E-01  2.31615E-01 -8.69563E-02
    8986.603     -5.813  -0.360  1.55691E-01  2.53266E-01 -9.75751E-02
    8986.707     -5.709  -0.320  1.66651E-01  2.74862E-01 -1.08211E-01
    8986.798     -5.618  -0.280  1.77176E-01  2.95616E-01 -1.18440E-01
    8986.877     -5.539  -0.240  1.86910E-01  3.14770E-01 -1.27860E-01
    8986.944     -5.471  -0.200  1.95548E-01  3.31693E-01 -1.36145E-01
    8986.999     -5.417  -0.160  2.02856E-01  3.45923E-01 -1.43067E-01
    8987.042     -5.374  -0.120  2.08671E-01  3.57167E-01 -1.48495E-01
    8987.072     -5.343  -0.080  2.12895E-01  3.65263E-01 -1.52369E-01
    8987.097     -5.319   0.000  2.16332E-01  3.71765E-01 -1.55433E-01
    8987.152     -5.264   0.120  2.23964E-01  3.86427E-01 -1.62463E-01
    8987.194     -5.222   0.160  2.29907E-01  3.97810E-01 -1.67902E-01
    8987.249     -5.167   0.200  2.37572E-01  4.12334E-01 -1.74763E-01
    8987.316     -5.100   0.240  2.46918E-01  4.29774E-01 -1.82856E-01
    8987.396     -5.020   0.280  2.57923E-01  4.49789E-01 -1.91867E-01
    8987.487     -4.929   0.320  2.70460E-01  4.71812E-01 -2.01351E-01
    8987.591     -4.825   0.360  2.84476E-01  4.95209E-01 -2.10733E-01
    8987.706     -4.709   0.400  2.99887E-01  5.19245E-01 -2.19358E-01
    8987.834     -4.581   0.440  3.16750E-01  5.43286E-01 -2.26536E-01
    8987.975     -4.441   0.480  3.35174E-01  5.66818E-01 -2.31645E-01
    8988.127     -4.289   0.520  3.55357E-01  5.89528E-01 -2.34172E-01
    8988.292     -4.124   0.560  3.77468E-01  6.11226E-01 -2.33758E-01
    8988.468     -3.947   0.600  4.01620E-01  6.31872E-01 -2.30252E-01
    8988.657     -3.758   0.640  4.27924E-01  6.51509E-01 -2.23585E-01
    8988.859     -3.557   0.680  4.56483E-01  6.70246E-01 -2.13764E-01
    8989.072     -3.344   0.720  4.87410E-01  6.88168E-01 -2.00759E-01
    8989.298     -3.118   0.760  5.20567E-01  7.05377E-01 -1.84811E-01
    8989.535     -2.881   0.800  5.54790E-01  7.21946E-01 -1.67156E-01
    8989.785     -2.631   0.840  5.87393E-01  7.37973E-01 -1.50580E-01
    8990.047     -2.369   0.880  6.14760E-01  7.53477E-01 -1.38716E-01
    8990.322     -2.094   0.920  6.34336E-01  7.68544E-01 -1.34208E-01
    8990.608     -1.808   0.960  6.46045E-01  7.83168E-01 -1.37123E-01
    8990.907     -1.509   1.000  6.52340E-01  7.97367E-01 -1.45026E-01
    8991.218     -1.198   1.040  6.56447E-01  8.11130E-01 -1.54684E-01
    8991.541     -0.875   1.080  6.60914E-01  8.24503E-01 -1.63589E-01
    8991.876     -0.540   1.120  6.67381E-01  8.37440E-01 -1.70059E-01
    8992.224     -0.192   1.160  6.77128E-01  8.49930E-01 -1.72802E-01
    8992.583      0.167   1.200  6.91446E-01  8.61981E-01 -1.70535E-01
    8992.955      0.539   1.240  7.10285E-01  8.73558E-01 -1.63273E-01
    8993.339      0.923   1.280  7.30129E-01  8.84664E-01 -1.54535E-01
    8993.735      1.319   1.320  7.47373E-01  8.95259E-01 -1.47886E-01
    8994.144      1.728   1.360  7.63272E-01  9.05365E-01 -1.42093E-01
    8994.564      2.149   1.400  7.81706E-01  9.14943E-01 -1.33237E-01
    8994.997      2.581   1.440  8.08035E-01  9.23995E-01 -1.15960E-01
    8995.442      3.026   1.480  8.45890E-01  9.32522E-01 -8.66325E-02
    8995.899      3.484   1.520  8.95029E-01  9.40528E-01 -4.54996E-02
    8996.369      3.953   1.560  9.56163E-01  9.47995E-01  8.16748E-03
    8996.850      4.435   1.600  1.03052E+00  9.54929E-01  7.55869E-02
    8997.344      4.928   1.640  1.11504E+00  9.61356E-01  1.53680E-01
    8997.850      5.434   1.680  1.19989E+00  9.67263E-01  2.32625E-01
    8998.368      5.952   1.720  1.26912E+00  9.72678E-01  2.96442E-01
    8998.899      6.483   1.760  1.30840E+00  9.77607E-01  3.30796E-01
    8999.441      7.025   1.800  1.31766E+00  9.82041E-01  3.35619E-01
    8999.996      7.580   1.840  1.30671E+00  9.86053E-01  3.20658E-01
    9000.563      8.147   1.880  1.28495E+00  9.89609E-01  2.95344E-01
    9001.142      8.726   1.920  1.26254E+00  9.92764E-01  2.69775E-01
    9001.733      9.317   1.960  1.24641E+00  9.95508E-01  2.50899E-01
    9002.337      9.921   2.000  1.23388E+00  9.97894E-01  2.35989E-01
    9002.953     10.537   2.040  1.21832E+00  9.99934E-01  2.18381E-01
    9003.580     11.164   2.080  1.19948E+00  1.00164E+00  1.97836E-01
    9004.220     11.805   2.120  1.18190E+00  1.00304E+00  1.78856E-01
    9004.873     12.457   2.160  1.16786E+00  1.00416E+00  1.63703E-01
    9005.537     13.121   2.200  1.15730E+00  1.00501E+00  1.52282E-01
    9006.214     13.798   2.240  1.15221E+00  1.00565E+00  1.46560E-01
    9006.903     14.487   2.280  1.15321E+00  1.00607E+00  1.47139E-01
    9007.604     15.188   2.320  1.15498E+00  1.00630E+00  1.48673E-01
    9008.317     15.901   2.360  1.14890E+00  1.00635E+00  1.42546E-01
    9009.042     16.626   2.400  1.13019E+00  1.00625E+00  1.23938E-01
    9009.780     17.364   2.440  1.10136E+00  1.00603E+00  9.53309E-02
    9010.530     18.114   2.480  1.06754E+00  1.00568E+00  6.18572E-02
    9011.292     18.876   2.520  1.03576E+00  1.00523E+00  3.05240E-02
    9012.066     19.650   2.560  1.01139E+00  1.00471E+00  6.68794E-03
    9012.852     20.436   2.600  9.91466E-01  1.00410E+00 -1.26343E-02
    9013.651     21.235   2.640  9.74748E-01  1.00345E+00 -2.86981E-02
    9014.462     22.046   2.680  9.60756E-01  1.00277E+00 -4.20161E-02
    9015.285     22.869   2.720  9.49383E-01  1.00206E+00 -5.26771E-02
    9016.120     23.704   2.760  9.40478E-01  1.00132E+00 -6.08409E-02
    9016.967     24.551   2.800  9.33757E-01  1.00060E+00 -6.68377E-02
    9017.827     25.411   2.840  9.28801E-01  9.99872E-01 -7.10706E-02
    9018.698     26.282   2.880  9.24973E-01  9.99155E-01 -7.41822E-02
    9019.582     27.166   2.920  9.21652E-01  9.98469E-01 -7.68174E-02
    9020.478     28.063   2.960  9.18469E-01  9.97818E-01 -7.93491E-02
    9021.387     28.971   3.000  9.15166E-01  9.97205E-01 -8.20393E-02
    9022.307     29.891   3.040  9.11551E-01  9.96611E-01 -8.50596E-02
    9023.240     30.824   3.080  9.07705E-01  9.96102E-01 -8.83967E-02
    9024.185     31.769   3.120  9.03864E-01  9.95617E-01 -9.17532E-02
    9025.142     32.726   3.160  9.00343E-01  9.95200E-01 -9.48574E-02
    9026.111     33.695   3.200  8.97611E-01  9.94833E-01 -9.72219E-02
    9027.093     34.677   3.240  8.96129E-01  9.94538E-01 -9.84083E-02
    9028.086     35.670   3.280  8.96046E-01  9.94316E-01 -9.82694E-02
    9029.092     36.676   3.320  8.97373E-01  9.94146E-01 -9.67725E-02
    9030.110     37.694   3.360  9.00179E-01  9.94049E-01 -9.38703E-02
    9031.140     38.724   3.400  9.04520E-01  9.94027E-01 -8.95071E-02
    9032.183     39.767   3.440  9.10261E-01  9.94058E-01 -8.37971E-02
    9033.237     40.821   3.480  9.17402E-01  9.94163E-01 -7.67607E-02
    9034.304     41.888   3.520  9.25845E-01  9.94340E-01 -6.84952E-02
    9035.383     42.967   3.560  9.35355E-01  9.94570E-01 -5.92149E-02
    9036.474     44.058   3.600  9.45742E-01  9.94872E-01 -4.91306E-02
    9037.578     45.162   3.640  9.56781E-01  9.95224E-01 -3.84432E-02
    9038.693     46.277   3.680  9.68375E-01  9.95648E-01 -2.72724E-02
    9039.821     47.405   3.720  9.80441E-01  9.96140E-01 -1.56998E-02
    9040.961     48.545   3.760  9.92932E-01  9.96659E-01 -3.72714E-03
    9042.113     49.697   3.800  1.00581E+00  9.97245E-01  8.56123E-03
    9043.277     50.861   3.840  1.01879E+00  9.97895E-01  2.08968E-02
    9044.454     52.038   3.880  1.03145E+00  9.98565E-01  3.28882E-02
    9045.643     53.227   3.920  1.04330E+00  9.99276E-01  4.40292E-02
    9046.844     54.428   3.960  1.05379E+00  1.00005E+00  5.37401E-02
    9048.057     55.641   4.000  1.06240E+00  1.00083E+00  6.15699E-02
    9049.282     56.866   4.040  1.06898E+00  1.00163E+00  6.73569E-02
    9050.519     58.103   4.080  1.07370E+00  1.00248E+00  7.12179E-02
    9051.769     59.353   4.120  1.07676E+00  1.00334E+00  7.34216E-02
    9053.031     60.615   4.160  1.07857E+00  1.00420E+00  7.43650E-02
    9054.305     61.889   4.200  1.07941E+00  1.00510E+00  7.43132E-02
    9055.591     63.175   4.240  1.07938E+00  1.00597E+00  7.34176E-02
    9056.890     64.474   4.280  1.07866E+00  1.00686E+00  7.17986E-02
    9058.200     65.784   4.320  1.07733E+00  1.00775E+00  6.95782E-02
    9059.523     67.107   4.360  1.07548E+00  1.00864E+00  6.68337E-02
    9060.858     68.442   4.400  1.07311E+00  1.00950E+00  6.36074E-02
    9062.205     69.789   4.440  1.07036E+00  1.01035E+00  6.00075E-02
    9063.565     71.149   4.480  1.06724E+00  1.01117E+00  5.60719E-02
    9064.936     72.520   4.520  1.06375E+00  1.01197E+00  5.17739E-02
    9066.320     73.904   4.560  1.05975E+00  1.01275E+00  4.70095E-02
    9067.716     75.300   4.600  1.05513E+00  1.01350E+00  4.16260E-02
    9069.124     76.708   4.640  1.04964E+00  1.01419E+00  3.54457E-02
    9070.545     78.129   4.680  1.04319E+00  1.01487E+00  2.83241E-02
    9071.977     79.561   4.720  1.03569E+00  1.01548E+00  2.02170E-02
    9073.422     81.006   4.760  1.02736E+00  1.01606E+00  1.12937E-02
    9074.879     82.463   4.800  1.01856E+00  1.01658E+00  1.97870E-03
    9076.348     83.932   4.840  1.00989E+00  1.01706E+00 -7.16988E-03
    9077.829     85.413   4.880  1.00191E+00  1.01749E+00 -1.55795E-02
    9079.323     86.907   4.920  9.94968E-01  1.01787E+00 -2.29040E-02
    9080.829     88.413   4.960  9.88933E-01  1.01818E+00 -2.92504E-02
    9082.346     89.931   5.000  9.83323E-01  1.01845E+00 -3.51249E-02
    9083.877     91.461   5.040  9.77508E-01  1.01866E+00 -4.11544E-02
    9085.419     93.003   5.080  9.71135E-01  1.01881E+00 -4.76710E-02
    9086.973     94.557   5.120  9.64454E-01  1.01890E+00 -5.44449E-02
    9088.540     96.124   5.160  9.58155E-01  1.01892E+00 -6.07655E-02
    9090.119     97.703   5.200  9.53188E-01  1.01889E+00 -6.57054E-02
    9091.710     99.294   5.240  9.50284E-01  1.01882E+00 -6.85325E-02
    9093.313    100.897   5.280  9.49731E-01  1.01867E+00 -6.89386E-02
    9094.929    102.513   5.320  9.51401E-01  1.01848E+00 -6.70741E-02
    9096.556    104.140   5.360  9.54876E-01  1.01823E+00 -6.33574E-02
    9098.196    105.780   5.400  9.59624E-01  1.01792E+00 -5.82986E-02
    9099.848    107.432   5.440  9.65150E-01  1.01756E+00 -5.24148E-02
    9101.512    109.096   5.480  9.70982E-01  1.01716E+00 -4.61815E-02
    9103.189    110.773   5.520  9.76758E-01  1.01672E+00 -3.99631E-02
    9104.877    112.461   5.560  9.82341E-01  1.01624E+00 -3.38954E-02
    9106.578    114.162   5.600  9.87978E-01  1.01571E+00 -2.77327E-02
    9108.291    115.875   5.640  9.94268E-01  1.01515E+00 -2.08775E-02
    9110.016    117.600   5.680  1.00189E+00  1.01454E+00 -1.26568E-02
    9111.753    119.338   5.720  1.01116E+00  1.01393E+00 -2.76429E-03
    9113.503    121.087   5.760  1.02169E+00  1.01325E+00  8.43296E-03
    9115.265    122.849   5.800  1.03245E+00  1.01257E+00  1.98751E-02
    9117.039    124.623   5.840  1.04207E+00  1.01188E+00  3.01850E-02
    9118.825    126.409   5.880  1.04943E+00  1.01117E+00  3.82577E-02
    9120.623    128.207   5.920  1.05410E+00  1.01043E+00  4.36691E-02
    9122.434    130.018   5.960  1.05627E+00  1.00973E+00  4.65336E-02
    9124.256    131.840   6.000  1.05592E+00  1.00900E+00  4.69276E-02
