# # comment:                                                     FEFF 9.9.1  
# # Source:
# # Structure
# # Reduced
# # space
# # abc:
# # angles:
# # sites:
# # POT  SCF 100  7.0000   0, screened core-hole, AFOLP (folp(0)= 1.150)
# # Abs   Z=29 Rmt= 1.365 Rnm= 1.416 K  shell
# # Pot 1 Z= 3 Rmt= 1.241 Rnm= 1.301
# # Pot 2 Z=29 Rmt= 1.365 Rnm= 1.416
# # Pot 3 Z= 6 Rmt= 0.713 Rnm= 0.926
# # Pot 4 Z= 8 Rmt= 0.869 Rnm= 1.013
# # Gam_ch=1.729E+00 H-L exch Vi= 0.000E+00 Vr= 0.000E+00
# # Mu=-6.544E+00eV kf=2.570E+00 Vint=-1.837E+01eV Rs_int= 1.411
# FMS rfms= 9.0000
# # PATH  Rmax=-1.000,  Keep_limit= 0.00, Heap_limit 0.00  Pwcrit= 2.50%
#  S02=0.950  Temp=   0.00  Debye_temp=   0.00  Global_sig2= 0.00000
#  Energy zero shift, vr, vi    0.00000E+00   0.00000E+00
#  Curved wave amplitude ratio filter   4.000%
#     file         sig2 tot  cw amp ratio   deg  nlegs   reff  inp sig2
#     0/   0 paths used
#  xsedge+ 50, used to normalize mu           2.4795E-04
#  -----------------------------------------------------------------------
#  omega    e    k    mu    mu0     chi     @#
    8983.554    -10.354  -1.000  4.97014E-02  5.24898E-02 -2.78839E-03
    8983.852    -10.056  -0.960  5.29607E-02  5.62715E-02 -3.31087E-03
    8984.139     -9.769  -0.920  5.65461E-02  6.04742E-02 -3.92808E-03
    8984.413     -9.495  -0.880  6.05025E-02  6.51600E-02 -4.65756E-03
    8984.675     -9.233  -0.840  6.48815E-02  7.04017E-02 -5.52013E-03
    8984.925     -8.983  -0.800  6.97429E-02  7.62833E-02 -6.54043E-03
    8985.163     -8.745  -0.760  7.51544E-02  8.29017E-02 -7.74733E-03
    8985.388     -8.519  -0.720  8.11922E-02  9.03663E-02 -9.17415E-03
    8985.602     -8.306  -0.680  8.79392E-02  9.87977E-02 -1.08584E-02
    8985.803     -8.105  -0.640  9.54826E-02  1.08323E-01 -1.28407E-02
    8985.992     -7.916  -0.600  1.03906E-01  1.19068E-01 -1.51620E-02
    8986.169     -7.739  -0.560  1.13282E-01  1.31140E-01 -1.78585E-02
    8986.333     -7.574  -0.520  1.23649E-01  1.44603E-01 -2.09540E-02
    8986.486     -7.422  -0.480  1.34994E-01  1.59442E-01 -2.44482E-02
    8986.626     -7.282  -0.440  1.47224E-01  1.75528E-01 -2.83043E-02
    8986.754     -7.154  -0.400  1.60141E-01  1.92579E-01 -3.24379E-02
    8986.870     -7.038  -0.360  1.73437E-01  2.10152E-01 -3.67157E-02
    8986.973     -6.934  -0.320  1.86707E-01  2.27673E-01 -4.09664E-02
    8987.065     -6.843  -0.280  1.99498E-01  2.44505E-01 -4.50068E-02
    8987.144     -6.764  -0.240  2.11362E-01  2.60034E-01 -4.86720E-02
    8987.211     -6.697  -0.200  2.21912E-01  2.73751E-01 -5.18391E-02
    8987.266     -6.642  -0.160  2.30847E-01  2.85282E-01 -5.44353E-02
    8987.309     -6.599  -0.120  2.37961E-01  2.94393E-01 -5.64319E-02
    8987.339     -6.569  -0.080  2.43124E-01  3.00954E-01 -5.78303E-02
    8987.364     -6.544   0.000  2.47310E-01  3.06224E-01 -5.89142E-02
    8987.418     -6.489   0.120  2.56593E-01  3.18100E-01 -6.15065E-02
    8987.461     -6.447   0.160  2.63886E-01  3.27326E-01 -6.34403E-02
    8987.516     -6.392   0.200  2.73270E-01  3.39066E-01 -6.57967E-02
    8987.583     -6.325   0.240  2.84770E-01  3.53210E-01 -6.84402E-02
    8987.662     -6.246   0.280  2.98224E-01  3.69399E-01 -7.11744E-02
    8987.754     -6.154   0.320  3.13481E-01  3.87221E-01 -7.37398E-02
    8987.857     -6.050   0.360  3.30320E-01  4.06143E-01 -7.58232E-02
    8987.973     -5.935   0.400  3.48445E-01  4.25597E-01 -7.71529E-02
    8988.101     -5.807   0.440  3.67495E-01  4.45051E-01 -7.75563E-02
    8988.241     -5.666   0.480  3.87029E-01  4.64126E-01 -7.70974E-02
    8988.394     -5.514   0.520  4.06367E-01  4.82552E-01 -7.61844E-02
    8988.558     -5.349   0.560  4.24732E-01  5.00195E-01 -7.54628E-02
    8988.735     -5.173   0.600  4.41549E-01  5.17089E-01 -7.55397E-02
    8988.924     -4.984   0.640  4.56708E-01  5.33237E-01 -7.65285E-02
    8989.125     -4.782   0.680  4.70992E-01  5.48779E-01 -7.77867E-02
    8989.339     -4.569   0.720  4.85530E-01  5.63808E-01 -7.82780E-02
    8989.564     -4.344   0.760  5.00814E-01  5.78398E-01 -7.75842E-02
    8989.802     -4.106   0.800  5.15895E-01  5.92695E-01 -7.67999E-02
    8990.052     -3.856   0.840  5.28490E-01  6.06751E-01 -7.82610E-02
    8990.314     -3.594   0.880  5.36656E-01  6.20643E-01 -8.39866E-02
    8990.588     -3.319   0.920  5.40517E-01  6.34419E-01 -9.39018E-02
    8990.875     -3.033   0.960  5.42830E-01  6.48133E-01 -1.05303E-01
    8991.174     -2.734   1.000  5.47125E-01  6.61805E-01 -1.14680E-01
    8991.484     -2.423   1.040  5.55839E-01  6.75473E-01 -1.19634E-01
    8991.808     -2.100   1.080  5.69856E-01  6.89121E-01 -1.19265E-01
    8992.143     -1.765   1.120  5.89137E-01  7.02787E-01 -1.13650E-01
    8992.490     -1.418   1.160  6.14238E-01  7.16445E-01 -1.02207E-01
    8992.850     -1.058   1.200  6.47708E-01  7.30104E-01 -8.23956E-02
    8993.222     -0.686   1.240  6.93347E-01  7.43727E-01 -5.03808E-02
    8993.606     -0.302   1.280  7.51718E-01  7.57337E-01 -5.61900E-03
    8994.002      0.094   1.320  8.16064E-01  7.70868E-01  4.51961E-02
    8994.410      0.503   1.360  8.79341E-01  7.84337E-01  9.50039E-02
    8994.831      0.923   1.400  9.42713E-01  7.97718E-01  1.44996E-01
    8995.264      1.356   1.440  1.00861E+00  8.10961E-01  1.97651E-01
    8995.709      1.801   1.480  1.07724E+00  8.24037E-01  2.53200E-01
    8996.166      2.258   1.520  1.15005E+00  8.36954E-01  3.13093E-01
    8996.636      2.728   1.560  1.21846E+00  8.49641E-01  3.68822E-01
    8997.117      3.209   1.600  1.26381E+00  8.62086E-01  4.01724E-01
    8997.611      3.703   1.640  1.27467E+00  8.74276E-01  4.00397E-01
    8998.117      4.209   1.680  1.25469E+00  8.86159E-01  3.68528E-01
    8998.635      4.727   1.720  1.22256E+00  8.97722E-01  3.24842E-01
    8999.165      5.258   1.760  1.20216E+00  9.08912E-01  2.93246E-01
    8999.708      5.800   1.800  1.20461E+00  9.19741E-01  2.84870E-01
    9000.263      6.355   1.840  1.21702E+00  9.30155E-01  2.86866E-01
    9000.830      6.922   1.880  1.21849E+00  9.40144E-01  2.78345E-01
    9001.409      7.501   1.920  1.19812E+00  9.49701E-01  2.48415E-01
    9002.000      8.092   1.960  1.15356E+00  9.58777E-01  1.94783E-01
    9002.603      8.696   2.000  1.09747E+00  9.67385E-01  1.30088E-01
    9003.219      9.311   2.040  1.05743E+00  9.75519E-01  8.19112E-02
    9003.847      9.939   2.080  1.05257E+00  9.83134E-01  6.94331E-02
    9004.487     10.579   2.120  1.07562E+00  9.90249E-01  8.53745E-02
    9005.139     11.232   2.160  1.10305E+00  9.96840E-01  1.06212E-01
    9005.804     11.896   2.200  1.12015E+00  1.00293E+00  1.17224E-01
    9006.481     12.573   2.240  1.12833E+00  1.00851E+00  1.19825E-01
    9007.169     13.262   2.280  1.12627E+00  1.01357E+00  1.12700E-01
    9007.870     13.963   2.320  1.10720E+00  1.01811E+00  8.90899E-02
    9008.584     14.676   2.360  1.07174E+00  1.02218E+00  4.95545E-02
    9009.309     15.401   2.400  1.02689E+00  1.02576E+00  1.13198E-03
    9010.047     16.139   2.440  9.80066E-01  1.02886E+00 -4.87934E-02
    9010.796     16.889   2.480  9.38109E-01  1.03150E+00 -9.33918E-02
    9011.558     17.651   2.520  9.04456E-01  1.03367E+00 -1.29219E-01
    9012.333     18.425   2.560  8.77555E-01  1.03545E+00 -1.57895E-01
    9013.119     19.211   2.600  8.55013E-01  1.03680E+00 -1.81784E-01
    9013.918     20.010   2.640  8.36625E-01  1.03776E+00 -2.01140E-01
    9014.728     20.821   2.680  8.23366E-01  1.03837E+00 -2.15001E-01
    9015.551     21.644   2.720  8.17638E-01  1.03863E+00 -2.20994E-01
    9016.386     22.479   2.760  8.23471E-01  1.03855E+00 -2.15080E-01
    9017.234     23.326   2.800  8.44452E-01  1.03818E+00 -1.93723E-01
    9018.093     24.186   2.840  8.77617E-01  1.03754E+00 -1.59920E-01
    9018.965     25.057   2.880  9.08921E-01  1.03663E+00 -1.27706E-01
    9019.849     25.941   2.920  9.24910E-01  1.03548E+00 -1.10566E-01
    9020.745     26.837   2.960  9.28325E-01  1.03412E+00 -1.05792E-01
    9021.653     27.746   3.000  9.31558E-01  1.03258E+00 -1.01023E-01
    9022.574     28.666   3.040  9.38323E-01  1.03086E+00 -9.25362E-02
    9023.507     29.599   3.080  9.47644E-01  1.02900E+00 -8.13579E-02
    9024.451     30.544   3.120  9.58404E-01  1.02702E+00 -6.86156E-02
    9025.409     31.501   3.160  9.70053E-01  1.02492E+00 -5.48674E-02
    9026.378     32.470   3.200  9.81942E-01  1.02274E+00 -4.07960E-02
    9027.359     33.451   3.240  9.93595E-01  1.02050E+00 -2.69058E-02
    9028.353     34.445   3.280  1.00477E+00  1.01820E+00 -1.34246E-02
    9029.359     35.451   3.320  1.01559E+00  1.01587E+00 -2.85182E-04
    9030.377     36.469   3.360  1.02636E+00  1.01352E+00  1.28380E-02
    9031.407     37.499   3.400  1.03742E+00  1.01116E+00  2.62535E-02
    9032.449     38.542   3.440  1.04877E+00  1.00883E+00  3.99386E-02
    9033.504     39.596   3.480  1.06031E+00  1.00651E+00  5.37955E-02
    9034.571     40.663   3.520  1.07176E+00  1.00423E+00  6.75322E-02
    9035.650     41.742   3.560  1.08240E+00  1.00199E+00  8.04178E-02
    9036.741     42.833   3.600  1.09130E+00  9.99814E-01  9.14851E-02
    9037.844     43.937   3.640  1.09739E+00  9.97695E-01  9.96990E-02
    9038.960     45.052   3.680  1.09996E+00  9.95674E-01  1.04283E-01
    9040.088     46.180   3.720  1.09873E+00  9.93714E-01  1.05017E-01
    9041.228     47.320   3.760  1.09431E+00  9.91861E-01  1.02449E-01
    9042.380     48.472   3.800  1.08747E+00  9.90118E-01  9.73480E-02
    9043.544     49.636   3.840  1.07900E+00  9.88465E-01  9.05313E-02
    9044.721     50.813   3.880  1.06972E+00  9.86903E-01  8.28184E-02
    9045.909     52.002   3.920  1.06032E+00  9.85479E-01  7.48395E-02
    9047.110     53.202   3.960  1.05107E+00  9.84152E-01  6.69214E-02
    9048.323     54.416   4.000  1.04198E+00  9.82944E-01  5.90314E-02
    9049.549     55.641   4.040  1.03280E+00  9.81878E-01  5.09206E-02
    9050.786     56.878   4.080  1.02317E+00  9.80912E-01  4.22575E-02
    9052.036     58.128   4.120  1.01296E+00  9.80088E-01  3.28747E-02
    9053.298     59.390   4.160  1.00220E+00  9.79364E-01  2.28335E-02
    9054.572     60.664   4.200  9.91115E-01  9.78783E-01  1.23316E-02
    9055.858     61.950   4.240  9.79937E-01  9.78322E-01  1.61455E-03
    9057.156     63.249   4.280  9.68949E-01  9.77959E-01 -9.01065E-03
    9058.467     64.559   4.320  9.58493E-01  9.77735E-01 -1.92427E-02
    9059.790     65.882   4.360  9.48767E-01  9.77608E-01 -2.88409E-02
    9061.125     67.217   4.400  9.40027E-01  9.77597E-01 -3.75704E-02
    9062.472     68.564   4.440  9.32515E-01  9.77701E-01 -4.51863E-02
    9063.831     69.924   4.480  9.26487E-01  9.77918E-01 -5.14312E-02
    9065.203     71.295   4.520  9.22186E-01  9.78224E-01 -5.60371E-02
    9066.587     72.679   4.560  9.19810E-01  9.78614E-01 -5.88038E-02
    9067.983     74.075   4.600  9.19428E-01  9.79088E-01 -5.96600E-02
    9069.391     75.483   4.640  9.20992E-01  9.79666E-01 -5.86743E-02
    9070.811     76.904   4.680  9.24210E-01  9.80302E-01 -5.60915E-02
    9072.244     78.336   4.720  9.28674E-01  9.81036E-01 -5.23625E-02
    9073.689     79.781   4.760  9.33879E-01  9.81822E-01 -4.79431E-02
    9075.146     81.238   4.800  9.39474E-01  9.82655E-01 -4.31812E-02
    9076.615     82.707   4.840  9.45311E-01  9.83553E-01 -3.82422E-02
    9078.096     84.188   4.880  9.51364E-01  9.84471E-01 -3.31068E-02
    9079.590     85.682   4.920  9.57755E-01  9.85447E-01 -2.76924E-02
    9081.095     87.187   4.960  9.64480E-01  9.86438E-01 -2.19581E-02
    9082.613     88.705   5.000  9.71563E-01  9.87459E-01 -1.58952E-02
    9084.143     90.235   5.040  9.78905E-01  9.88484E-01 -9.57864E-03
    9085.686     91.778   5.080  9.86333E-01  9.89512E-01 -3.17873E-03
    9087.240     93.332   5.120  9.93541E-01  9.90539E-01  3.00196E-03
    9088.807     94.899   5.160  1.00013E+00  9.91562E-01  8.56652E-03
    9090.386     96.478   5.200  1.00566E+00  9.92579E-01  1.30829E-02
    9091.977     98.069   5.240  1.00974E+00  9.93561E-01  1.61767E-02
    9093.580     99.672   5.280  1.01213E+00  9.94505E-01  1.76215E-02
    9095.195    101.287   5.320  1.01282E+00  9.95409E-01  1.74111E-02
    9096.823    102.915   5.360  1.01208E+00  9.96271E-01  1.58112E-02
    9098.463    104.555   5.400  1.01044E+00  9.97087E-01  1.33525E-02
    9100.115    106.207   5.440  1.00863E+00  9.97833E-01  1.07942E-02
    9101.779    107.871   5.480  1.00749E+00  9.98529E-01  8.95656E-03
    9103.455    109.548   5.520  1.00758E+00  9.99152E-01  8.42851E-03
    9105.144    111.236   5.560  1.00900E+00  9.99720E-01  9.27576E-03
    9106.845    112.937   5.600  1.01122E+00  1.00019E+00  1.10291E-02
    9108.558    114.650   5.640  1.01355E+00  1.00060E+00  1.29576E-02
    9110.283    116.375   5.680  1.01534E+00  1.00090E+00  1.44395E-02
    9112.020    118.112   5.720  1.01636E+00  1.00115E+00  1.52093E-02
    9113.770    119.862   5.760  1.01666E+00  1.00129E+00  1.53660E-02
    9115.531    121.624   5.800  1.01658E+00  1.00135E+00  1.52261E-02
    9117.305    123.398   5.840  1.01648E+00  1.00133E+00  1.51495E-02
    9119.091    125.184   5.880  1.01667E+00  1.00123E+00  1.54387E-02
    9120.890    126.982   5.920  1.01736E+00  1.00104E+00  1.63183E-02
    9122.700    128.793   5.960  1.01857E+00  1.00074E+00  1.78292E-02
    9124.523    130.615   6.000  1.02002E+00  1.00032E+00  1.97013E-02
