# # comment:                                                     FEFF 9.9.1  
# # Source:
# # Structure
# # Reduced
# # space
# # abc:
# # angles:112.230056
# # sites:
# # POT  SCF 100  7.0000   0, screened core-hole, AFOLP (folp(0)= 1.150)
# # Abs   Z=29 Rmt= 1.090 Rnm= 1.301 K  shell
# # Pot 1 Z=56 Rmt= 1.933 Rnm= 2.030
# # Pot 2 Z=92 Rmt= 1.391 Rnm= 1.578
# # Pot 3 Z=29 Rmt= 1.094 Rnm= 1.312
# # Pot 4 Z= 8 Rmt= 0.984 Rnm= 1.118
# # Gam_ch=1.729E+00 H-L exch Vi= 0.000E+00 Vr= 0.000E+00
# # Mu=-8.659E+00eV kf=2.009E+00 Vint=-1.504E+01eV Rs_int= 1.805
# FMS rfms= 9.0000
# # PATH  Rmax=-1.000,  Keep_limit= 0.00, Heap_limit 0.00  Pwcrit= 2.50%
#  S02=0.950  Temp=   0.00  Debye_temp=   0.00  Global_sig2= 0.00000
#  Energy zero shift, vr, vi    0.00000E+00   0.00000E+00
#  Curved wave amplitude ratio filter   4.000%
#     file         sig2 tot  cw amp ratio   deg  nlegs   reff  inp sig2
#     0/   0 paths used
#  xsedge+ 50, used to normalize mu           2.4533E-04
#  -----------------------------------------------------------------------
#  omega    e    k    mu    mu0     chi     @#
    8984.071    -12.469  -1.000  3.77443E-02  5.05247E-02 -1.27804E-02
    8984.369    -12.170  -0.960  3.97296E-02  5.39852E-02 -1.42555E-02
    8984.656    -11.884  -0.920  4.18518E-02  5.78087E-02 -1.59568E-02
    8984.930    -11.609  -0.880  4.41209E-02  6.20465E-02 -1.79255E-02
    8985.192    -11.347  -0.840  4.65471E-02  6.67579E-02 -2.02108E-02
    8985.442    -11.097  -0.800  4.91407E-02  7.20117E-02 -2.28710E-02
    8985.680    -10.859  -0.760  5.19118E-02  7.78861E-02 -2.59743E-02
    8985.905    -10.634  -0.720  5.48698E-02  8.44694E-02 -2.95996E-02
    8986.119    -10.421  -0.680  5.80228E-02  9.18582E-02 -3.38354E-02
    8986.320    -10.219  -0.640  6.13768E-02  1.00154E-01 -3.87774E-02
    8986.509    -10.030  -0.600  6.49338E-02  1.09456E-01 -4.45226E-02
    8986.686     -9.854  -0.560  6.86907E-02  1.19849E-01 -5.11579E-02
    8986.850     -9.689  -0.520  7.26361E-02  1.31379E-01 -5.87426E-02
    8987.003     -9.537  -0.480  7.67476E-02  1.44032E-01 -6.72842E-02
    8987.143     -9.396  -0.440  8.09882E-02  1.57698E-01 -7.67098E-02
    8987.271     -9.268  -0.400  8.53037E-02  1.72146E-01 -8.68418E-02
    8987.387     -9.153  -0.360  8.96220E-02  1.87012E-01 -9.73900E-02
    8987.490     -9.049  -0.320  9.38549E-02  2.01827E-01 -1.07972E-01
    8987.582     -8.957  -0.280  9.79039E-02  2.16066E-01 -1.18162E-01
    8987.661     -8.878  -0.240  1.01668E-01  2.29223E-01 -1.27555E-01
    8987.728     -8.811  -0.200  1.05049E-01  2.40868E-01 -1.35819E-01
    8987.783     -8.756  -0.160  1.07959E-01  2.50682E-01 -1.42723E-01
    8987.826     -8.714  -0.120  1.10323E-01  2.58454E-01 -1.48131E-01
    8987.856     -8.683  -0.080  1.12080E-01  2.64063E-01 -1.51983E-01
    8987.881     -8.659   0.000  1.13569E-01  2.68576E-01 -1.55006E-01
    8987.935     -8.604   0.120  1.16950E-01  2.78779E-01 -1.61829E-01
    8987.978     -8.561   0.160  1.19568E-01  2.86734E-01 -1.67166E-01
    8988.033     -8.506   0.200  1.22980E-01  2.96912E-01 -1.73932E-01
    8988.100     -8.439   0.240  1.27278E-01  3.09229E-01 -1.81951E-01
    8988.179     -8.360   0.280  1.32561E-01  3.23485E-01 -1.90924E-01
    8988.271     -8.269   0.320  1.38960E-01  3.39359E-01 -2.00399E-01
    8988.374     -8.165   0.360  1.46658E-01  3.56471E-01 -2.09813E-01
    8988.490     -8.049   0.400  1.55946E-01  3.74434E-01 -2.18487E-01
    8988.618     -7.921   0.440  1.67191E-01  3.92830E-01 -2.25639E-01
    8988.758     -7.781   0.480  1.80939E-01  4.11392E-01 -2.30453E-01
    8988.911     -7.629   0.520  1.97950E-01  4.29913E-01 -2.31963E-01
    8989.075     -7.464   0.560  2.19313E-01  4.48289E-01 -2.28977E-01
    8989.252     -7.287   0.600  2.46520E-01  4.66533E-01 -2.20013E-01
    8989.441     -7.098   0.640  2.81425E-01  4.84664E-01 -2.03239E-01
    8989.642     -6.897   0.680  3.25821E-01  5.02708E-01 -1.76886E-01
    8989.856     -6.684   0.720  3.79951E-01  5.20759E-01 -1.40808E-01
    8990.081     -6.458   0.760  4.38978E-01  5.38849E-01 -9.98708E-02
    8990.319     -6.220   0.800  4.90333E-01  5.56998E-01 -6.66652E-02
    8990.569     -5.970   0.840  5.20247E-01  5.75280E-01 -5.50322E-02
    8990.831     -5.708   0.880  5.29357E-01  5.93693E-01 -6.43359E-02
    8991.105     -5.434   0.920  5.35072E-01  6.12245E-01 -7.71735E-02
    8991.392     -5.148   0.960  5.54451E-01  6.30894E-01 -7.64431E-02
    8991.691     -4.849   1.000  5.89536E-01  6.49649E-01 -6.01128E-02
    8992.001     -4.538   1.040  6.25149E-01  6.68490E-01 -4.33410E-02
    8992.325     -4.215   1.080  6.43114E-01  6.87352E-01 -4.42383E-02
    8992.660     -3.880   1.120  6.41132E-01  7.06203E-01 -6.50707E-02
    8993.007     -3.532   1.160  6.26779E-01  7.24986E-01 -9.82074E-02
    8993.367     -3.172   1.200  6.04775E-01  7.43665E-01 -1.38889E-01
    8993.739     -2.801   1.240  5.81252E-01  7.62155E-01 -1.80903E-01
    8994.123     -2.417   1.280  5.63270E-01  7.80434E-01 -2.17164E-01
    8994.519     -2.020   1.320  5.50662E-01  7.98417E-01 -2.47755E-01
    8994.928     -1.612   1.360  5.39651E-01  8.16059E-01 -2.76408E-01
    8995.348     -1.191   1.400  5.34851E-01  8.33295E-01 -2.98444E-01
    8995.781     -0.758   1.440  5.47872E-01  8.50081E-01 -3.02208E-01
    8996.226     -0.313   1.480  5.90668E-01  8.66352E-01 -2.75684E-01
    8996.683      0.144   1.520  6.65904E-01  8.82089E-01 -2.16185E-01
    8997.153      0.613   1.560  7.49139E-01  8.97232E-01 -1.48093E-01
    8997.634      1.095   1.600  8.11773E-01  9.11762E-01 -9.99893E-02
    8998.128      1.589   1.640  8.56584E-01  9.25605E-01 -6.90202E-02
    8998.634      2.095   1.680  8.68281E-01  9.38765E-01 -7.04839E-02
    8999.152      2.613   1.720  8.37224E-01  9.51214E-01 -1.13991E-01
    8999.682      3.143   1.760  7.94067E-01  9.62924E-01 -1.68857E-01
    9000.225      3.686   1.800  7.60891E-01  9.73910E-01 -2.13019E-01
    9000.780      4.240   1.840  7.40138E-01  9.84128E-01 -2.43990E-01
    9001.347      4.807   1.880  7.31967E-01  9.93598E-01 -2.61631E-01
    9001.926      5.386   1.920  7.40717E-01  1.00234E+00 -2.61627E-01
    9002.517      5.978   1.960  7.70167E-01  1.01033E+00 -2.40160E-01
    9003.120      6.581   2.000  8.21094E-01  1.01760E+00 -1.96501E-01
    9003.736      7.197   2.040  8.89959E-01  1.02414E+00 -1.34177E-01
    9004.364      7.825   2.080  9.65145E-01  1.03000E+00 -6.48562E-02
    9005.004      8.465   2.120  1.03099E+00  1.03518E+00 -4.19039E-03
    9005.656      9.117   2.160  1.08935E+00  1.03970E+00  4.96539E-02
    9006.321      9.782   2.200  1.15815E+00  1.04360E+00  1.14548E-01
    9006.998     10.458   2.240  1.24347E+00  1.04692E+00  1.96549E-01
    9007.686     11.147   2.280  1.33163E+00  1.04966E+00  2.81970E-01
    9008.387     11.848   2.320  1.39340E+00  1.05187E+00  3.41528E-01
    9009.101     12.561   2.360  1.40632E+00  1.05358E+00  3.52739E-01
    9009.826     13.287   2.400  1.37251E+00  1.05481E+00  3.17701E-01
    9010.564     14.024   2.440  1.31381E+00  1.05558E+00  2.58226E-01
    9011.313     14.774   2.480  1.26436E+00  1.05594E+00  2.08419E-01
    9012.075     15.536   2.520  1.22670E+00  1.05593E+00  1.70769E-01
    9012.850     16.310   2.560  1.19924E+00  1.05557E+00  1.43667E-01
    9013.636     17.097   2.600  1.17982E+00  1.05487E+00  1.24948E-01
    9014.435     17.895   2.640  1.16610E+00  1.05388E+00  1.12230E-01
    9015.245     18.706   2.680  1.15551E+00  1.05262E+00  1.02884E-01
    9016.068     19.529   2.720  1.14581E+00  1.05113E+00  9.46784E-02
    9016.903     20.364   2.760  1.13509E+00  1.04943E+00  8.56640E-02
    9017.751     21.211   2.800  1.12220E+00  1.04755E+00  7.46539E-02
    9018.610     22.071   2.840  1.10664E+00  1.04548E+00  6.11615E-02
    9019.482     22.943   2.880  1.08863E+00  1.04328E+00  4.53494E-02
    9020.366     23.827   2.920  1.06905E+00  1.04096E+00  2.80905E-02
    9021.262     24.723   2.960  1.04975E+00  1.03855E+00  1.12047E-02
    9022.170     25.631   3.000  1.03267E+00  1.03605E+00 -3.37873E-03
    9023.091     26.552   3.040  1.01906E+00  1.03348E+00 -1.44172E-02
    9024.024     27.484   3.080  1.00961E+00  1.03089E+00 -2.12813E-02
    9024.968     28.429   3.120  1.00416E+00  1.02824E+00 -2.40811E-02
    9025.926     29.386   3.160  1.00229E+00  1.02558E+00 -2.32861E-02
    9026.895     30.355   3.200  1.00341E+00  1.02293E+00 -1.95247E-02
    9027.876     31.337   3.240  1.00644E+00  1.02028E+00 -1.38379E-02
    9028.870     32.331   3.280  1.00996E+00  1.01765E+00 -7.69091E-03
    9029.876     33.336   3.320  1.01234E+00  1.01506E+00 -2.72245E-03
    9030.894     34.354   3.360  1.01209E+00  1.01251E+00 -4.18134E-04
    9031.924     35.385   3.400  1.00837E+00  1.01003E+00 -1.65442E-03
    9032.966     36.427   3.440  1.00132E+00  1.00760E+00 -6.28336E-03
    9034.021     37.482   3.480  9.91980E-01  1.00522E+00 -1.32367E-02
    9035.088     38.548   3.520  9.81825E-01  1.00293E+00 -2.11058E-02
    9036.167     39.627   3.560  9.71884E-01  1.00071E+00 -2.88240E-02
    9037.258     40.719   3.600  9.62745E-01  9.98588E-01 -3.58424E-02
    9038.361     41.822   3.640  9.54568E-01  9.96562E-01 -4.19943E-02
    9039.477     42.938   3.680  9.47177E-01  9.94620E-01 -4.74430E-02
    9040.605     44.065   3.720  9.40325E-01  9.92779E-01 -5.24542E-02
    9041.745     45.205   3.760  9.33923E-01  9.91059E-01 -5.71357E-02
    9042.897     46.357   3.800  9.28226E-01  9.89434E-01 -6.12078E-02
    9044.061     47.522   3.840  9.23700E-01  9.87896E-01 -6.41963E-02
    9045.238     48.698   3.880  9.20795E-01  9.86497E-01 -6.57019E-02
    9046.426     49.887   3.920  9.19450E-01  9.85194E-01 -6.57440E-02
    9047.627     51.088   3.960  9.19151E-01  9.84007E-01 -6.48564E-02
    9048.840     52.301   4.000  9.18988E-01  9.82937E-01 -6.39491E-02
    9050.066     53.526   4.040  9.18211E-01  9.81963E-01 -6.37512E-02
    9051.303     54.764   4.080  9.16776E-01  9.81125E-01 -6.43499E-02
    9052.553     56.013   4.120  9.15376E-01  9.80384E-01 -6.50084E-02
    9053.815     57.275   4.160  9.15300E-01  9.79737E-01 -6.44369E-02
    9055.089     58.549   4.200  9.17877E-01  9.79226E-01 -6.13488E-02
    9056.375     59.836   4.240  9.23739E-01  9.78810E-01 -5.50709E-02
    9057.673     61.134   4.280  9.32607E-01  9.78507E-01 -4.58995E-02
    9058.984     62.445   4.320  9.43425E-01  9.78294E-01 -3.48699E-02
    9060.307     63.767   4.360  9.54874E-01  9.78193E-01 -2.33190E-02
    9061.642     65.102   4.400  9.65816E-01  9.78180E-01 -1.23641E-02
    9062.989     66.450   4.440  9.75800E-01  9.78253E-01 -2.45338E-03
    9064.348     67.809   4.480  9.85109E-01  9.78435E-01  6.67412E-03
    9065.720     69.181   4.520  9.94222E-01  9.78703E-01  1.55186E-02
    9067.104     70.564   4.560  1.00349E+00  9.79055E-01  2.44305E-02
    9068.500     71.960   4.600  1.01270E+00  9.79508E-01  3.31967E-02
    9069.908     73.369   4.640  1.02093E+00  9.79995E-01  4.09361E-02
    9071.328     74.789   4.680  1.02706E+00  9.80582E-01  4.64783E-02
    9072.761     76.222   4.720  1.03026E+00  9.81244E-01  4.90186E-02
    9074.206     77.666   4.760  1.03049E+00  9.81956E-01  4.85384E-02
    9075.663     79.123   4.800  1.02851E+00  9.82716E-01  4.57924E-02
    9077.132     80.592   4.840  1.02547E+00  9.83544E-01  4.19219E-02
    9078.613     82.074   4.880  1.02257E+00  9.84417E-01  3.81496E-02
    9080.107     83.567   4.920  1.02076E+00  9.85331E-01  3.54331E-02
    9081.612     85.073   4.960  1.02039E+00  9.86285E-01  3.41066E-02
    9083.130     86.591   5.000  1.02112E+00  9.87277E-01  3.38430E-02
    9084.660     88.121   5.040  1.02232E+00  9.88303E-01  3.40134E-02
    9086.203     89.663   5.080  1.02330E+00  9.89337E-01  3.39616E-02
    9087.757     91.218   5.120  1.02351E+00  9.90378E-01  3.31362E-02
    9089.324     92.784   5.160  1.02253E+00  9.91446E-01  3.10809E-02
    9090.903     94.363   5.200  1.02009E+00  9.92518E-01  2.75745E-02
    9092.494     95.954   5.240  1.01654E+00  9.93590E-01  2.29482E-02
    9094.097     97.557   5.280  1.01287E+00  9.94660E-01  1.82057E-02
    9095.712     99.173   5.320  1.01042E+00  9.95725E-01  1.46956E-02
    9097.340    100.801   5.360  1.01019E+00  9.96760E-01  1.34344E-02
    9098.980    102.440   5.400  1.01241E+00  9.97786E-01  1.46273E-02
    9100.632    104.092   5.440  1.01638E+00  9.98779E-01  1.76041E-02
    9102.296    105.757   5.480  1.02085E+00  9.99757E-01  2.10963E-02
    9103.972    107.433   5.520  1.02431E+00  1.00067E+00  2.36387E-02
    9105.661    109.122   5.560  1.02560E+00  1.00157E+00  2.40305E-02
    9107.362    110.822   5.600  1.02406E+00  1.00243E+00  2.16292E-02
    9109.075    112.535   5.640  1.01968E+00  1.00322E+00  1.64552E-02
    9110.800    114.260   5.680  1.01314E+00  1.00399E+00  9.14660E-03
    9112.537    115.998   5.720  1.00561E+00  1.00467E+00  9.42305E-04
    9114.287    117.747   5.760  9.98685E-01  1.00532E+00 -6.63120E-03
    9116.048    119.509   5.800  9.93764E-01  1.00589E+00 -1.21299E-02
    9117.822    121.283   5.840  9.91583E-01  1.00642E+00 -1.48355E-02
    9119.608    123.069   5.880  9.91895E-01  1.00684E+00 -1.49476E-02
    9121.407    124.867   5.920  9.93832E-01  1.00723E+00 -1.33993E-02
    9123.217    126.678   5.960  9.95989E-01  1.00750E+00 -1.15118E-02
    9125.040    128.501   6.000  9.97006E-01  1.00767E+00 -1.06661E-02
