# # comment:                                                     FEFF 9.9.1  
# # Source:
# # Structure
# # Reduced
# # space
# # abc:
# # angles:
# # sites:
# # POT  SCF 100  7.0000   0, screened core-hole, AFOLP (folp(0)= 1.150)
# # Abs   Z=29 Rmt= 1.124 Rnm= 1.263 K  shell
# # Pot 1 Z=11 Rmt= 1.488 Rnm= 1.546
# # Pot 2 Z=29 Rmt= 1.110 Rnm= 1.257
# # Pot 3 Z= 8 Rmt= 1.104 Rnm= 1.156
# # Gam_ch=1.729E+00 H-L exch Vi= 0.000E+00 Vr= 0.000E+00
# # Mu=-8.526E+00eV kf=1.857E+00 Vint=-1.533E+01eV Rs_int= 1.952
# FMS rfms= 9.0000
# # PATH  Rmax=-1.000,  Keep_limit= 0.00, Heap_limit 0.00  Pwcrit= 2.50%
#  S02=0.950  Temp=   0.00  Debye_temp=   0.00  Global_sig2= 0.00000
#  Energy zero shift, vr, vi    0.00000E+00   0.00000E+00
#  Curved wave amplitude ratio filter   4.000%
#     file         sig2 tot  cw amp ratio   deg  nlegs   reff  inp sig2
#     0/   0 paths used
#  xsedge+ 50, used to normalize mu           2.4175E-04
#  -----------------------------------------------------------------------
#  omega    e    k    mu    mu0     chi     @#
    8984.634    -12.336  -1.000  3.56818E-02  5.71399E-02 -2.14581E-02
    8984.933    -12.037  -0.960  3.74798E-02  6.12597E-02 -2.37800E-02
    8985.219    -11.750  -0.920  3.94092E-02  6.58286E-02 -2.64194E-02
    8985.493    -11.476  -0.880  4.14827E-02  7.09112E-02 -2.94285E-02
    8985.756    -11.214  -0.840  4.37141E-02  7.65827E-02 -3.28686E-02
    8986.005    -10.964  -0.800  4.61181E-02  8.29298E-02 -3.68116E-02
    8986.243    -10.726  -0.760  4.87106E-02  9.00519E-02 -4.13413E-02
    8986.469    -10.501  -0.720  5.15077E-02  9.80612E-02 -4.65535E-02
    8986.682    -10.287  -0.680  5.45254E-02  1.07081E-01 -5.25551E-02
    8986.883    -10.086  -0.640  5.77782E-02  1.17239E-01 -5.94612E-02
    8987.072     -9.897  -0.600  6.12779E-02  1.28665E-01 -6.73867E-02
    8987.249     -9.720  -0.560  6.50304E-02  1.41463E-01 -7.64331E-02
    8987.414     -9.556  -0.520  6.90325E-02  1.55699E-01 -8.66663E-02
    8987.566     -9.403  -0.480  7.32674E-02  1.71354E-01 -9.80867E-02
    8987.706     -9.263  -0.440  7.76995E-02  1.88293E-01 -1.10593E-01
    8987.834     -9.135  -0.400  8.22705E-02  2.06224E-01 -1.23953E-01
    8987.950     -9.019  -0.360  8.68975E-02  2.24693E-01 -1.37795E-01
    8988.054     -8.916  -0.320  9.14764E-02  2.43107E-01 -1.51631E-01
    8988.145     -8.824  -0.280  9.58891E-02  2.60808E-01 -1.64919E-01
    8988.224     -8.745  -0.240  1.00014E-01  2.77161E-01 -1.77147E-01
    8988.291     -8.678  -0.200  1.03734E-01  2.91629E-01 -1.87894E-01
    8988.346     -8.623  -0.160  1.06946E-01  3.03814E-01 -1.96868E-01
    8988.389     -8.580  -0.120  1.09560E-01  3.13459E-01 -2.03898E-01
    8988.419     -8.550  -0.080  1.11505E-01  3.20414E-01 -2.08909E-01
    8988.444     -8.526   0.000  1.13153E-01  3.26008E-01 -2.12855E-01
    8988.499     -8.471   0.120  1.16876E-01  3.38642E-01 -2.21766E-01
    8988.541     -8.428   0.160  1.19757E-01  3.48469E-01 -2.28712E-01
    8988.596     -8.373   0.200  1.23572E-01  3.61054E-01 -2.37482E-01
    8988.663     -8.306   0.240  1.28417E-01  3.76255E-01 -2.47838E-01
    8988.743     -8.227   0.280  1.34425E-01  3.93785E-01 -2.59360E-01
    8988.834     -8.135   0.320  1.41811E-01  4.13250E-01 -2.71439E-01
    8988.938     -8.032   0.360  1.50893E-01  4.34131E-01 -2.83238E-01
    8989.053     -7.916   0.400  1.62104E-01  4.55916E-01 -2.93812E-01
    8989.181     -7.788   0.440  1.76051E-01  4.78075E-01 -3.02024E-01
    8989.322     -7.648   0.480  1.93465E-01  5.00228E-01 -3.06763E-01
    8989.474     -7.495   0.520  2.15144E-01  5.22108E-01 -3.06964E-01
    8989.639     -7.331   0.560  2.41571E-01  5.43579E-01 -3.02009E-01
    8989.815     -7.154   0.600  2.72253E-01  5.64626E-01 -2.92373E-01
    8990.004     -6.965   0.640  3.04639E-01  5.85252E-01 -2.80613E-01
    8990.206     -6.764   0.680  3.33606E-01  6.05516E-01 -2.71910E-01
    8990.419     -6.551   0.720  3.53155E-01  6.25507E-01 -2.72353E-01
    8990.644     -6.325   0.760  3.59824E-01  6.45232E-01 -2.85408E-01
    8990.882     -6.087   0.800  3.54745E-01  6.64765E-01 -3.10019E-01
    8991.132     -5.837   0.840  3.41839E-01  6.84146E-01 -3.42307E-01
    8991.394     -5.575   0.880  3.25440E-01  7.03365E-01 -3.77925E-01
    8991.669     -5.301   0.920  3.09301E-01  7.22434E-01 -4.13133E-01
    8991.955     -5.014   0.960  2.96567E-01  7.41334E-01 -4.44767E-01
    8992.254     -4.716   1.000  2.90080E-01  7.60037E-01 -4.69956E-01
    8992.565     -4.405   1.040  2.92045E-01  7.78524E-01 -4.86478E-01
    8992.888     -4.082   1.080  3.03311E-01  7.96709E-01 -4.93397E-01
    8993.223     -3.746   1.120  3.22969E-01  8.14583E-01 -4.91614E-01
    8993.571     -3.399   1.160  3.48733E-01  8.32093E-01 -4.83360E-01
    8993.930     -3.039   1.200  3.80161E-01  8.49160E-01 -4.68999E-01
    8994.302     -2.667   1.240  4.20396E-01  8.65746E-01 -4.45350E-01
    8994.686     -2.283   1.280  4.71672E-01  8.81813E-01 -4.10142E-01
    8995.082     -1.887   1.320  5.31800E-01  8.97282E-01 -3.65481E-01
    8995.491     -1.479   1.360  5.98345E-01  9.12154E-01 -3.13809E-01
    8995.911     -1.058   1.400  6.66337E-01  9.26353E-01 -2.60017E-01
    8996.344     -0.625   1.440  7.15351E-01  9.39846E-01 -2.24495E-01
    8996.789     -0.180   1.480  7.22134E-01  9.52619E-01 -2.30485E-01
    8997.246      0.277   1.520  6.94724E-01  9.64623E-01 -2.69899E-01
    8997.716      0.746   1.560  6.65004E-01  9.75873E-01 -3.10869E-01
    8998.197      1.228   1.600  6.54638E-01  9.86345E-01 -3.31706E-01
    8998.691      1.722   1.640  6.67906E-01  9.96015E-01 -3.28109E-01
    8999.197      2.228   1.680  7.03105E-01  1.00491E+00 -3.01802E-01
    8999.715      2.746   1.720  7.60290E-01  1.01303E+00 -2.52737E-01
    9000.246      3.276   1.760  8.34270E-01  1.02038E+00 -1.86108E-01
    9000.788      3.819   1.800  9.15106E-01  1.02697E+00 -1.11866E-01
    9001.343      4.373   1.840  9.94063E-01  1.03282E+00 -3.87535E-02
    9001.910      4.940   1.880  1.06607E+00  1.03797E+00  2.81019E-02
    9002.489      5.520   1.920  1.13303E+00  1.04244E+00  9.05898E-02
    9003.080      6.111   1.960  1.20268E+00  1.04625E+00  1.56431E-01
    9003.684      6.714   2.000  1.28282E+00  1.04943E+00  2.33389E-01
    9004.299      7.330   2.040  1.37418E+00  1.05202E+00  3.22155E-01
    9004.927      7.958   2.080  1.46921E+00  1.05406E+00  4.15148E-01
    9005.567      8.598   2.120  1.55591E+00  1.05559E+00  5.00327E-01
    9006.220      9.250   2.160  1.61860E+00  1.05662E+00  5.61985E-01
    9006.884      9.915   2.200  1.63918E+00  1.05719E+00  5.81987E-01
    9007.561     10.591   2.240  1.60880E+00  1.05737E+00  5.51432E-01
    9008.250     11.280   2.280  1.53805E+00  1.05715E+00  4.80900E-01
    9008.951     11.981   2.320  1.47125E+00  1.05658E+00  4.14671E-01
    9009.664     12.694   2.360  1.42452E+00  1.05572E+00  3.68805E-01
    9010.389     13.420   2.400  1.38681E+00  1.05456E+00  3.32249E-01
    9011.127     14.158   2.440  1.34864E+00  1.05318E+00  2.95462E-01
    9011.877     14.907   2.480  1.30613E+00  1.05156E+00  2.54576E-01
    9012.639     15.669   2.520  1.25896E+00  1.04974E+00  2.09226E-01
    9013.413     16.444   2.560  1.20949E+00  1.04777E+00  1.61727E-01
    9014.199     17.230   2.600  1.16096E+00  1.04565E+00  1.15316E-01
    9014.998     18.028   2.640  1.11552E+00  1.04342E+00  7.20930E-02
    9015.809     18.839   2.680  1.07521E+00  1.04111E+00  3.40996E-02
    9016.632     19.662   2.720  1.04101E+00  1.03872E+00  2.28463E-03
    9017.467     20.497   2.760  1.01287E+00  1.03626E+00 -2.33943E-02
    9018.314     21.345   2.800  9.89939E-01  1.03379E+00 -4.38480E-02
    9019.174     22.204   2.840  9.70881E-01  1.03130E+00 -6.04208E-02
    9020.045     23.076   2.880  9.54294E-01  1.02882E+00 -7.45226E-02
    9020.929     23.960   2.920  9.38831E-01  1.02634E+00 -8.75047E-02
    9021.825     24.856   2.960  9.24028E-01  1.02389E+00 -9.98624E-02
    9022.734     25.764   3.000  9.09969E-01  1.02148E+00 -1.11515E-01
    9023.654     26.685   3.040  8.97198E-01  1.01912E+00 -1.21925E-01
    9024.587     27.617   3.080  8.86466E-01  1.01683E+00 -1.30367E-01
    9025.532     28.562   3.120  8.78112E-01  1.01462E+00 -1.36508E-01
    9026.489     29.519   3.160  8.71903E-01  1.01247E+00 -1.40562E-01
    9027.458     30.489   3.200  8.67368E-01  1.01042E+00 -1.43050E-01
    9028.440     31.470   3.240  8.64271E-01  1.00846E+00 -1.44184E-01
    9029.433     32.464   3.280  8.62537E-01  1.00660E+00 -1.44068E-01
    9030.439     33.470   3.320  8.62077E-01  1.00485E+00 -1.42770E-01
    9031.457     34.488   3.360  8.62656E-01  1.00318E+00 -1.40526E-01
    9032.487     35.518   3.400  8.63933E-01  1.00165E+00 -1.37722E-01
    9033.530     36.560   3.440  8.65389E-01  1.00023E+00 -1.34837E-01
    9034.584     37.615   3.480  8.66986E-01  9.98917E-01 -1.31931E-01
    9035.651     38.682   3.520  8.69428E-01  9.97730E-01 -1.28303E-01
    9036.730     39.761   3.560  8.73747E-01  9.96665E-01 -1.22918E-01
    9037.821     40.852   3.600  8.80912E-01  9.95722E-01 -1.14810E-01
    9038.925     41.955   3.640  8.91276E-01  9.94902E-01 -1.03626E-01
    9040.040     43.071   3.680  9.04388E-01  9.94204E-01 -8.98159E-02
    9041.168     44.198   3.720  9.19059E-01  9.93628E-01 -7.45688E-02
    9042.308     45.338   3.760  9.34132E-01  9.93173E-01 -5.90407E-02
    9043.460     46.491   3.800  9.48912E-01  9.92816E-01 -4.39045E-02
    9044.624     47.655   3.840  9.63190E-01  9.92602E-01 -2.94118E-02
    9045.801     48.831   3.880  9.76987E-01  9.92485E-01 -1.54978E-02
    9046.990     50.020   3.920  9.90575E-01  9.92486E-01 -1.91068E-03
    9048.190     51.221   3.960  1.00404E+00  9.92605E-01  1.14356E-02
    9049.404     52.434   4.000  1.01715E+00  9.92839E-01  2.43147E-02
    9050.629     53.659   4.040  1.02948E+00  9.93142E-01  3.63373E-02
    9051.866     54.897   4.080  1.04048E+00  9.93578E-01  4.69072E-02
    9053.116     56.147   4.120  1.04936E+00  9.94081E-01  5.52823E-02
    9054.378     57.408   4.160  1.05543E+00  9.94691E-01  6.07422E-02
    9055.652     58.683   4.200  1.05818E+00  9.95386E-01  6.27967E-02
    9056.938     59.969   4.240  1.05746E+00  9.96164E-01  6.12950E-02
    9058.237     61.267   4.280  1.05373E+00  9.97018E-01  5.67115E-02
    9059.547     62.578   4.320  1.04790E+00  9.97930E-01  4.99720E-02
    9060.870     63.901   4.360  1.04113E+00  9.98936E-01  4.21909E-02
    9062.205     65.236   4.400  1.03437E+00  9.99970E-01  3.44037E-02
    9063.552     66.583   4.440  1.02850E+00  1.00107E+00  2.74250E-02
    9064.912     67.942   4.480  1.02407E+00  1.00222E+00  2.18486E-02
    9066.283     69.314   4.520  1.02129E+00  1.00341E+00  1.78850E-02
    9067.667     70.698   4.560  1.02024E+00  1.00466E+00  1.55776E-02
    9069.063     72.094   4.600  1.02071E+00  1.00590E+00  1.48113E-02
    9070.471     73.502   4.640  1.02274E+00  1.00720E+00  1.55434E-02
    9071.892     74.922   4.680  1.02652E+00  1.00850E+00  1.80209E-02
    9073.324     76.355   4.720  1.03254E+00  1.00981E+00  2.27265E-02
    9074.769     77.799   4.760  1.04117E+00  1.01112E+00  3.00510E-02
    9076.226     79.256   4.800  1.05236E+00  1.01243E+00  3.99326E-02
    9077.695     80.726   4.840  1.06539E+00  1.01373E+00  5.16541E-02
    9079.176     82.207   4.880  1.07904E+00  1.01503E+00  6.40083E-02
    9080.670     83.700   4.920  1.09192E+00  1.01633E+00  7.55927E-02
    9082.176     85.206   4.960  1.10240E+00  1.01756E+00  8.48455E-02
    9083.693     86.724   5.000  1.10892E+00  1.01877E+00  9.01476E-02
    9085.224     88.254   5.040  1.11001E+00  1.01995E+00  9.00623E-02
    9086.766     89.796   5.080  1.10487E+00  1.02109E+00  8.37864E-02
    9088.320     91.351   5.120  1.09396E+00  1.02218E+00  7.17825E-02
    9089.887     92.918   5.160  1.07900E+00  1.02320E+00  5.58073E-02
    9091.466     94.496   5.200  1.06255E+00  1.02419E+00  3.83593E-02
    9093.057     96.087   5.240  1.04694E+00  1.02509E+00  2.18497E-02
    9094.660     97.691   5.280  1.03402E+00  1.02593E+00  8.08594E-03
    9096.276     99.306   5.320  1.02470E+00  1.02672E+00 -2.02592E-03
    9097.903    100.934   5.360  1.01872E+00  1.02741E+00 -8.69516E-03
    9099.543    102.574   5.400  1.01490E+00  1.02804E+00 -1.31419E-02
    9101.195    104.226   5.440  1.01158E+00  1.02860E+00 -1.70190E-02
    9102.859    105.890   5.480  1.00739E+00  1.02907E+00 -2.16715E-02
    9104.536    107.566   5.520  1.00183E+00  1.02945E+00 -2.76230E-02
    9106.224    109.255   5.560  9.95124E-01  1.02976E+00 -3.46337E-02
    9107.925    110.956   5.600  9.87841E-01  1.02998E+00 -4.21374E-02
    9109.638    112.668   5.640  9.80411E-01  1.03012E+00 -4.97054E-02
    9111.363    114.394   5.680  9.73116E-01  1.03017E+00 -5.70539E-02
    9113.100    116.131   5.720  9.66282E-01  1.03012E+00 -6.38343E-02
    9114.850    117.881   5.760  9.60557E-01  1.03000E+00 -6.94473E-02
    9116.612    119.642   5.800  9.56632E-01  1.02981E+00 -7.31783E-02
    9118.386    121.416   5.840  9.55097E-01  1.02951E+00 -7.44157E-02
    9120.172    123.202   5.880  9.56186E-01  1.02916E+00 -7.29756E-02
    9121.970    125.001   5.920  9.59451E-01  1.02873E+00 -6.92812E-02
    9123.781    126.811   5.960  9.64128E-01  1.02821E+00 -6.40869E-02
    9125.603    128.634   6.000  9.69649E-01  1.02755E+00 -5.79046E-02
