# # comment:                                                     FEFF 9.9.1  
# # Source:
# # Structure
# # Reduced
# # space
# # abc:
# # angles:
# # sites:
# # POT  SCF 100  7.0000   0, screened core-hole, AFOLP (folp(0)= 1.150)
# # Abs   Z=29 Rmt= 1.223 Rnm= 1.291 K  shell
# # Pot 1 Z=56 Rmt= 1.944 Rnm= 1.993
# # Pot 2 Z=60 Rmt= 1.697 Rnm= 1.771
# # Pot 3 Z=29 Rmt= 1.223 Rnm= 1.291
# # Pot 4 Z= 8 Rmt= 1.056 Rnm= 1.110
# # Gam_ch=1.729E+00 H-L exch Vi= 0.000E+00 Vr= 0.000E+00
# # Mu=-8.005E+00eV kf=2.044E+00 Vint=-1.717E+01eV Rs_int= 1.775
# FMS rfms= 9.0000
# # PATH  Rmax=-1.000,  Keep_limit= 0.00, Heap_limit 0.00  Pwcrit= 2.50%
#  S02=0.950  Temp=   0.00  Debye_temp=   0.00  Global_sig2= 0.00000
#  Energy zero shift, vr, vi    0.00000E+00   0.00000E+00
#  Curved wave amplitude ratio filter   4.000%
#     file         sig2 tot  cw amp ratio   deg  nlegs   reff  inp sig2
#     0/   0 paths used
#  xsedge+ 50, used to normalize mu           2.4367E-04
#  -----------------------------------------------------------------------
#  omega    e    k    mu    mu0     chi     @#
    8984.876    -11.815  -1.000  3.80328E-02  5.84128E-02 -2.03800E-02
    8985.175    -11.516  -0.960  3.99515E-02  6.27776E-02 -2.28261E-02
    8985.461    -11.229  -0.920  4.20188E-02  6.76372E-02 -2.56184E-02
    8985.736    -10.955  -0.880  4.42538E-02  7.30650E-02 -2.88112E-02
    8985.998    -10.693  -0.840  4.66787E-02  7.91467E-02 -3.24680E-02
    8986.248    -10.443  -0.800  4.93196E-02  8.59817E-02 -3.66620E-02
    8986.485    -10.205  -0.760  5.22068E-02  9.36839E-02 -4.14770E-02
    8986.711     -9.980  -0.720  5.53748E-02  1.02382E-01 -4.70075E-02
    8986.924     -9.766  -0.680  5.88617E-02  1.12219E-01 -5.33572E-02
    8987.125     -9.565  -0.640  6.27083E-02  1.23344E-01 -6.06358E-02
    8987.314     -9.376  -0.600  6.69543E-02  1.35905E-01 -6.89509E-02
    8987.491     -9.199  -0.560  7.16331E-02  1.50029E-01 -7.83956E-02
    8987.656     -9.035  -0.520  7.67625E-02  1.65790E-01 -8.90276E-02
    8987.808     -8.882  -0.480  8.23325E-02  1.83174E-01 -1.00841E-01
    8987.948     -8.742  -0.440  8.82910E-02  2.02027E-01 -1.13736E-01
    8988.076     -8.614  -0.400  9.45323E-02  2.22020E-01 -1.27487E-01
    8988.192     -8.498  -0.360  1.00894E-01  2.42633E-01 -1.41738E-01
    8988.296     -8.395  -0.320  1.07172E-01  2.63191E-01 -1.56019E-01
    8988.387     -8.303  -0.280  1.13142E-01  2.82946E-01 -1.69804E-01
    8988.467     -8.224  -0.240  1.18599E-01  3.01179E-01 -1.82580E-01
    8988.534     -8.157  -0.200  1.23377E-01  3.17288E-01 -1.93910E-01
    8988.588     -8.102  -0.160  1.27366E-01  3.30834E-01 -2.03468E-01
    8988.631     -8.060  -0.120  1.30498E-01  3.41538E-01 -2.11040E-01
    8988.662     -8.029  -0.080  1.32740E-01  3.49248E-01 -2.16507E-01
    8988.686     -8.005   0.000  1.34520E-01  3.55440E-01 -2.20920E-01
    8988.741     -7.950   0.120  1.38605E-01  3.69389E-01 -2.30784E-01
    8988.784     -7.907   0.160  1.41777E-01  3.80233E-01 -2.38456E-01
    8988.838     -7.852   0.200  1.45793E-01  3.94067E-01 -2.48274E-01
    8988.905     -7.785   0.240  1.50589E-01  4.10696E-01 -2.60106E-01
    8988.985     -7.706   0.280  1.56032E-01  4.29755E-01 -2.73722E-01
    8989.076     -7.615   0.320  1.61992E-01  4.50745E-01 -2.88752E-01
    8989.180     -7.511   0.360  1.68256E-01  4.73047E-01 -3.04791E-01
    8989.296     -7.395   0.400  1.74625E-01  4.95982E-01 -3.21357E-01
    8989.424     -7.267   0.440  1.80853E-01  5.18947E-01 -3.38094E-01
    8989.564     -7.127   0.480  1.86678E-01  5.41458E-01 -3.54779E-01
    8989.716     -6.974   0.520  1.91887E-01  5.63196E-01 -3.71309E-01
    8989.881     -6.810   0.560  1.96414E-01  5.84023E-01 -3.87609E-01
    8990.058     -6.633   0.600  2.00445E-01  6.03902E-01 -4.03457E-01
    8990.247     -6.444   0.640  2.04486E-01  6.22876E-01 -4.18391E-01
    8990.448     -6.243   0.680  2.09155E-01  6.41032E-01 -4.31877E-01
    8990.661     -6.030   0.720  2.15175E-01  6.58470E-01 -4.43295E-01
    8990.887     -5.804   0.760  2.23244E-01  6.75309E-01 -4.52065E-01
    8991.124     -5.566   0.800  2.33929E-01  6.91599E-01 -4.57670E-01
    8991.374     -5.316   0.840  2.47570E-01  7.07435E-01 -4.59865E-01
    8991.636     -5.054   0.880  2.64143E-01  7.22876E-01 -4.58732E-01
    8991.911     -4.780   0.920  2.83164E-01  7.37966E-01 -4.54801E-01
    8992.197     -4.493   0.960  3.03906E-01  7.52715E-01 -4.48810E-01
    8992.496     -4.195   1.000  3.25519E-01  7.67145E-01 -4.41627E-01
    8992.807     -3.884   1.040  3.46917E-01  7.81283E-01 -4.34366E-01
    8993.130     -3.561   1.080  3.66828E-01  7.95089E-01 -4.28261E-01
    8993.465     -3.225   1.120  3.85163E-01  8.08600E-01 -4.23437E-01
    8993.813     -2.878   1.160  4.04053E-01  8.21762E-01 -4.17709E-01
    8994.172     -2.518   1.200  4.27955E-01  8.34563E-01 -4.06608E-01
    8994.544     -2.146   1.240  4.61796E-01  8.47024E-01 -3.85228E-01
    8994.928     -1.762   1.280  5.08725E-01  8.59084E-01 -3.50360E-01
    8995.325     -1.366   1.320  5.68494E-01  8.70743E-01 -3.02249E-01
    8995.733     -0.958   1.360  6.38702E-01  8.81977E-01 -2.43275E-01
    8996.154     -0.537   1.400  7.21833E-01  8.92763E-01 -1.70929E-01
    8996.586     -0.104   1.440  8.25098E-01  9.03098E-01 -7.79996E-02
    8997.031      0.341   1.480  9.50080E-01  9.12959E-01  3.71210E-02
    8997.489      0.798   1.520  1.08701E+00  9.22345E-01  1.64668E-01
    8997.958      1.267   1.560  1.20341E+00  9.31233E-01  2.72178E-01
    8998.440      1.749   1.600  1.27858E+00  9.39624E-01  3.38953E-01
    8998.933      2.243   1.640  1.35861E+00  9.47498E-01  4.11116E-01
    8999.439      2.749   1.680  1.47976E+00  9.54896E-01  5.24860E-01
    8999.957      3.267   1.720  1.59591E+00  9.61762E-01  6.34152E-01
    9000.488      3.797   1.760  1.61631E+00  9.68161E-01  6.48145E-01
    9001.030      4.340   1.800  1.53471E+00  9.74054E-01  5.60660E-01
    9001.585      4.894   1.840  1.44376E+00  9.79471E-01  4.64290E-01
    9002.152      5.461   1.880  1.38962E+00  9.84417E-01  4.05203E-01
    9002.731      6.040   1.920  1.34703E+00  9.88921E-01  3.58109E-01
    9003.322      6.632   1.960  1.29398E+00  9.92969E-01  3.01007E-01
    9003.926      7.235   2.000  1.24278E+00  9.96591E-01  2.46184E-01
    9004.542      7.851   2.040  1.21549E+00  9.99797E-01  2.15697E-01
    9005.170      8.479   2.080  1.21586E+00  1.00264E+00  2.13220E-01
    9005.810      9.119   2.120  1.22638E+00  1.00508E+00  2.21298E-01
    9006.462      9.771   2.160  1.22999E+00  1.00720E+00  2.22791E-01
    9007.126     10.436   2.200  1.20549E+00  1.00897E+00  1.96520E-01
    9007.803     11.112   2.240  1.14943E+00  1.01045E+00  1.38985E-01
    9008.492     11.801   2.280  1.09438E+00  1.01162E+00  8.27578E-02
    9009.193     12.502   2.320  1.06554E+00  1.01253E+00  5.30098E-02
    9009.906     13.215   2.360  1.06319E+00  1.01318E+00  5.00088E-02
    9010.632     13.941   2.400  1.07226E+00  1.01362E+00  5.86394E-02
    9011.369     14.678   2.440  1.08019E+00  1.01385E+00  6.63451E-02
    9012.119     15.428   2.480  1.08431E+00  1.01387E+00  7.04350E-02
    9012.881     16.190   2.520  1.08170E+00  1.01375E+00  6.79489E-02
    9013.655     16.964   2.560  1.07182E+00  1.01345E+00  5.83749E-02
    9014.442     17.751   2.600  1.05447E+00  1.01303E+00  4.14424E-02
    9015.240     18.549   2.640  1.03138E+00  1.01249E+00  1.88841E-02
    9016.051     19.360   2.680  1.00525E+00  1.01184E+00 -6.59433E-03
    9016.874     20.183   2.720  9.79387E-01  1.01113E+00 -3.17386E-02
    9017.709     21.018   2.760  9.56069E-01  1.01033E+00 -5.42595E-02
    9018.556     21.866   2.800  9.35891E-01  1.00946E+00 -7.35676E-02
    9019.416     22.725   2.840  9.18274E-01  1.00856E+00 -9.02905E-02
    9020.288     23.597   2.880  9.01577E-01  1.00761E+00 -1.06034E-01
    9021.171     24.481   2.920  8.84753E-01  1.00667E+00 -1.21913E-01
    9022.068     25.377   2.960  8.68181E-01  1.00569E+00 -1.37511E-01
    9022.976     26.285   3.000  8.53421E-01  1.00472E+00 -1.51295E-01
    9023.896     27.206   3.040  8.41959E-01  1.00374E+00 -1.61783E-01
    9024.829     28.138   3.080  8.34915E-01  1.00279E+00 -1.67879E-01
    9025.774     29.083   3.120  8.32676E-01  1.00186E+00 -1.69180E-01
    9026.731     30.040   3.160  8.34470E-01  1.00095E+00 -1.66481E-01
    9027.700     31.010   3.200  8.39270E-01  1.00009E+00 -1.60816E-01
    9028.682     31.991   3.240  8.46108E-01  9.99261E-01 -1.53153E-01
    9029.675     32.985   3.280  8.54133E-01  9.98501E-01 -1.44368E-01
    9030.681     33.991   3.320  8.62762E-01  9.97787E-01 -1.35025E-01
    9031.699     35.009   3.360  8.71848E-01  9.97119E-01 -1.25271E-01
    9032.729     36.039   3.400  8.81748E-01  9.96498E-01 -1.14750E-01
    9033.772     37.081   3.440  8.92916E-01  9.95949E-01 -1.03033E-01
    9034.826     38.136   3.480  9.05938E-01  9.95474E-01 -8.95361E-02
    9035.893     39.203   3.520  9.21149E-01  9.95073E-01 -7.39240E-02
    9036.972     40.282   3.560  9.38482E-01  9.94723E-01 -5.62407E-02
    9038.063     41.373   3.600  9.57680E-01  9.94426E-01 -3.67456E-02
    9039.167     42.476   3.640  9.78224E-01  9.94225E-01 -1.60013E-02
    9040.282     43.592   3.680  9.99210E-01  9.94079E-01  5.13075E-03
    9041.410     44.719   3.720  1.01963E+00  9.94007E-01  2.56183E-02
    9042.550     45.859   3.760  1.03863E+00  9.94010E-01  4.46160E-02
    9043.702     47.012   3.800  1.05526E+00  9.94065E-01  6.11918E-02
    9044.867     48.176   3.840  1.06835E+00  9.94193E-01  7.41604E-02
    9046.043     49.352   3.880  1.07693E+00  9.94372E-01  8.25620E-02
    9047.232     50.541   3.920  1.08055E+00  9.94623E-01  8.59296E-02
    9048.433     51.742   3.960  1.07956E+00  9.94946E-01  8.46135E-02
    9049.646     52.955   4.000  1.07514E+00  9.95319E-01  7.98182E-02
    9050.871     54.180   4.040  1.06891E+00  9.95737E-01  7.31744E-02
    9052.109     55.418   4.080  1.06245E+00  9.96222E-01  6.62299E-02
    9053.358     56.668   4.120  1.05680E+00  9.96752E-01  6.00528E-02
    9054.620     57.929   4.160  1.05255E+00  9.97323E-01  5.52256E-02
    9055.894     59.203   4.200  1.04973E+00  9.97934E-01  5.17990E-02
    9057.180     60.490   4.240  1.04829E+00  9.98583E-01  4.97035E-02
    9058.479     61.788   4.280  1.04827E+00  9.99247E-01  4.90210E-02
    9059.789     63.099   4.320  1.04985E+00  9.99969E-01  4.98786E-02
    9061.112     64.422   4.360  1.05280E+00  1.00070E+00  5.20918E-02
    9062.447     65.757   4.400  1.05652E+00  1.00147E+00  5.50557E-02
    9063.795     67.104   4.440  1.06023E+00  1.00224E+00  5.79914E-02
    9065.154     68.463   4.480  1.06313E+00  1.00304E+00  6.00899E-02
    9066.526     69.835   4.520  1.06462E+00  1.00382E+00  6.08003E-02
    9067.909     71.219   4.560  1.06453E+00  1.00463E+00  5.99015E-02
    9069.305     72.615   4.600  1.06268E+00  1.00543E+00  5.72451E-02
    9070.713     74.023   4.640  1.05878E+00  1.00624E+00  5.25414E-02
    9072.134     75.443   4.680  1.05254E+00  1.00704E+00  4.55060E-02
    9073.566     76.876   4.720  1.04403E+00  1.00781E+00  3.62234E-02
    9075.011     78.320   4.760  1.03389E+00  1.00857E+00  2.53217E-02
    9076.468     79.777   4.800  1.02310E+00  1.00932E+00  1.37815E-02
    9077.937     81.247   4.840  1.01260E+00  1.01004E+00  2.55907E-03
    9079.419     82.728   4.880  1.00312E+00  1.01072E+00 -7.59838E-03
    9080.912     84.221   4.920  9.95056E-01  1.01136E+00 -1.63086E-02
    9082.418     85.727   4.960  9.88305E-01  1.01199E+00 -2.36882E-02
    9083.936     87.245   5.000  9.82378E-01  1.01258E+00 -3.02061E-02
    9085.466     88.775   5.040  9.76813E-01  1.01313E+00 -3.63213E-02
    9087.008     90.317   5.080  9.71592E-01  1.01364E+00 -4.20477E-02
    9088.562     91.872   5.120  9.67222E-01  1.01408E+00 -4.68573E-02
    9090.129     93.438   5.160  9.64478E-01  1.01450E+00 -5.00183E-02
    9091.708     95.017   5.200  9.63790E-01  1.01485E+00 -5.10586E-02
    9093.299     96.608   5.240  9.64933E-01  1.01518E+00 -5.02439E-02
    9094.902     98.212   5.280  9.66843E-01  1.01543E+00 -4.85922E-02
    9096.518     99.827   5.320  9.68282E-01  1.01562E+00 -4.73399E-02
    9098.145    101.455   5.360  9.68613E-01  1.01576E+00 -4.71474E-02
    9099.785    103.094   5.400  9.68165E-01  1.01585E+00 -4.76877E-02
    9101.437    104.746   5.440  9.68007E-01  1.01590E+00 -4.78930E-02
    9103.101    106.411   5.480  9.69087E-01  1.01588E+00 -4.67899E-02
    9104.778    108.087   5.520  9.71784E-01  1.01580E+00 -4.40209E-02
    9106.466    109.776   5.560  9.75795E-01  1.01569E+00 -3.98908E-02
    9108.167    111.476   5.600  9.80401E-01  1.01550E+00 -3.50969E-02
    9109.880    113.189   5.640  9.84767E-01  1.01526E+00 -3.04968E-02
    9111.605    114.915   5.680  9.88280E-01  1.01499E+00 -2.67064E-02
    9113.343    116.652   5.720  9.90865E-01  1.01466E+00 -2.37986E-02
    9115.092    118.401   5.760  9.93045E-01  1.01427E+00 -2.12298E-02
    9116.854    120.163   5.800  9.95599E-01  1.01384E+00 -1.82456E-02
    9118.628    121.937   5.840  9.99053E-01  1.01340E+00 -1.43452E-02
    9120.414    123.723   5.880  1.00340E+00  1.01289E+00 -9.49132E-03
    9122.212    125.522   5.920  1.00830E+00  1.01235E+00 -4.05337E-03
    9124.023    127.332   5.960  1.01311E+00  1.01177E+00  1.34198E-03
    9125.845    129.155   6.000  1.01737E+00  1.01116E+00  6.21056E-03
