# # comment:                                                     FEFF 9.9.1  
# # Source:
# # Structure
# # Reduced
# # space
# # abc:
# # angles:
# # sites:
# # POT  SCF 100  7.0000   0, screened core-hole, AFOLP (folp(0)= 1.150)
# # Abs   Z=29 Rmt= 1.232 Rnm= 1.295 K  shell
# # Pot 1 Z= 3 Rmt= 1.272 Rnm= 1.323
# # Pot 2 Z=29 Rmt= 1.232 Rnm= 1.295
# # Pot 3 Z= 8 Rmt= 1.075 Rnm= 1.125
# # Gam_ch=1.729E+00 H-L exch Vi= 0.000E+00 Vr= 0.000E+00
# # Mu=-8.982E+00eV kf=2.050E+00 Vint=-1.633E+01eV Rs_int= 1.769
# FMS rfms= 9.0000
# # PATH  Rmax=-1.000,  Keep_limit= 0.00, Heap_limit 0.00  Pwcrit= 2.50%
#  S02=0.950  Temp=   0.00  Debye_temp=   0.00  Global_sig2= 0.00000
#  Energy zero shift, vr, vi    0.00000E+00   0.00000E+00
#  Curved wave amplitude ratio filter   4.000%
#     file         sig2 tot  cw amp ratio   deg  nlegs   reff  inp sig2
#     0/   0 paths used
#  xsedge+ 50, used to normalize mu           2.4468E-04
#  -----------------------------------------------------------------------
#  omega    e    k    mu    mu0     chi     @#
    8984.280    -12.792  -1.000  2.81865E-02  5.17866E-02 -2.36001E-02
    8984.579    -12.493  -0.960  2.92000E-02  5.54526E-02 -2.62526E-02
    8984.865    -12.206  -0.920  3.02545E-02  5.95161E-02 -2.92616E-02
    8985.140    -11.932  -0.880  3.13529E-02  6.40347E-02 -3.26818E-02
    8985.402    -11.670  -0.840  3.24988E-02  6.90752E-02 -3.65763E-02
    8985.652    -11.420  -0.800  3.36966E-02  7.47147E-02 -4.10181E-02
    8985.889    -11.182  -0.760  3.49512E-02  8.10418E-02 -4.60906E-02
    8986.115    -10.957  -0.720  3.62685E-02  8.81561E-02 -5.18876E-02
    8986.328    -10.743  -0.680  3.76553E-02  9.61674E-02 -5.85121E-02
    8986.530    -10.542  -0.640  3.91185E-02  1.05191E-01 -6.60726E-02
    8986.718    -10.353  -0.600  4.06647E-02  1.15340E-01 -7.46754E-02
    8986.895    -10.176  -0.560  4.22988E-02  1.26711E-01 -8.44119E-02
    8987.060    -10.012  -0.520  4.40214E-02  1.39359E-01 -9.53376E-02
    8987.212     -9.859  -0.480  4.58261E-02  1.53270E-01 -1.07444E-01
    8987.352     -9.719  -0.440  4.76957E-02  1.68323E-01 -1.20628E-01
    8987.480     -9.591  -0.400  4.95996E-02  1.84259E-01 -1.34659E-01
    8987.596     -9.475  -0.360  5.14939E-02  2.00672E-01 -1.49178E-01
    8987.700     -9.372  -0.320  5.33254E-02  2.17034E-01 -1.63708E-01
    8987.791     -9.280  -0.280  5.50391E-02  2.32758E-01 -1.77719E-01
    8987.871     -9.201  -0.240  5.65872E-02  2.47281E-01 -1.90694E-01
    8987.938     -9.134  -0.200  5.79343E-02  2.60125E-01 -2.02191E-01
    8987.993     -9.079  -0.160  5.90584E-02  2.70939E-01 -2.11880E-01
    8988.035     -9.036  -0.120  5.99486E-02  2.79495E-01 -2.19547E-01
    8988.066     -9.006  -0.080  6.05994E-02  2.85665E-01 -2.25066E-01
    8988.090     -8.982   0.000  6.11530E-02  2.90626E-01 -2.29473E-01
    8988.145     -8.927   0.120  6.23773E-02  3.01820E-01 -2.39443E-01
    8988.188     -8.884   0.160  6.32860E-02  3.10537E-01 -2.47251E-01
    8988.242     -8.829   0.200  6.43732E-02  3.21668E-01 -2.57295E-01
    8988.310     -8.762   0.240  6.56758E-02  3.35119E-01 -2.69443E-01
    8988.389     -8.683   0.280  6.71116E-02  3.50607E-01 -2.83495E-01
    8988.480     -8.591   0.320  6.86557E-02  3.67771E-01 -2.99115E-01
    8988.584     -8.488   0.360  7.03037E-02  3.86160E-01 -3.15856E-01
    8988.700     -8.372   0.400  7.20462E-02  4.05311E-01 -3.33265E-01
    8988.828     -8.244   0.440  7.38536E-02  4.24720E-01 -3.50867E-01
    8988.968     -8.104   0.480  7.57514E-02  4.44065E-01 -3.68313E-01
    8989.120     -7.951   0.520  7.78015E-02  4.63127E-01 -3.85326E-01
    8989.285     -7.787   0.560  8.00261E-02  4.81785E-01 -4.01759E-01
    8989.462     -7.610   0.600  8.24662E-02  4.99986E-01 -4.17519E-01
    8989.651     -7.421   0.640  8.51795E-02  5.17796E-01 -4.32617E-01
    8989.852     -7.220   0.680  8.82336E-02  5.35274E-01 -4.47040E-01
    8990.065     -7.006   0.720  9.16773E-02  5.52465E-01 -4.60787E-01
    8990.291     -6.781   0.760  9.56557E-02  5.69475E-01 -4.73819E-01
    8990.528     -6.543   0.800  1.00227E-01  5.86320E-01 -4.86093E-01
    8990.778     -6.293   0.840  1.05541E-01  6.03043E-01 -4.97502E-01
    8991.041     -6.031   0.880  1.11867E-01  6.19697E-01 -5.07830E-01
    8991.315     -5.757   0.920  1.19481E-01  6.36281E-01 -5.16800E-01
    8991.601     -5.470   0.960  1.28893E-01  6.52823E-01 -5.23930E-01
    8991.900     -5.172   1.000  1.40725E-01  6.69282E-01 -5.28557E-01
    8992.211     -4.861   1.040  1.56071E-01  6.85651E-01 -5.29580E-01
    8992.534     -4.538   1.080  1.76453E-01  7.01912E-01 -5.25459E-01
    8992.869     -4.202   1.120  2.03972E-01  7.18044E-01 -5.14073E-01
    8993.217     -3.855   1.160  2.41189E-01  7.34002E-01 -4.92813E-01
    8993.576     -3.495   1.200  2.90495E-01  7.49757E-01 -4.59262E-01
    8993.948     -3.123   1.240  3.49365E-01  7.65258E-01 -4.15893E-01
    8994.332     -2.739   1.280  4.02034E-01  7.80493E-01 -3.78458E-01
    8994.729     -2.343   1.320  4.30686E-01  7.95385E-01 -3.64699E-01
    8995.137     -1.935   1.360  4.42116E-01  8.09942E-01 -3.67826E-01
    8995.558     -1.514   1.400  4.56425E-01  8.24089E-01 -3.67664E-01
    8995.990     -1.081   1.440  4.81471E-01  8.37813E-01 -3.56342E-01
    8996.435     -0.636   1.480  5.12906E-01  8.51061E-01 -3.38155E-01
    8996.893     -0.179   1.520  5.46993E-01  8.63841E-01 -3.16848E-01
    8997.362      0.290   1.560  5.91366E-01  8.76101E-01 -2.84736E-01
    8997.844      0.772   1.600  6.62976E-01  8.87834E-01 -2.24858E-01
    8998.337      1.266   1.640  7.66819E-01  8.98991E-01 -1.32172E-01
    8998.843      1.772   1.680  8.74788E-01  9.09608E-01 -3.48200E-02
    8999.362      2.290   1.720  9.81921E-01  9.19641E-01  6.22801E-02
    8999.892      2.820   1.760  1.13359E+00  9.29088E-01  2.04505E-01
    9000.434      3.363   1.800  1.35007E+00  9.37948E-01  4.12121E-01
    9000.989      3.918   1.840  1.58791E+00  9.46243E-01  6.41669E-01
    9001.556      4.484   1.880  1.78787E+00  9.53936E-01  8.33938E-01
    9002.135      5.064   1.920  1.89739E+00  9.61072E-01  9.36319E-01
    9002.727      5.655   1.960  1.93592E+00  9.67657E-01  9.68266E-01
    9003.330      6.258   2.000  1.95458E+00  9.73678E-01  9.80898E-01
    9003.946      6.874   2.040  1.94040E+00  9.79183E-01  9.61214E-01
    9004.574      7.502   2.080  1.82844E+00  9.84182E-01  8.44261E-01
    9005.214      8.142   2.120  1.61455E+00  9.88663E-01  6.25892E-01
    9005.866      8.794   2.160  1.38929E+00  9.92679E-01  3.96615E-01
    9006.530      9.459   2.200  1.21782E+00  9.96240E-01  2.21581E-01
    9007.207     10.135   2.240  1.10145E+00  9.99378E-01  1.02075E-01
    9007.896     10.824   2.280  1.01963E+00  1.00211E+00  1.75240E-02
    9008.597     11.525   2.320  9.55283E-01  1.00446E+00 -4.91728E-02
    9009.310     12.239   2.360  9.02894E-01  1.00644E+00 -1.03544E-01
    9010.036     12.964   2.400  8.63202E-01  1.00809E+00 -1.44883E-01
    9010.773     13.702   2.440  8.35789E-01  1.00941E+00 -1.73622E-01
    9011.523     14.451   2.480  8.32248E-01  1.01047E+00 -1.78220E-01
    9012.285     15.213   2.520  8.43758E-01  1.01125E+00 -1.67488E-01
    9013.059     15.988   2.560  8.66061E-01  1.01178E+00 -1.45715E-01
    9013.846     16.774   2.600  8.97611E-01  1.01209E+00 -1.14482E-01
    9014.644     17.573   2.640  9.36361E-01  1.01220E+00 -7.58416E-02
    9015.455     18.383   2.680  9.77955E-01  1.01212E+00 -3.41637E-02
    9016.278     19.206   2.720  1.01404E+00  1.01189E+00  2.15159E-03
    9017.113     20.041   2.760  1.03720E+00  1.01151E+00  2.56900E-02
    9017.960     20.889   2.800  1.04361E+00  1.01102E+00  3.25824E-02
    9018.820     21.748   2.840  1.03266E+00  1.01042E+00  2.22376E-02
    9019.692     22.620   2.880  1.00623E+00  1.00971E+00 -3.47778E-03
    9020.576     23.504   2.920  9.67998E-01  1.00894E+00 -4.09396E-02
    9021.472     24.400   2.960  9.24783E-01  1.00809E+00 -8.33103E-02
    9022.380     25.308   3.000  8.84046E-01  1.00722E+00 -1.23176E-01
    9023.300     26.229   3.040  8.49757E-01  1.00629E+00 -1.56534E-01
    9024.233     27.161   3.080  8.23415E-01  1.00535E+00 -1.81930E-01
    9025.178     28.106   3.120  8.05160E-01  1.00437E+00 -1.99212E-01
    9026.135     29.063   3.160  7.94625E-01  1.00342E+00 -2.08790E-01
    9027.104     30.033   3.200  7.91494E-01  1.00244E+00 -2.10944E-01
    9028.086     31.014   3.240  7.96025E-01  1.00149E+00 -2.05465E-01
    9029.079     32.008   3.280  8.07420E-01  1.00057E+00 -1.93151E-01
    9030.085     33.014   3.320  8.25052E-01  9.99667E-01 -1.74615E-01
    9031.103     34.032   3.360  8.47372E-01  9.98820E-01 -1.51448E-01
    9032.134     35.062   3.400  8.70919E-01  9.97990E-01 -1.27071E-01
    9033.176     36.104   3.440  8.91615E-01  9.97202E-01 -1.05587E-01
    9034.231     37.159   3.480  9.06921E-01  9.96479E-01 -8.95583E-02
    9035.297     38.226   3.520  9.16792E-01  9.95802E-01 -7.90101E-02
    9036.376     39.305   3.560  9.22947E-01  9.95172E-01 -7.22257E-02
    9037.467     40.396   3.600  9.28034E-01  9.94612E-01 -6.65771E-02
    9038.571     41.499   3.640  9.34692E-01  9.94101E-01 -5.94089E-02
    9039.686     42.615   3.680  9.45051E-01  9.93662E-01 -4.86115E-02
    9040.814     43.743   3.720  9.60511E-01  9.93298E-01 -3.27868E-02
    9041.954     44.882   3.760  9.81424E-01  9.92984E-01 -1.15608E-02
    9043.106     46.035   3.800  1.00683E+00  9.92743E-01  1.40829E-02
    9044.271     47.199   3.840  1.03443E+00  9.92553E-01  4.18782E-02
    9045.447     48.375   3.880  1.06159E+00  9.92437E-01  6.91517E-02
    9046.636     49.564   3.920  1.08637E+00  9.92393E-01  9.39812E-02
    9047.837     50.765   3.960  1.10821E+00  9.92401E-01  1.15810E-01
    9049.050     51.978   4.000  1.12771E+00  9.92479E-01  1.35234E-01
    9050.275     53.203   4.040  1.14517E+00  9.92608E-01  1.52565E-01
    9051.513     54.441   4.080  1.15980E+00  9.92806E-01  1.66997E-01
    9052.762     55.691   4.120  1.17010E+00  9.93050E-01  1.77047E-01
    9054.024     56.953   4.160  1.17463E+00  9.93341E-01  1.81288E-01
    9055.298     58.227   4.200  1.17214E+00  9.93698E-01  1.78441E-01
    9056.584     59.513   4.240  1.16159E+00  9.94100E-01  1.67494E-01
    9057.883     60.811   4.280  1.14339E+00  9.94544E-01  1.48847E-01
    9059.194     62.122   4.320  1.11986E+00  9.95027E-01  1.24837E-01
    9060.516     63.445   4.360  1.09462E+00  9.95549E-01  9.90674E-02
    9061.851     64.780   4.400  1.07111E+00  9.96106E-01  7.50072E-02
    9063.199     66.127   4.440  1.05154E+00  9.96678E-01  5.48630E-02
    9064.558     67.486   4.480  1.03647E+00  9.97284E-01  3.91880E-02
    9065.930     68.858   4.520  1.02497E+00  9.97922E-01  2.70455E-02
    9067.313     70.242   4.560  1.01522E+00  9.98590E-01  1.66342E-02
    9068.709     71.638   4.600  1.00540E+00  9.99242E-01  6.15621E-03
    9070.118     73.046   4.640  9.94502E-01  9.99921E-01 -5.41828E-03
    9071.538     74.466   4.680  9.82521E-01  1.00060E+00 -1.80831E-02
    9072.970     75.899   4.720  9.70278E-01  1.00131E+00 -3.10315E-02
    9074.415     77.344   4.760  9.58908E-01  1.00199E+00 -4.30836E-02
    9075.872     78.800   4.800  9.49514E-01  1.00267E+00 -5.31557E-02
    9077.341     80.270   4.840  9.42664E-01  1.00335E+00 -6.06809E-02
    9078.823     81.751   4.880  9.38302E-01  1.00401E+00 -6.57116E-02
    9080.316     83.244   4.920  9.35961E-01  1.00465E+00 -6.86910E-02
    9081.822     84.750   4.960  9.35300E-01  1.00528E+00 -6.99807E-02
    9083.340     86.268   5.000  9.36534E-01  1.00588E+00 -6.93425E-02
    9084.870     87.798   5.040  9.40359E-01  1.00646E+00 -6.61010E-02
    9086.412     89.340   5.080  9.47339E-01  1.00701E+00 -5.96681E-02
    9087.967     90.895   5.120  9.57128E-01  1.00751E+00 -5.03868E-02
    9089.533     92.462   5.160  9.68240E-01  1.00798E+00 -3.97442E-02
    9091.112     94.040   5.200  9.78859E-01  1.00841E+00 -2.95551E-02
    9092.703     95.631   5.240  9.87875E-01  1.00883E+00 -2.09509E-02
    9094.306     97.235   5.280  9.95033E-01  1.00918E+00 -1.41420E-02
    9095.922     98.850   5.320  1.00021E+00  1.00950E+00 -9.29223E-03
    9097.549    100.478   5.360  1.00280E+00  1.00977E+00 -6.96247E-03
    9099.189    102.118   5.400  1.00212E+00  1.00998E+00 -7.86149E-03
    9100.841    103.770   5.440  9.97961E-01  1.01016E+00 -1.21978E-02
    9102.505    105.434   5.480  9.91153E-01  1.01029E+00 -1.91344E-02
    9104.182    107.110   5.520  9.83832E-01  1.01035E+00 -2.65164E-02
    9105.870    108.799   5.560  9.78653E-01  1.01036E+00 -3.17115E-02
    9107.571    110.500   5.600  9.77287E-01  1.01036E+00 -3.30714E-02
    9109.284    112.213   5.640  9.79559E-01  1.01026E+00 -3.07052E-02
    9111.009    113.938   5.680  9.83860E-01  1.01015E+00 -2.62865E-02
    9112.747    115.675   5.720  9.87422E-01  1.00999E+00 -2.25645E-02
    9114.496    117.425   5.760  9.87397E-01  1.00976E+00 -2.23632E-02
    9116.258    119.186   5.800  9.82409E-01  1.00949E+00 -2.70816E-02
    9118.032    120.960   5.840  9.73340E-01  1.00918E+00 -3.58402E-02
    9119.818    122.746   5.880  9.62596E-01  1.00883E+00 -4.62355E-02
    9121.616    124.545   5.920  9.52985E-01  1.00845E+00 -5.54615E-02
    9123.427    126.355   5.960  9.47405E-01  1.00802E+00 -6.06178E-02
    9125.250    128.178   6.000  9.49299E-01  1.00753E+00 -5.82351E-02
