# # comment:                                                     FEFF 9.9.1  
# # Source:
# # Structure
# # Reduced
# # space
# # abc:
# # angles:
# # sites:
# # POT  SCF 100  7.0000   0, screened core-hole, AFOLP (folp(0)= 1.150)
# # Abs   Z=29 Rmt= 1.187 Rnm= 1.259 K  shell
# # Pot 1 Z= 3 Rmt= 1.147 Rnm= 1.205
# # Pot 2 Z=57 Rmt= 1.746 Rnm= 1.822
# # Pot 3 Z=29 Rmt= 1.124 Rnm= 1.219
# # Pot 4 Z= 8 Rmt= 1.034 Rnm= 1.080
# # Gam_ch=1.729E+00 H-L exch Vi= 0.000E+00 Vr= 0.000E+00
# # Mu=-8.206E+00eV kf=2.074E+00 Vint=-1.924E+01eV Rs_int= 1.749
# FMS rfms= 9.0000
# # PATH  Rmax=-1.000,  Keep_limit= 0.00, Heap_limit 0.00  Pwcrit= 2.50%
#  S02=0.950  Temp=   0.00  Debye_temp=   0.00  Global_sig2= 0.00000
#  Energy zero shift, vr, vi    0.00000E+00   0.00000E+00
#  Curved wave amplitude ratio filter   4.000%
#     file         sig2 tot  cw amp ratio   deg  nlegs   reff  inp sig2
#     0/   0 paths used
#  xsedge+ 50, used to normalize mu           2.4570E-04
#  -----------------------------------------------------------------------
#  omega    e    k    mu    mu0     chi     @#
    8985.393    -12.016  -1.000  4.00649E-02  5.84673E-02 -1.84024E-02
    8985.692    -11.718  -0.960  4.21121E-02  6.28813E-02 -2.07692E-02
    8985.978    -11.431  -0.920  4.43118E-02  6.78019E-02 -2.34902E-02
    8986.253    -11.157  -0.880  4.66820E-02  7.33052E-02 -2.66232E-02
    8986.515    -10.895  -0.840  4.92441E-02  7.94799E-02 -3.02357E-02
    8986.765    -10.645  -0.800  5.20230E-02  8.64290E-02 -3.44060E-02
    8987.002    -10.407  -0.760  5.50474E-02  9.42709E-02 -3.92235E-02
    8987.228    -10.181  -0.720  5.83504E-02  1.03140E-01 -4.47894E-02
    8987.441     -9.968  -0.680  6.19684E-02  1.13183E-01 -5.12150E-02
    8987.642     -9.767  -0.640  6.59402E-02  1.24558E-01 -5.86181E-02
    8987.831     -9.578  -0.600  7.03033E-02  1.37419E-01 -6.71152E-02
    8988.008     -9.401  -0.560  7.50878E-02  1.51896E-01 -7.68087E-02
    8988.173     -9.236  -0.520  8.03063E-02  1.68072E-01 -8.77653E-02
    8988.325     -9.084  -0.480  8.59407E-02  1.85929E-01 -9.99884E-02
    8988.465     -8.944  -0.440  9.19267E-02  2.05311E-01 -1.13385E-01
    8988.593     -8.816  -0.400  9.81425E-02  2.25877E-01 -1.27734E-01
    8988.709     -8.700  -0.360  1.04409E-01  2.47087E-01 -1.42678E-01
    8988.813     -8.596  -0.320  1.10509E-01  2.68242E-01 -1.57733E-01
    8988.904     -8.505  -0.280  1.16219E-01  2.88567E-01 -1.72348E-01
    8988.984     -8.426  -0.240  1.21349E-01  3.07318E-01 -1.85969E-01
    8989.051     -8.359  -0.200  1.25764E-01  3.23875E-01 -1.98111E-01
    8989.105     -8.304  -0.160  1.29388E-01  3.37790E-01 -2.08403E-01
    8989.148     -8.261  -0.120  1.32188E-01  3.48779E-01 -2.16591E-01
    8989.179     -8.231  -0.080  1.34160E-01  3.56688E-01 -2.22527E-01
    8989.203     -8.206   0.000  1.35690E-01  3.63036E-01 -2.27346E-01
    8989.258     -8.151   0.120  1.39396E-01  3.77337E-01 -2.37941E-01
    8989.301     -8.109   0.160  1.42195E-01  3.88439E-01 -2.46244E-01
    8989.355     -8.054   0.200  1.45698E-01  4.02568E-01 -2.56870E-01
    8989.422     -7.987   0.240  1.49852E-01  4.19549E-01 -2.69697E-01
    8989.502     -7.908   0.280  1.54538E-01  4.38966E-01 -2.84429E-01
    8989.593     -7.816   0.320  1.59666E-01  4.60283E-01 -3.00617E-01
    8989.697     -7.712   0.360  1.65187E-01  4.82836E-01 -3.17649E-01
    8989.813     -7.597   0.400  1.71113E-01  5.05901E-01 -3.34788E-01
    8989.941     -7.469   0.440  1.77506E-01  5.28860E-01 -3.51354E-01
    8990.081     -7.328   0.480  1.84381E-01  5.51177E-01 -3.66796E-01
    8990.233     -7.176   0.520  1.91711E-01  5.72538E-01 -3.80827E-01
    8990.398     -7.011   0.560  1.99412E-01  5.92776E-01 -3.93364E-01
    8990.575     -6.835   0.600  2.07509E-01  6.11900E-01 -4.04391E-01
    8990.764     -6.646   0.640  2.16284E-01  6.29940E-01 -4.13656E-01
    8990.965     -6.444   0.680  2.26465E-01  6.46992E-01 -4.20528E-01
    8991.178     -6.231   0.720  2.39169E-01  6.63193E-01 -4.24025E-01
    8991.404     -6.006   0.760  2.55514E-01  6.78657E-01 -4.23143E-01
    8991.641     -5.768   0.800  2.75841E-01  6.93507E-01 -4.17666E-01
    8991.891     -5.518   0.840  2.98675E-01  7.07812E-01 -4.09137E-01
    8992.153     -5.256   0.880  3.20677E-01  7.21667E-01 -4.00990E-01
    8992.428     -4.981   0.920  3.38919E-01  7.35106E-01 -3.96188E-01
    8992.714     -4.695   0.960  3.53425E-01  7.48215E-01 -3.94789E-01
    8993.013     -4.396   1.000  3.66460E-01  7.60983E-01 -3.94522E-01
    8993.324     -4.085   1.040  3.80497E-01  7.73471E-01 -3.92974E-01
    8993.647     -3.762   1.080  3.97852E-01  7.85669E-01 -3.87817E-01
    8993.982     -3.427   1.120  4.22014E-01  7.97603E-01 -3.75589E-01
    8994.330     -3.080   1.160  4.57282E-01  8.09249E-01 -3.51967E-01
    8994.689     -2.720   1.200  5.07995E-01  8.20620E-01 -3.12625E-01
    8995.061     -2.348   1.240  5.78963E-01  8.31727E-01 -2.52764E-01
    8995.445     -1.964   1.280  6.77307E-01  8.42515E-01 -1.65208E-01
    8995.842     -1.568   1.320  8.14836E-01  8.53028E-01 -3.81926E-02
    8996.250     -1.159   1.360  1.00407E+00  8.63208E-01  1.40862E-01
    8996.671     -0.739   1.400  1.22580E+00  8.73075E-01  3.52720E-01
    8997.103     -0.306   1.440  1.38707E+00  8.82589E-01  5.04477E-01
    8997.548      0.139   1.480  1.40915E+00  8.91770E-01  5.17379E-01
    8998.006      0.596   1.520  1.33365E+00  9.00597E-01  4.33057E-01
    8998.475      1.066   1.560  1.23730E+00  9.09050E-01  3.28251E-01
    8998.957      1.547   1.600  1.17526E+00  9.17128E-01  2.58131E-01
    8999.450      2.041   1.640  1.18799E+00  9.24830E-01  2.63157E-01
    8999.956      2.547   1.680  1.27856E+00  9.32157E-01  3.46399E-01
    9000.474      3.065   1.720  1.39542E+00  9.39089E-01  4.56334E-01
    9001.005      3.596   1.760  1.45729E+00  9.45628E-01  5.11667E-01
    9001.547      4.138   1.800  1.43038E+00  9.51795E-01  4.78584E-01
    9002.102      4.693   1.840  1.34872E+00  9.57573E-01  3.91149E-01
    9002.669      5.260   1.880  1.24645E+00  9.62965E-01  2.83488E-01
    9003.248      5.839   1.920  1.14609E+00  9.67976E-01  1.78119E-01
    9003.839      6.430   1.960  1.06855E+00  9.72630E-01  9.59165E-02
    9004.443      7.034   2.000  1.02537E+00  9.76910E-01  4.84629E-02
    9005.059      7.649   2.040  1.02061E+00  9.80844E-01  3.97675E-02
    9005.687      8.277   2.080  1.04629E+00  9.84437E-01  6.18484E-02
    9006.327      8.917   2.120  1.08984E+00  9.87715E-01  1.02126E-01
    9006.979      9.570   2.160  1.14114E+00  9.90645E-01  1.50498E-01
    9007.643     10.234   2.200  1.18610E+00  9.93295E-01  1.92803E-01
    9008.320     10.911   2.240  1.20183E+00  9.95651E-01  2.06176E-01
    9009.009     11.600   2.280  1.17452E+00  9.97720E-01  1.76800E-01
    9009.710     12.301   2.320  1.11739E+00  9.99530E-01  1.17855E-01
    9010.423     13.014   2.360  1.05664E+00  1.00107E+00  5.55757E-02
    9011.149     13.739   2.400  1.01500E+00  1.00240E+00  1.25951E-02
    9011.886     14.477   2.440  1.00148E+00  1.00350E+00 -2.02573E-03
    9012.636     15.227   2.480  1.01104E+00  1.00440E+00  6.64833E-03
    9013.398     15.989   2.520  1.02784E+00  1.00511E+00  2.27351E-02
    9014.172     16.763   2.560  1.03686E+00  1.00562E+00  3.12355E-02
    9014.959     17.549   2.600  1.03753E+00  1.00600E+00  3.15331E-02
    9015.757     18.348   2.640  1.03228E+00  1.00621E+00  2.60709E-02
    9016.568     19.159   2.680  1.02476E+00  1.00630E+00  1.84667E-02
    9017.391     19.982   2.720  1.01732E+00  1.00625E+00  1.10635E-02
    9018.226     20.817   2.760  1.01058E+00  1.00609E+00  4.48538E-03
    9019.073     21.664   2.800  1.00345E+00  1.00584E+00 -2.38659E-03
    9019.933     22.524   2.840  9.94531E-01  1.00550E+00 -1.09697E-02
    9020.805     23.395   2.880  9.82854E-01  1.00510E+00 -2.22490E-02
    9021.688     24.279   2.920  9.67977E-01  1.00461E+00 -3.66325E-02
    9022.585     25.175   2.960  9.50351E-01  1.00409E+00 -5.37364E-02
    9023.493     26.084   3.000  9.31489E-01  1.00350E+00 -7.20109E-02
    9024.413     27.004   3.040  9.13787E-01  1.00289E+00 -8.91063E-02
    9025.346     27.937   3.080  8.99364E-01  1.00225E+00 -1.02889E-01
    9026.291     28.882   3.120  8.89378E-01  1.00160E+00 -1.12222E-01
    9027.248     29.839   3.160  8.83764E-01  1.00092E+00 -1.17155E-01
    9028.217     30.808   3.200  8.81755E-01  1.00026E+00 -1.18502E-01
    9029.199     31.789   3.240  8.82734E-01  9.99594E-01 -1.16860E-01
    9030.192     32.783   3.280  8.86309E-01  9.98913E-01 -1.12604E-01
    9031.198     33.789   3.320  8.92251E-01  9.98278E-01 -1.06027E-01
    9032.216     34.807   3.360  9.00045E-01  9.97631E-01 -9.75863E-02
    9033.246     35.837   3.400  9.08883E-01  9.97034E-01 -8.81514E-02
    9034.289     36.880   3.440  9.17384E-01  9.96451E-01 -7.90667E-02
    9035.343     37.934   3.480  9.24541E-01  9.95902E-01 -7.13611E-02
    9036.410     39.001   3.520  9.29995E-01  9.95368E-01 -6.53726E-02
    9037.489     40.080   3.560  9.34248E-01  9.94893E-01 -6.06447E-02
    9038.580     41.171   3.600  9.38205E-01  9.94458E-01 -5.62521E-02
    9039.684     42.275   3.640  9.43070E-01  9.94061E-01 -5.09908E-02
    9040.799     43.390   3.680  9.49703E-01  9.93684E-01 -4.39810E-02
    9041.927     44.518   3.720  9.58338E-01  9.93370E-01 -3.50327E-02
    9043.067     45.658   3.760  9.68585E-01  9.93120E-01 -2.45350E-02
    9044.219     46.810   3.800  9.79656E-01  9.92891E-01 -1.32352E-02
    9045.384     47.974   3.840  9.90454E-01  9.92704E-01 -2.25032E-03
    9046.560     49.151   3.880  9.99727E-01  9.92581E-01  7.14552E-03
    9047.749     50.340   3.920  1.00647E+00  9.92502E-01  1.39626E-02
    9048.950     51.540   3.960  1.01040E+00  9.92465E-01  1.79330E-02
    9050.163     52.754   4.000  1.01223E+00  9.92468E-01  1.97670E-02
    9051.388     53.979   4.040  1.01322E+00  9.92513E-01  2.07082E-02
    9052.626     55.216   4.080  1.01439E+00  9.92621E-01  2.17657E-02
    9053.875     56.466   4.120  1.01587E+00  9.92746E-01  2.31262E-02
    9055.137     57.728   4.160  1.01728E+00  9.92910E-01  2.43676E-02
    9056.411     59.002   4.200  1.01828E+00  9.93115E-01  2.51690E-02
    9057.697     60.288   4.240  1.01921E+00  9.93378E-01  2.58319E-02
    9058.996     61.587   4.280  1.02074E+00  9.93655E-01  2.70809E-02
    9060.306     62.897   4.320  1.02364E+00  9.93947E-01  2.96957E-02
    9061.629     64.220   4.360  1.02843E+00  9.94293E-01  3.41407E-02
    9062.964     65.555   4.400  1.03487E+00  9.94652E-01  4.02191E-02
    9064.312     66.902   4.440  1.04217E+00  9.95043E-01  4.71257E-02
    9065.671     68.262   4.480  1.04917E+00  9.95443E-01  5.37262E-02
    9067.043     69.633   4.520  1.05496E+00  9.95873E-01  5.90851E-02
    9068.426     71.017   4.560  1.05930E+00  9.96308E-01  6.29912E-02
    9069.822     72.413   4.600  1.06277E+00  9.96771E-01  6.60021E-02
    9071.230     73.821   4.640  1.06609E+00  9.97215E-01  6.88729E-02
    9072.651     75.242   4.680  1.06954E+00  9.97682E-01  7.18543E-02
    9074.083     76.674   4.720  1.07255E+00  9.98151E-01  7.44020E-02
    9075.528     78.119   4.760  1.07398E+00  9.98619E-01  7.53594E-02
    9076.985     79.576   4.800  1.07263E+00  9.99086E-01  7.35428E-02
    9078.454     81.045   4.840  1.06774E+00  9.99549E-01  6.81903E-02
    9079.936     82.526   4.880  1.05913E+00  9.99986E-01  5.91470E-02
    9081.429     84.020   4.920  1.04725E+00  1.00044E+00  4.68075E-02
    9082.935     85.525   4.960  1.03278E+00  1.00086E+00  3.19133E-02
    9084.453     87.043   5.000  1.01675E+00  1.00125E+00  1.54936E-02
    9085.983     88.573   5.040  1.00052E+00  1.00164E+00 -1.11674E-03
    9087.525     90.116   5.080  9.85424E-01  1.00201E+00 -1.65866E-02
    9089.079     91.670   5.120  9.72539E-01  1.00235E+00 -2.98118E-02
    9090.646     93.237   5.160  9.62614E-01  1.00266E+00 -4.00439E-02
    9092.225     94.816   5.200  9.56330E-01  1.00295E+00 -4.66207E-02
    9093.816     96.407   5.240  9.54221E-01  1.00321E+00 -4.89885E-02
    9095.419     98.010   5.280  9.56508E-01  1.00345E+00 -4.69465E-02
    9097.035     99.625   5.320  9.62734E-01  1.00364E+00 -4.09043E-02
    9098.662    101.253   5.360  9.71946E-01  1.00381E+00 -3.18597E-02
    9100.302    102.893   5.400  9.82735E-01  1.00394E+00 -2.12026E-02
    9101.954    104.545   5.440  9.93366E-01  1.00403E+00 -1.06624E-02
    9103.618    106.209   5.480  1.00180E+00  1.00408E+00 -2.28400E-03
    9105.295    107.886   5.520  1.00603E+00  1.00409E+00  1.93804E-03
    9106.983    109.574   5.560  1.00495E+00  1.00406E+00  8.83688E-04
    9108.684    111.275   5.600  9.98769E-01  1.00402E+00 -5.25060E-03
    9110.397    112.988   5.640  9.88689E-01  1.00392E+00 -1.52272E-02
    9112.122    114.713   5.680  9.76302E-01  1.00379E+00 -2.74917E-02
    9113.860    116.450   5.720  9.62919E-01  1.00361E+00 -4.06907E-02
    9115.609    118.200   5.760  9.49772E-01  1.00341E+00 -5.36385E-02
    9117.371    119.962   5.800  9.38085E-01  1.00318E+00 -6.50912E-02
    9119.145    121.736   5.840  9.29158E-01  1.00290E+00 -7.37447E-02
    9120.931    123.522   5.880  9.24096E-01  1.00259E+00 -7.84987E-02
    9122.729    125.320   5.920  9.23420E-01  1.00225E+00 -7.88310E-02
    9124.540    127.131   5.960  9.27044E-01  1.00187E+00 -7.48295E-02
    9126.362    128.953   6.000  9.34892E-01  1.00147E+00 -6.65738E-02
