# # comment:                                                     FEFF 9.9.1  
# # Source:
# # Structure
# # Reduced
# # space
# # abc:
# # angles:
# # sites:
# # POT  SCF 100  7.0000   0, screened core-hole, AFOLP (folp(0)= 1.150)
# # Abs   Z=29 Rmt= 1.428 Rnm= 1.477 K  shell
# # Pot 1 Z= 3 Rmt= 1.234 Rnm= 1.297
# # Pot 2 Z=29 Rmt= 1.387 Rnm= 1.445
# # Pot 3 Z= 6 Rmt= 0.711 Rnm= 0.926
# # Pot 4 Z= 8 Rmt= 0.836 Rnm= 1.004
# # Gam_ch=1.729E+00 H-L exch Vi= 0.000E+00 Vr= 0.000E+00
# # Mu=-7.874E+00eV kf=2.668E+00 Vint=-1.897E+01eV Rs_int= 1.359
# FMS rfms= 9.0000
# # PATH  Rmax=-1.000,  Keep_limit= 0.00, Heap_limit 0.00  Pwcrit= 2.50%
#  S02=0.950  Temp=   0.00  Debye_temp=   0.00  Global_sig2= 0.00000
#  Energy zero shift, vr, vi    0.00000E+00   0.00000E+00
#  Curved wave amplitude ratio filter   4.000%
#     file         sig2 tot  cw amp ratio   deg  nlegs   reff  inp sig2
#     0/   0 paths used
#  xsedge+ 50, used to normalize mu           2.4371E-04
#  -----------------------------------------------------------------------
#  omega    e    k    mu    mu0     chi     @#
    8983.388    -11.684  -1.000  4.62634E-02  4.98538E-02 -3.59044E-03
    8983.686    -11.385  -0.960  4.90231E-02  5.32791E-02 -4.25602E-03
    8983.973    -11.099  -0.920  5.20252E-02  5.70711E-02 -5.04590E-03
    8984.247    -10.824  -0.880  5.52997E-02  6.12831E-02 -5.98345E-03
    8984.509    -10.562  -0.840  5.88806E-02  6.59769E-02 -7.09631E-03
    8984.759    -10.312  -0.800  6.28071E-02  7.12241E-02 -8.41697E-03
    8984.997    -10.074  -0.760  6.71237E-02  7.71070E-02 -9.98325E-03
    8985.222     -9.849  -0.720  7.18799E-02  8.37183E-02 -1.18384E-02
    8985.436     -9.636  -0.680  7.71294E-02  9.11603E-02 -1.40309E-02
    8985.637     -9.434  -0.640  8.29281E-02  9.95406E-02 -1.66125E-02
    8985.826     -9.245  -0.600  8.93293E-02  1.08965E-01 -1.96356E-02
    8986.003     -9.069  -0.560  9.63761E-02  1.19523E-01 -2.31471E-02
    8986.167     -8.904  -0.520  1.04089E-01  1.31268E-01 -2.71790E-02
    8986.320     -8.752  -0.480  1.12450E-01  1.44187E-01 -3.17364E-02
    8986.460     -8.611  -0.440  1.21383E-01  1.58165E-01 -3.67820E-02
    8986.588     -8.483  -0.400  1.30738E-01  1.72962E-01 -4.22240E-02
    8986.704     -8.368  -0.360  1.40287E-01  1.88198E-01 -4.79108E-02
    8986.807     -8.264  -0.320  1.49740E-01  2.03382E-01 -5.36415E-02
    8986.899     -8.172  -0.280  1.58776E-01  2.17966E-01 -5.91894E-02
    8986.978     -8.093  -0.240  1.67090E-01  2.31425E-01 -6.43347E-02
    8987.045     -8.026  -0.200  1.74427E-01  2.43319E-01 -6.88921E-02
    8987.100     -7.971  -0.160  1.80599E-01  2.53325E-01 -7.27258E-02
    8987.143     -7.929  -0.120  1.85485E-01  2.61235E-01 -7.57499E-02
    8987.173     -7.898  -0.080  1.89015E-01  2.66935E-01 -7.79195E-02
    8987.198     -7.874   0.000  1.91865E-01  2.71515E-01 -7.96502E-02
    8987.252     -7.819   0.120  1.98159E-01  2.81846E-01 -8.36860E-02
    8987.295     -7.776   0.160  2.03077E-01  2.89868E-01 -8.67912E-02
    8987.350     -7.721   0.200  2.09407E-01  3.00142E-01 -9.07351E-02
    8987.417     -7.654   0.240  2.17073E-01  3.12489E-01 -9.54160E-02
    8987.496     -7.575   0.280  2.26025E-01  3.26685E-01 -1.00660E-01
    8987.588     -7.484   0.320  2.36155E-01  3.42355E-01 -1.06200E-01
    8987.691     -7.380   0.360  2.47427E-01  3.59100E-01 -1.11672E-01
    8987.807     -7.264   0.400  2.59804E-01  3.76432E-01 -1.16628E-01
    8987.935     -7.136   0.440  2.73301E-01  3.93905E-01 -1.20605E-01
    8988.075     -6.996   0.480  2.88094E-01  4.11233E-01 -1.23139E-01
    8988.228     -6.844   0.520  3.04272E-01  4.28170E-01 -1.23898E-01
    8988.392     -6.679   0.560  3.21922E-01  4.44665E-01 -1.22744E-01
    8988.569     -6.502   0.600  3.40967E-01  4.60679E-01 -1.19712E-01
    8988.758     -6.313   0.640  3.61312E-01  4.76288E-01 -1.14977E-01
    8988.959     -6.112   0.680  3.82957E-01  4.91581E-01 -1.08624E-01
    8989.173     -5.899   0.720  4.06084E-01  5.06656E-01 -1.00572E-01
    8989.398     -5.673   0.760  4.30819E-01  5.21592E-01 -9.07737E-02
    8989.636     -5.435   0.800  4.56715E-01  5.36501E-01 -7.97865E-02
    8989.886     -5.185   0.840  4.82218E-01  5.51423E-01 -6.92049E-02
    8990.148     -4.923   0.880  5.05295E-01  5.66468E-01 -6.11729E-02
    8990.422     -4.649   0.920  5.24360E-01  5.81674E-01 -5.73140E-02
    8990.709     -4.363   0.960  5.39653E-01  5.97066E-01 -5.74138E-02
    8991.008     -4.064   1.000  5.53643E-01  6.12685E-01 -5.90423E-02
    8991.318     -3.753   1.040  5.69785E-01  6.28538E-01 -5.87528E-02
    8991.642     -3.430   1.080  5.91489E-01  6.44647E-01 -5.31583E-02
    8991.977     -3.095   1.120  6.22098E-01  6.61028E-01 -3.89304E-02
    8992.324     -2.747   1.160  6.63986E-01  6.77670E-01 -1.36839E-02
    8992.684     -2.387   1.200  7.16513E-01  6.94536E-01  2.19764E-02
    8993.056     -2.016   1.240  7.76089E-01  7.11646E-01  6.44425E-02
    8993.440     -1.632   1.280  8.39346E-01  7.28954E-01  1.10392E-01
    8993.836     -1.235   1.320  9.05036E-01  7.46410E-01  1.58626E-01
    8994.245     -0.827   1.360  9.71706E-01  7.64023E-01  2.07682E-01
    8994.665     -0.406   1.400  1.03636E+00  7.81736E-01  2.54623E-01
    8995.098      0.027   1.440  1.09494E+00  7.99509E-01  2.95426E-01
    8995.543      0.472   1.480  1.14404E+00  8.17281E-01  3.26759E-01
    8996.000      0.929   1.520  1.18270E+00  8.34985E-01  3.47717E-01
    8996.470      1.398   1.560  1.20963E+00  8.52597E-01  3.57031E-01
    8996.951      1.880   1.600  1.22427E+00  8.70048E-01  3.54222E-01
    8997.445      2.374   1.640  1.22644E+00  8.87246E-01  3.39193E-01
    8997.951      2.880   1.680  1.21234E+00  9.04162E-01  3.08179E-01
    8998.469      3.398   1.720  1.18365E+00  9.20743E-01  2.62912E-01
    8998.999      3.928   1.760  1.15569E+00  9.36876E-01  2.18812E-01
    8999.542      4.471   1.800  1.13978E+00  9.52532E-01  1.87253E-01
    9000.097      5.025   1.840  1.13024E+00  9.67637E-01  1.62603E-01
    9000.664      5.592   1.880  1.11519E+00  9.82121E-01  1.33067E-01
    9001.243      6.171   1.920  1.08950E+00  9.95956E-01  9.35407E-02
    9001.834      6.763   1.960  1.06006E+00  1.00906E+00  5.10051E-02
    9002.437      7.366   2.000  1.03787E+00  1.02139E+00  1.64730E-02
    9003.053      7.982   2.040  1.02910E+00  1.03293E+00 -3.83303E-03
    9003.681      8.610   2.080  1.03210E+00  1.04361E+00 -1.15035E-02
    9004.321      9.250   2.120  1.04639E+00  1.05339E+00 -6.99462E-03
    9004.973      9.902   2.160  1.07193E+00  1.06228E+00  9.65068E-03
    9005.638     10.567   2.200  1.09868E+00  1.07026E+00  2.84264E-02
    9006.315     11.243   2.240  1.11316E+00  1.07729E+00  3.58716E-02
    9007.003     11.932   2.280  1.10558E+00  1.08341E+00  2.21774E-02
    9007.704     12.633   2.320  1.07717E+00  1.08861E+00 -1.14406E-02
    9008.418     13.346   2.360  1.04191E+00  1.09288E+00 -5.09660E-02
    9009.143     14.072   2.400  1.01008E+00  1.09627E+00 -8.61889E-02
    9009.881     14.809   2.440  9.81279E-01  1.09879E+00 -1.17511E-01
    9010.630     15.559   2.480  9.52968E-01  1.10048E+00 -1.47515E-01
    9011.392     16.321   2.520  9.27579E-01  1.10139E+00 -1.73808E-01
    9012.167     17.095   2.560  9.12669E-01  1.10152E+00 -1.88850E-01
    9012.953     17.882   2.600  9.14086E-01  1.10095E+00 -1.86860E-01
    9013.752     18.680   2.640  9.29946E-01  1.09973E+00 -1.69786E-01
    9014.562     19.491   2.680  9.53744E-01  1.09788E+00 -1.44137E-01
    9015.385     20.314   2.720  9.79255E-01  1.09548E+00 -1.16225E-01
    9016.220     21.149   2.760  1.00080E+00  1.09258E+00 -9.17775E-02
    9017.068     21.996   2.800  1.01552E+00  1.08920E+00 -7.36752E-02
    9017.927     22.856   2.840  1.02449E+00  1.08543E+00 -6.09437E-02
    9018.799     23.728   2.880  1.02811E+00  1.08133E+00 -5.32191E-02
    9019.683     24.612   2.920  1.02536E+00  1.07690E+00 -5.15430E-02
    9020.579     25.508   2.960  1.01984E+00  1.07223E+00 -5.23904E-02
    9021.487     26.416   3.000  1.01888E+00  1.06738E+00 -4.84971E-02
    9022.408     27.337   3.040  1.02744E+00  1.06236E+00 -3.49137E-02
    9023.341     28.269   3.080  1.04121E+00  1.05722E+00 -1.60098E-02
    9024.285     29.214   3.120  1.05514E+00  1.05201E+00  3.12695E-03
    9025.243     30.171   3.160  1.06838E+00  1.04677E+00  2.16045E-02
    9026.212     31.140   3.200  1.08022E+00  1.04155E+00  3.86771E-02
    9027.193     32.122   3.240  1.08982E+00  1.03635E+00  5.34649E-02
    9028.187     33.116   3.280  1.09611E+00  1.03120E+00  6.49059E-02
    9029.193     34.121   3.320  1.09789E+00  1.02617E+00  7.17182E-02
    9030.211     35.139   3.360  1.09449E+00  1.02126E+00  7.32239E-02
    9031.241     36.170   3.400  1.08610E+00  1.01649E+00  6.96171E-02
    9032.283     37.212   3.440  1.07385E+00  1.01189E+00  6.19614E-02
    9033.338     38.267   3.480  1.05968E+00  1.00747E+00  5.22153E-02
    9034.405     39.333   3.520  1.04553E+00  1.00325E+00  4.22722E-02
    9035.484     40.412   3.560  1.03283E+00  9.99266E-01  3.35657E-02
    9036.575     41.504   3.600  1.02238E+00  9.95499E-01  2.68779E-02
    9037.678     42.607   3.640  1.01441E+00  9.91978E-01  2.24304E-02
    9038.794     43.723   3.680  1.00880E+00  9.88695E-01  2.01072E-02
    9039.922     44.850   3.720  1.00527E+00  9.85660E-01  1.96061E-02
    9041.062     45.990   3.760  1.00343E+00  9.82905E-01  2.05291E-02
    9042.214     47.142   3.800  1.00280E+00  9.80406E-01  2.23927E-02
    9043.378     48.307   3.840  1.00288E+00  9.78185E-01  2.46915E-02
    9044.555     49.483   3.880  1.00310E+00  9.76224E-01  2.68792E-02
    9045.743     50.672   3.920  1.00293E+00  9.74561E-01  2.83697E-02
    9046.944     51.873   3.960  1.00176E+00  9.73136E-01  2.86242E-02
    9048.157     53.086   4.000  9.99338E-01  9.72012E-01  2.73264E-02
    9049.383     54.311   4.040  9.95673E-01  9.71143E-01  2.45306E-02
    9050.620     55.549   4.080  9.90981E-01  9.70527E-01  2.04543E-02
    9051.870     56.798   4.120  9.85557E-01  9.70184E-01  1.53727E-02
    9053.132     58.060   4.160  9.79634E-01  9.70090E-01  9.54477E-03
    9054.406     59.334   4.200  9.73418E-01  9.70219E-01  3.19929E-03
    9055.692     60.621   4.240  9.67196E-01  9.70611E-01 -3.41527E-03
    9056.990     61.919   4.280  9.61239E-01  9.71220E-01 -9.98070E-03
    9058.301     63.230   4.320  9.55916E-01  9.72062E-01 -1.61461E-02
    9059.624     64.552   4.360  9.51538E-01  9.73088E-01 -2.15505E-02
    9060.959     65.887   4.400  9.48500E-01  9.74337E-01 -2.58372E-02
    9062.306     67.235   4.440  9.46962E-01  9.75739E-01 -2.87767E-02
    9063.665     68.594   4.480  9.46997E-01  9.77351E-01 -3.03539E-02
    9065.037     69.966   4.520  9.48346E-01  9.79104E-01 -3.07580E-02
    9066.421     71.349   4.560  9.50666E-01  9.80988E-01 -3.03223E-02
    9067.817     72.745   4.600  9.53610E-01  9.83019E-01 -2.94090E-02
    9069.225     74.154   4.640  9.56886E-01  9.85148E-01 -2.82622E-02
    9070.645     75.574   4.680  9.60435E-01  9.87387E-01 -2.69526E-02
    9072.078     77.007   4.720  9.64268E-01  9.89708E-01 -2.54398E-02
    9073.523     78.451   4.760  9.68439E-01  9.92080E-01 -2.36408E-02
    9074.980     79.908   4.800  9.72942E-01  9.94497E-01 -2.15553E-02
    9076.449     81.377   4.840  9.77673E-01  9.96971E-01 -1.92977E-02
    9077.930     82.859   4.880  9.82414E-01  9.99431E-01 -1.70173E-02
    9079.424     84.352   4.920  9.87103E-01  1.00191E+00 -1.48093E-02
    9080.929     85.858   4.960  9.91688E-01  1.00436E+00 -1.26720E-02
    9082.447     87.376   5.000  9.96229E-01  1.00677E+00 -1.05395E-02
    9083.977     88.906   5.040  1.00078E+00  1.00913E+00 -8.34516E-03
    9085.520     90.448   5.080  1.00536E+00  1.01141E+00 -6.05849E-03
    9087.074     92.003   5.120  1.00992E+00  1.01361E+00 -3.69374E-03
    9088.641     93.569   5.160  1.01442E+00  1.01570E+00 -1.28155E-03
    9090.220     95.148   5.200  1.01883E+00  1.01769E+00  1.14263E-03
    9091.811     96.739   5.240  1.02307E+00  1.01953E+00  3.54521E-03
    9093.414     98.342   5.280  1.02716E+00  1.02124E+00  5.91867E-03
    9095.029     99.958   5.320  1.03112E+00  1.02281E+00  8.30994E-03
    9096.657    101.586   5.360  1.03503E+00  1.02423E+00  1.07986E-02
    9098.297    103.225   5.400  1.03884E+00  1.02545E+00  1.33847E-02
    9099.949    104.877   5.440  1.04240E+00  1.02651E+00  1.58899E-02
    9101.613    106.542   5.480  1.04535E+00  1.02739E+00  1.79549E-02
    9103.289    108.218   5.520  1.04728E+00  1.02811E+00  1.91732E-02
    9104.978    109.907   5.560  1.04794E+00  1.02863E+00  1.93127E-02
    9106.679    111.607   5.600  1.04744E+00  1.02895E+00  1.84934E-02
    9108.392    113.320   5.640  1.04628E+00  1.02910E+00  1.71793E-02
    9110.117    115.045   5.680  1.04500E+00  1.02905E+00  1.59531E-02
    9111.854    116.783   5.720  1.04408E+00  1.02883E+00  1.52440E-02
    9113.604    118.532   5.760  1.04363E+00  1.02845E+00  1.51807E-02
    9115.365    120.294   5.800  1.04354E+00  1.02788E+00  1.56622E-02
    9117.139    122.068   5.840  1.04370E+00  1.02718E+00  1.65245E-02
    9118.925    123.854   5.880  1.04392E+00  1.02629E+00  1.76299E-02
    9120.724    125.652   5.920  1.04411E+00  1.02528E+00  1.88288E-02
    9122.534    127.463   5.960  1.04397E+00  1.02415E+00  1.98186E-02
    9124.357    129.286   6.000  1.04281E+00  1.02280E+00  2.00114E-02
