# # comment:                                                     FEFF 9.9.1  
# # Source:
# # Structure
# # Reduced
# # space
# # abc:
# # angles:
# # sites:
# # POT  SCF 100  7.0000   0, screened core-hole, AFOLP (folp(0)= 1.150)
# # Abs   Z=29 Rmt= 1.225 Rnm= 1.306 K  shell
# # Pot 1 Z=39 Rmt= 1.678 Rnm= 1.723
# # Pot 2 Z=25 Rmt= 1.274 Rnm= 1.385
# # Pot 3 Z=29 Rmt= 1.183 Rnm= 1.279
# # Pot 4 Z= 8 Rmt= 1.019 Rnm= 1.096
# # Gam_ch=1.729E+00 H-L exch Vi= 0.000E+00 Vr= 0.000E+00
# # Mu=-1.006E+01eV kf=2.186E+00 Vint=-1.824E+01eV Rs_int= 1.659
# FMS rfms= 9.0000
# # PATH  Rmax=-1.000,  Keep_limit= 0.00, Heap_limit 0.00  Pwcrit= 2.50%
#  S02=0.950  Temp=   0.00  Debye_temp=   0.00  Global_sig2= 0.00000
#  Energy zero shift, vr, vi    0.00000E+00   0.00000E+00
#  Curved wave amplitude ratio filter   4.000%
#     file         sig2 tot  cw amp ratio   deg  nlegs   reff  inp sig2
#     0/   0 paths used
#  xsedge+ 50, used to normalize mu           2.4833E-04
#  -----------------------------------------------------------------------
#  omega    e    k    mu    mu0     chi     @#
    8984.462    -13.869  -1.000  3.46953E-02  5.02762E-02 -1.55810E-02
    8984.761    -13.570  -0.960  3.63513E-02  5.38223E-02 -1.74711E-02
    8985.048    -13.283  -0.920  3.81137E-02  5.77540E-02 -1.96404E-02
    8985.322    -13.009  -0.880  3.99920E-02  6.21273E-02 -2.21353E-02
    8985.584    -12.747  -0.840  4.19970E-02  6.70072E-02 -2.50102E-02
    8985.834    -12.497  -0.800  4.41409E-02  7.24693E-02 -2.83284E-02
    8986.072    -12.259  -0.760  4.64372E-02  7.85999E-02 -3.21627E-02
    8986.297    -12.034  -0.720  4.89009E-02  8.54966E-02 -3.65956E-02
    8986.511    -11.820  -0.680  5.15480E-02  9.32666E-02 -4.17186E-02
    8986.712    -11.619  -0.640  5.43945E-02  1.02023E-01 -4.76286E-02
    8986.901    -11.430  -0.600  5.74550E-02  1.11877E-01 -5.44218E-02
    8987.078    -11.253  -0.560  6.07394E-02  1.22922E-01 -6.21827E-02
    8987.242    -11.089  -0.520  6.42485E-02  1.35214E-01 -7.09660E-02
    8987.395    -10.936  -0.480  6.79673E-02  1.48740E-01 -8.07727E-02
    8987.535    -10.796  -0.440  7.18580E-02  1.63380E-01 -9.15224E-02
    8987.663    -10.668  -0.400  7.58544E-02  1.78883E-01 -1.03029E-01
    8987.779    -10.552  -0.360  7.98609E-02  1.94851E-01 -1.14990E-01
    8987.882    -10.449  -0.320  8.37607E-02  2.10769E-01 -1.27008E-01
    8987.974    -10.357  -0.280  8.74305E-02  2.26065E-01 -1.38634E-01
    8988.053    -10.278  -0.240  9.07587E-02  2.40187E-01 -1.49428E-01
    8988.120    -10.211  -0.200  9.36591E-02  2.52672E-01 -1.59013E-01
    8988.175    -10.156  -0.160  9.60744E-02  2.63180E-01 -1.67105E-01
    8988.218    -10.113  -0.120  9.79718E-02  2.71490E-01 -1.73519E-01
    8988.248    -10.083  -0.080  9.93341E-02  2.77481E-01 -1.78147E-01
    8988.272    -10.059   0.000  1.00427E-01  2.82296E-01 -1.81869E-01
    8988.327    -10.004   0.120  1.02955E-01  2.93159E-01 -1.90204E-01
    8988.370     -9.961   0.160  1.04883E-01  3.01613E-01 -1.96730E-01
    8988.425     -9.906   0.200  1.07344E-01  3.12418E-01 -2.05074E-01
    8988.492     -9.839   0.240  1.10303E-01  3.25416E-01 -2.15113E-01
    8988.571     -9.760   0.280  1.13777E-01  3.40404E-01 -2.26627E-01
    8988.663     -9.668   0.320  1.17745E-01  3.56960E-01 -2.39215E-01
    8988.766     -9.565   0.360  1.22289E-01  3.74673E-01 -2.52384E-01
    8988.882     -9.449   0.400  1.27577E-01  3.93042E-01 -2.65465E-01
    8989.010     -9.321   0.440  1.33812E-01  4.11627E-01 -2.77815E-01
    8989.150     -9.181   0.480  1.41271E-01  4.30069E-01 -2.88798E-01
    8989.303     -9.028   0.520  1.50169E-01  4.48149E-01 -2.97980E-01
    8989.467     -8.864   0.560  1.60541E-01  4.65770E-01 -3.05229E-01
    8989.644     -8.687   0.600  1.72061E-01  4.82884E-01 -3.10823E-01
    8989.833     -8.498   0.640  1.84214E-01  4.99580E-01 -3.15366E-01
    8990.034     -8.297   0.680  1.96422E-01  5.15877E-01 -3.19455E-01
    8990.247     -8.083   0.720  2.08493E-01  5.31867E-01 -3.23374E-01
    8990.473     -7.858   0.760  2.20705E-01  5.47619E-01 -3.26914E-01
    8990.711     -7.620   0.800  2.33915E-01  5.63235E-01 -3.29320E-01
    8990.961     -7.370   0.840  2.49565E-01  5.78726E-01 -3.29162E-01
    8991.223     -7.108   0.880  2.70398E-01  5.94149E-01 -3.23751E-01
    8991.497     -6.834   0.920  3.00250E-01  6.09549E-01 -3.09299E-01
    8991.784     -6.547   0.960  3.40854E-01  6.24901E-01 -2.84047E-01
    8992.082     -6.249   1.000  3.87684E-01  6.40232E-01 -2.52548E-01
    8992.393     -5.938   1.040  4.33981E-01  6.55559E-01 -2.21578E-01
    8992.716     -5.615   1.080  4.85622E-01  6.70834E-01 -1.85212E-01
    8993.052     -5.279   1.120  5.62827E-01  6.86061E-01 -1.23234E-01
    8993.399     -4.932   1.160  6.79126E-01  7.01221E-01 -2.20950E-02
    8993.759     -4.572   1.200  8.14661E-01  7.16270E-01  9.83910E-02
    8994.131     -4.200   1.240  9.01408E-01  7.31183E-01  1.70225E-01
    8994.515     -3.816   1.280  8.70841E-01  7.45952E-01  1.24889E-01
    8994.911     -3.420   1.320  7.48512E-01  7.60525E-01 -1.20128E-02
    8995.319     -3.012   1.360  6.29344E-01  7.74892E-01 -1.45549E-01
    8995.740     -2.591   1.400  5.68083E-01  7.88981E-01 -2.20898E-01
    8996.173     -2.158   1.440  5.64875E-01  8.02778E-01 -2.37903E-01
    8996.618     -1.713   1.480  5.99799E-01  8.16272E-01 -2.16473E-01
    8997.075     -1.256   1.520  6.51627E-01  8.29390E-01 -1.77763E-01
    8997.544     -0.787   1.560  7.06036E-01  8.42159E-01 -1.36123E-01
    8998.026     -0.305   1.600  7.65226E-01  8.54510E-01 -8.92842E-02
    8998.520      0.189   1.640  8.31521E-01  8.66433E-01 -3.49117E-02
    8999.026      0.695   1.680  8.80229E-01  8.77919E-01  2.31031E-03
    8999.544      1.213   1.720  8.93603E-01  8.88920E-01  4.68250E-03
    9000.074      1.743   1.760  9.02613E-01  8.99470E-01  3.14290E-03
    9000.617      2.286   1.800  9.26659E-01  9.09502E-01  1.71570E-02
    9001.171      2.841   1.840  9.45854E-01  9.19056E-01  2.67985E-02
    9001.738      3.407   1.880  9.49976E-01  9.28085E-01  2.18904E-02
    9002.318      3.987   1.920  9.67686E-01  9.36611E-01  3.10750E-02
    9002.909      4.578   1.960  1.02938E+00  9.44613E-01  8.47630E-02
    9003.512      5.181   2.000  1.10988E+00  9.52112E-01  1.57770E-01
    9004.128      5.797   2.040  1.15296E+00  9.59112E-01  1.93850E-01
    9004.756      6.425   2.080  1.17134E+00  9.65596E-01  2.05741E-01
    9005.396      7.065   2.120  1.20693E+00  9.71607E-01  2.35323E-01
    9006.048      7.717   2.160  1.26316E+00  9.77133E-01  2.86028E-01
    9006.713      8.382   2.200  1.33205E+00  9.82179E-01  3.49875E-01
    9007.389      9.058   2.240  1.37235E+00  9.86771E-01  3.85574E-01
    9008.078      9.747   2.280  1.34523E+00  9.90920E-01  3.54314E-01
    9008.779     10.448   2.320  1.29203E+00  9.94651E-01  2.97374E-01
    9009.492     11.162   2.360  1.25756E+00  9.97976E-01  2.59583E-01
    9010.218     11.887   2.400  1.23332E+00  1.00092E+00  2.32395E-01
    9010.956     12.625   2.440  1.19835E+00  1.00348E+00  1.94872E-01
    9011.705     13.374   2.480  1.15667E+00  1.00570E+00  1.50976E-01
    9012.467     14.136   2.520  1.12342E+00  1.00759E+00  1.15835E-01
    9013.242     14.911   2.560  1.10335E+00  1.00915E+00  9.41911E-02
    9014.028     15.697   2.600  1.08933E+00  1.01041E+00  7.89168E-02
    9014.826     16.496   2.640  1.07019E+00  1.01141E+00  5.87839E-02
    9015.637     17.306   2.680  1.04208E+00  1.01216E+00  2.99198E-02
    9016.460     18.129   2.720  1.01222E+00  1.01266E+00 -4.41529E-04
    9017.295     18.964   2.760  9.88413E-01  1.01296E+00 -2.45427E-02
    9018.143     19.812   2.800  9.73280E-01  1.01303E+00 -3.97466E-02
    9019.002     20.671   2.840  9.65301E-01  1.01292E+00 -4.76224E-02
    9019.874     21.543   2.880  9.59789E-01  1.01267E+00 -5.28854E-02
    9020.758     22.427   2.920  9.52223E-01  1.01225E+00 -6.00261E-02
    9021.654     23.323   2.960  9.40559E-01  1.01169E+00 -7.11345E-02
    9022.562     24.231   3.000  9.24828E-01  1.01102E+00 -8.61894E-02
    9023.483     25.152   3.040  9.06514E-01  1.01025E+00 -1.03733E-01
    9024.415     26.085   3.080  8.88355E-01  1.00939E+00 -1.21035E-01
    9025.360     27.029   3.120  8.73362E-01  1.00843E+00 -1.35068E-01
    9026.317     27.986   3.160  8.63218E-01  1.00742E+00 -1.44197E-01
    9027.287     28.956   3.200  8.58171E-01  1.00635E+00 -1.48183E-01
    9028.268     29.937   3.240  8.57374E-01  1.00523E+00 -1.47854E-01
    9029.262     30.931   3.280  8.59233E-01  1.00408E+00 -1.44851E-01
    9030.268     31.937   3.320  8.62586E-01  1.00293E+00 -1.40343E-01
    9031.286     32.955   3.360  8.67154E-01  1.00175E+00 -1.34591E-01
    9032.316     33.985   3.400  8.72938E-01  1.00053E+00 -1.27596E-01
    9033.358     35.027   3.440  8.79744E-01  9.99346E-01 -1.19601E-01
    9034.413     36.082   3.480  8.87384E-01  9.98182E-01 -1.10797E-01
    9035.480     37.149   3.520  8.95730E-01  9.97003E-01 -1.01273E-01
    9036.559     38.228   3.560  9.04897E-01  9.95876E-01 -9.09791E-02
    9037.650     39.319   3.600  9.15312E-01  9.94760E-01 -7.94479E-02
    9038.753     40.422   3.640  9.27686E-01  9.93658E-01 -6.59727E-02
    9039.869     41.538   3.680  9.42679E-01  9.92615E-01 -4.99364E-02
    9040.996     42.666   3.720  9.60264E-01  9.91613E-01 -3.13487E-02
    9042.136     43.806   3.760  9.79493E-01  9.90652E-01 -1.11583E-02
    9043.289     44.958   3.800  9.98221E-01  9.89733E-01  8.48786E-03
    9044.453     46.122   3.840  1.01376E+00  9.88857E-01  2.49019E-02
    9045.629     47.299   3.880  1.02418E+00  9.88049E-01  3.61269E-02
    9046.818     48.487   3.920  1.02887E+00  9.87288E-01  4.15813E-02
    9048.019     49.688   3.960  1.02857E+00  9.86594E-01  4.19793E-02
    9049.232     50.901   4.000  1.02484E+00  9.85947E-01  3.88936E-02
    9050.457     52.127   4.040  1.01977E+00  9.85347E-01  3.44229E-02
    9051.695     53.364   4.080  1.01581E+00  9.84815E-01  3.09946E-02
    9052.945     54.614   4.120  1.01519E+00  9.84333E-01  3.08582E-02
    9054.206     55.876   4.160  1.01934E+00  9.83920E-01  3.54216E-02
    9055.481     57.150   4.200  1.02811E+00  9.83556E-01  4.45550E-02
    9056.767     58.436   4.240  1.03981E+00  9.83260E-01  5.65515E-02
    9058.065     59.734   4.280  1.05191E+00  9.83011E-01  6.88943E-02
    9059.376     61.045   4.320  1.06226E+00  9.82831E-01  7.94279E-02
    9060.699     62.368   4.360  1.06981E+00  9.82697E-01  8.71127E-02
    9062.034     63.703   4.400  1.07437E+00  9.82607E-01  9.17594E-02
    9063.381     65.050   4.440  1.07571E+00  9.82561E-01  9.31467E-02
    9064.740     66.409   4.480  1.07314E+00  9.82579E-01  9.05616E-02
    9066.112     67.781   4.520  1.06648E+00  9.82642E-01  8.38399E-02
    9067.496     69.165   4.560  1.05689E+00  9.82746E-01  7.41424E-02
    9068.892     70.561   4.600  1.04630E+00  9.82887E-01  6.34156E-02
    9070.300     71.969   4.640  1.03637E+00  9.83067E-01  5.33007E-02
    9071.720     73.389   4.680  1.02780E+00  9.83265E-01  4.45363E-02
    9073.153     74.822   4.720  1.02065E+00  9.83521E-01  3.71297E-02
    9074.597     76.267   4.760  1.01469E+00  9.83813E-01  3.08783E-02
    9076.054     77.724   4.800  1.00967E+00  9.84118E-01  2.55557E-02
    9077.524     79.193   4.840  1.00531E+00  9.84453E-01  2.08618E-02
    9079.005     80.674   4.880  1.00129E+00  9.84798E-01  1.64961E-02
    9080.498     82.167   4.920  9.97397E-01  9.85171E-01  1.22259E-02
    9082.004     83.673   4.960  9.93553E-01  9.85551E-01  8.00129E-03
    9083.522     85.191   5.000  9.89744E-01  9.85935E-01  3.80899E-03
    9085.052     86.721   5.040  9.85727E-01  9.86346E-01 -6.18673E-04
    9086.594     88.263   5.080  9.81022E-01  9.86761E-01 -5.73852E-03
    9088.149     89.818   5.120  9.75124E-01  9.87174E-01 -1.20501E-02
    9089.716     91.385   5.160  9.67518E-01  9.87586E-01 -2.00679E-02
    9091.294     92.963   5.200  9.57653E-01  9.87974E-01 -3.03215E-02
    9092.885     94.555   5.240  9.45208E-01  9.88382E-01 -4.31744E-02
    9094.489     96.158   5.280  9.30458E-01  9.88785E-01 -5.83271E-02
    9096.104     97.773   5.320  9.14714E-01  9.89159E-01 -7.44458E-02
    9097.732     99.401   5.360  9.00146E-01  9.89505E-01 -8.93588E-02
    9099.372    101.041   5.400  8.89024E-01  9.89865E-01 -1.00841E-01
    9101.024    102.693   5.440  8.82916E-01  9.90193E-01 -1.07277E-01
    9102.688    104.357   5.480  8.82508E-01  9.90489E-01 -1.07981E-01
    9104.364    106.033   5.520  8.87631E-01  9.90773E-01 -1.03142E-01
    9106.053    107.722   5.560  8.97610E-01  9.91023E-01 -9.34135E-02
    9107.754    109.423   5.600  9.11833E-01  9.91237E-01 -7.94041E-02
    9109.466    111.136   5.640  9.30083E-01  9.91437E-01 -6.13533E-02
    9111.192    112.861   5.680  9.52210E-01  9.91578E-01 -3.93671E-02
    9112.929    114.598   5.720  9.77554E-01  9.91705E-01 -1.41504E-02
    9114.679    116.348   5.760  1.00425E+00  9.91819E-01  1.24336E-02
    9116.440    118.109   5.800  1.02941E+00  9.91873E-01  3.75340E-02
    9118.214    119.883   5.840  1.05001E+00  9.91887E-01  5.81182E-02
    9120.000    121.669   5.880  1.06380E+00  9.91886E-01  7.19127E-02
    9121.799    123.468   5.920  1.06984E+00  9.91823E-01  7.80188E-02
    9123.609    125.278   5.960  1.06861E+00  9.91742E-01  7.68683E-02
    9125.432    127.101   6.000  1.06084E+00  9.91574E-01  6.92703E-02
