# # comment:                                                     FEFF 9.9.1  
# # Source:
# # Structure
# # Reduced
# # space
# # abc:
# # angles:
# # sites:
# # POT  SCF 100  7.0000   0, screened core-hole, AFOLP (folp(0)= 1.150)
# # Abs   Z=29 Rmt= 1.248 Rnm= 1.313 K  shell
# # Pot 1 Z=38 Rmt= 1.855 Rnm= 1.909
# # Pot 2 Z=29 Rmt= 1.244 Rnm= 1.312
# # Pot 3 Z= 5 Rmt= 0.768 Rnm= 0.982
# # Pot 4 Z= 8 Rmt= 0.935 Rnm= 1.051
# # Gam_ch=1.729E+00 H-L exch Vi= 0.000E+00 Vr= 0.000E+00
# # Mu=-6.781E+00eV kf=2.281E+00 Vint=-1.858E+01eV Rs_int= 1.590
# FMS rfms= 9.0000
# # PATH  Rmax=-1.000,  Keep_limit= 0.00, Heap_limit 0.00  Pwcrit= 2.50%
#  S02=0.950  Temp=   0.00  Debye_temp=   0.00  Global_sig2= 0.00000
#  Energy zero shift, vr, vi    0.00000E+00   0.00000E+00
#  Curved wave amplitude ratio filter   4.000%
#     file         sig2 tot  cw amp ratio   deg  nlegs   reff  inp sig2
#     0/   0 paths used
#  xsedge+ 50, used to normalize mu           2.4714E-04
#  -----------------------------------------------------------------------
#  omega    e    k    mu    mu0     chi     @#
    8984.343    -10.591  -1.000  5.28063E-02  5.78376E-02 -5.03121E-03
    8984.641    -10.292  -0.960  5.63161E-02  6.21950E-02 -5.87888E-03
    8984.928    -10.006  -0.920  6.01667E-02  6.70525E-02 -6.88586E-03
    8985.202     -9.731  -0.880  6.44013E-02  7.24854E-02 -8.08404E-03
    8985.464     -9.469  -0.840  6.90695E-02  7.85812E-02 -9.51176E-03
    8985.714     -9.219  -0.800  7.42271E-02  8.54419E-02 -1.12149E-02
    8985.952     -8.982  -0.760  7.99371E-02  9.31846E-02 -1.32476E-02
    8986.178     -8.756  -0.720  8.62689E-02  1.01942E-01 -1.56730E-02
    8986.391     -8.543  -0.680  9.32971E-02  1.11860E-01 -1.85629E-02
    8986.592     -8.341  -0.640  1.01098E-01  1.23094E-01 -2.19954E-02
    8986.781     -8.152  -0.600  1.09745E-01  1.35796E-01 -2.60506E-02
    8986.958     -7.976  -0.560  1.19296E-01  1.50097E-01 -3.08011E-02
    8987.122     -7.811  -0.520  1.29778E-01  1.66076E-01 -3.62983E-02
    8987.275     -7.659  -0.480  1.41168E-01  1.83719E-01 -4.25515E-02
    8987.415     -7.518  -0.440  1.53365E-01  2.02870E-01 -4.95047E-02
    8987.543     -7.390  -0.400  1.66173E-01  2.23190E-01 -5.70166E-02
    8987.659     -7.275  -0.360  1.79292E-01  2.44147E-01 -6.48550E-02
    8987.763     -7.171  -0.320  1.92335E-01  2.65049E-01 -7.27145E-02
    8987.854     -7.080  -0.280  2.04871E-01  2.85130E-01 -8.02591E-02
    8987.933     -7.000  -0.240  2.16479E-01  3.03654E-01 -8.71753E-02
    8988.000     -6.933  -0.200  2.26793E-01  3.20009E-01 -9.32161E-02
    8988.055     -6.878  -0.160  2.35532E-01  3.33752E-01 -9.82203E-02
    8988.098     -6.836  -0.120  2.42498E-01  3.44604E-01 -1.02106E-01
    8988.128     -6.805  -0.080  2.47562E-01  3.52414E-01 -1.04852E-01
    8988.153     -6.781   0.000  2.51689E-01  3.58684E-01 -1.06995E-01
    8988.208     -6.726   0.120  2.60810E-01  3.72805E-01 -1.11995E-01
    8988.250     -6.683   0.160  2.67971E-01  3.83766E-01 -1.15795E-01
    8988.305     -6.628   0.200  2.77241E-01  3.97729E-01 -1.20487E-01
    8988.372     -6.561   0.240  2.88607E-01  4.14458E-01 -1.25851E-01
    8988.451     -6.482   0.280  3.02110E-01  4.33620E-01 -1.31509E-01
    8988.543     -6.391   0.320  3.17674E-01  4.54618E-01 -1.36943E-01
    8988.646     -6.287   0.360  3.35360E-01  4.76834E-01 -1.41474E-01
    8988.762     -6.171   0.400  3.55272E-01  4.99550E-01 -1.44278E-01
    8988.890     -6.043   0.440  3.77580E-01  5.22108E-01 -1.44528E-01
    8989.030     -5.903   0.480  4.02605E-01  5.44037E-01 -1.41432E-01
    8989.183     -5.751   0.520  4.30534E-01  5.64987E-01 -1.34453E-01
    8989.347     -5.586   0.560  4.61447E-01  5.84813E-01 -1.23366E-01
    8989.524     -5.409   0.600  4.95333E-01  6.03504E-01 -1.08170E-01
    8989.713     -5.220   0.640  5.32307E-01  6.21112E-01 -8.88048E-02
    8989.914     -5.019   0.680  5.72685E-01  6.37756E-01 -6.50713E-02
    8990.128     -4.806   0.720  6.15939E-01  6.53532E-01 -3.75932E-02
    8990.353     -4.580   0.760  6.58766E-01  6.68595E-01 -9.82880E-03
    8990.591     -4.342   0.800  6.94065E-01  6.83030E-01  1.10356E-02
    8990.841     -4.093   0.840  7.14165E-01  6.96969E-01  1.71963E-02
    8991.103     -3.830   0.880  7.16007E-01  7.10446E-01  5.56059E-03
    8991.377     -3.556   0.920  7.03875E-01  7.23561E-01 -1.96859E-02
    8991.664     -3.270   0.960  6.87210E-01  7.36358E-01 -4.91486E-02
    8991.963     -2.971   1.000  6.75285E-01  7.48850E-01 -7.35644E-02
    8992.274     -2.660   1.040  6.72781E-01  7.61099E-01 -8.83186E-02
    8992.597     -2.337   1.080  6.79581E-01  7.73099E-01 -9.35178E-02
    8992.932     -2.002   1.120  6.93645E-01  7.84854E-01 -9.12084E-02
    8993.279     -1.654   1.160  7.12674E-01  7.96384E-01 -8.37101E-02
    8993.639     -1.295   1.200  7.33552E-01  8.07703E-01 -7.41503E-02
    8994.011     -0.923   1.240  7.54201E-01  8.18781E-01 -6.45801E-02
    8994.395     -0.539   1.280  7.77033E-01  8.29605E-01 -5.25727E-02
    8994.791     -0.142   1.320  8.05696E-01  8.40181E-01 -3.44847E-02
    8995.200      0.266   1.360  8.41620E-01  8.50510E-01 -8.89036E-03
    8995.620      0.687   1.400  8.84971E-01  8.60552E-01  2.44189E-02
    8996.053      1.120   1.440  9.35692E-01  8.70307E-01  6.53851E-02
    8996.498      1.565   1.480  9.97016E-01  8.79775E-01  1.17241E-01
    8996.955      2.022   1.520  1.07272E+00  8.88933E-01  1.83786E-01
    8997.425      2.491   1.560  1.15133E+00  8.97759E-01  2.53567E-01
    8997.906      2.973   1.600  1.20218E+00  9.06251E-01  2.95931E-01
    8998.400      3.466   1.640  1.20702E+00  9.14410E-01  2.92609E-01
    8998.906      3.972   1.680  1.18375E+00  9.22231E-01  2.61523E-01
    8999.424      4.491   1.720  1.16030E+00  9.29694E-01  2.30608E-01
    8999.954      5.021   1.760  1.15287E+00  9.36779E-01  2.16095E-01
    9000.497      5.563   1.800  1.16625E+00  9.43527E-01  2.22721E-01
    9001.052      6.118   1.840  1.19348E+00  9.49894E-01  2.43587E-01
    9001.619      6.685   1.880  1.22082E+00  9.55905E-01  2.64914E-01
    9002.198      7.264   1.920  1.23706E+00  9.61542E-01  2.75516E-01
    9002.789      7.856   1.960  1.23783E+00  9.66825E-01  2.71006E-01
    9003.393      8.459   2.000  1.23065E+00  9.71737E-01  2.58913E-01
    9004.008      9.075   2.040  1.22490E+00  9.76303E-01  2.48601E-01
    9004.636      9.703   2.080  1.21779E+00  9.80526E-01  2.37260E-01
    9005.276     10.343   2.120  1.20329E+00  9.84411E-01  2.18881E-01
    9005.929     10.995   2.160  1.18084E+00  9.87962E-01  1.92880E-01
    9006.593     11.659   2.200  1.15183E+00  9.91206E-01  1.60623E-01
    9007.270     12.336   2.240  1.11904E+00  9.94128E-01  1.24908E-01
    9007.958     13.025   2.280  1.08703E+00  9.96752E-01  9.02805E-02
    9008.660     13.726   2.320  1.05773E+00  9.99084E-01  5.86418E-02
    9009.373     14.439   2.360  1.02958E+00  1.00113E+00  2.84477E-02
    9010.098     15.165   2.400  1.00195E+00  1.00292E+00 -9.78531E-04
    9010.836     15.902   2.440  9.77472E-01  1.00447E+00 -2.69936E-02
    9011.586     16.652   2.480  9.60564E-01  1.00578E+00 -4.52195E-02
    9012.348     17.414   2.520  9.53843E-01  1.00686E+00 -5.30212E-02
    9013.122     18.188   2.560  9.58126E-01  1.00771E+00 -4.95878E-02
    9013.908     18.975   2.600  9.70092E-01  1.00840E+00 -3.83092E-02
    9014.707     19.773   2.640  9.79499E-01  1.00887E+00 -2.93756E-02
    9015.518     20.584   2.680  9.74946E-01  1.00920E+00 -3.42519E-02
    9016.340     21.407   2.720  9.58372E-01  1.00936E+00 -5.09877E-02
    9017.176     22.242   2.760  9.40932E-01  1.00939E+00 -6.84545E-02
    9018.023     23.089   2.800  9.27466E-01  1.00926E+00 -8.17969E-02
    9018.882     23.949   2.840  9.18694E-01  1.00902E+00 -9.03221E-02
    9019.754     24.821   2.880  9.14209E-01  1.00867E+00 -9.44646E-02
    9020.638     25.705   2.920  9.13108E-01  1.00824E+00 -9.51308E-02
    9021.534     26.601   2.960  9.14216E-01  1.00770E+00 -9.34847E-02
    9022.443     27.509   3.000  9.16753E-01  1.00710E+00 -9.03484E-02
    9023.363     28.429   3.040  9.20065E-01  1.00643E+00 -8.63623E-02
    9024.296     29.362   3.080  9.23592E-01  1.00571E+00 -8.21128E-02
    9025.241     30.307   3.120  9.26878E-01  1.00494E+00 -7.80599E-02
    9026.198     31.264   3.160  9.29994E-01  1.00413E+00 -7.41354E-02
    9027.167     32.233   3.200  9.32960E-01  1.00328E+00 -7.03247E-02
    9028.148     33.215   3.240  9.35830E-01  1.00243E+00 -6.65987E-02
    9029.142     34.208   3.280  9.38606E-01  1.00156E+00 -6.29581E-02
    9030.148     35.214   3.320  9.41275E-01  1.00068E+00 -5.94015E-02
    9031.166     36.232   3.360  9.43975E-01  9.99808E-01 -5.58337E-02
    9032.196     37.263   3.400  9.46894E-01  9.98941E-01 -5.20480E-02
    9033.239     38.305   3.440  9.50160E-01  9.98078E-01 -4.79184E-02
    9034.293     39.360   3.480  9.53707E-01  9.97223E-01 -4.35162E-02
    9035.360     40.426   3.520  9.57622E-01  9.96418E-01 -3.87960E-02
    9036.439     41.505   3.560  9.61781E-01  9.95626E-01 -3.38445E-02
    9037.530     42.597   3.600  9.66025E-01  9.94845E-01 -2.88202E-02
    9038.633     43.700   3.640  9.70337E-01  9.94121E-01 -2.37843E-02
    9039.749     44.815   3.680  9.74677E-01  9.93415E-01 -1.87383E-02
    9040.877     45.943   3.720  9.79051E-01  9.92769E-01 -1.37183E-02
    9042.017     47.083   3.760  9.83401E-01  9.92142E-01 -8.74097E-03
    9043.169     48.235   3.800  9.87889E-01  9.91577E-01 -3.68780E-03
    9044.333     49.400   3.840  9.92606E-01  9.91055E-01  1.55078E-03
    9045.510     50.576   3.880  9.97559E-01  9.90574E-01  6.98482E-03
    9046.698     51.765   3.920  1.00265E+00  9.90136E-01  1.25183E-02
    9047.899     52.966   3.960  1.00776E+00  9.89764E-01  1.80011E-02
    9049.112     54.179   4.000  1.01275E+00  9.89414E-01  2.33375E-02
    9050.338     55.404   4.040  1.01781E+00  9.89128E-01  2.86767E-02
    9051.575     56.642   4.080  1.02336E+00  9.88909E-01  3.44522E-02
    9052.825     57.891   4.120  1.02988E+00  9.88711E-01  4.11673E-02
    9054.087     59.153   4.160  1.03769E+00  9.88577E-01  4.91148E-02
    9055.361     60.427   4.200  1.04673E+00  9.88462E-01  5.82632E-02
    9056.647     61.713   4.240  1.05658E+00  9.88412E-01  6.81656E-02
    9057.945     63.012   4.280  1.06646E+00  9.88407E-01  7.80518E-02
    9059.256     64.323   4.320  1.07550E+00  9.88463E-01  8.70321E-02
    9060.579     65.645   4.360  1.08271E+00  9.88537E-01  9.41735E-02
    9061.914     66.980   4.400  1.08718E+00  9.88650E-01  9.85267E-02
    9063.261     68.328   4.440  1.08802E+00  9.88800E-01  9.92238E-02
    9064.621     69.687   4.480  1.08469E+00  9.88989E-01  9.56989E-02
    9065.992     71.059   4.520  1.07714E+00  9.89215E-01  8.79238E-02
    9067.376     72.442   4.560  1.06602E+00  9.89475E-01  7.65417E-02
    9068.772     73.838   4.600  1.05247E+00  9.89748E-01  6.27192E-02
    9070.180     75.247   4.640  1.03769E+00  9.90055E-01  4.76383E-02
    9071.600     76.667   4.680  1.02273E+00  9.90392E-01  3.23385E-02
    9073.033     78.099   4.720  1.00831E+00  9.90737E-01  1.75753E-02
    9074.478     79.544   4.760  9.94889E-01  9.91089E-01  3.80014E-03
    9075.935     81.001   4.800  9.82700E-01  9.91467E-01 -8.76677E-03
    9077.404     82.470   4.840  9.71744E-01  9.91850E-01 -2.01057E-02
    9078.885     83.952   4.880  9.61891E-01  9.92238E-01 -3.03460E-02
    9080.379     85.445   4.920  9.53032E-01  9.92649E-01 -3.96169E-02
    9081.884     86.951   4.960  9.45117E-01  9.93039E-01 -4.79225E-02
    9083.402     88.469   5.000  9.38502E-01  9.93450E-01 -5.49475E-02
    9084.932     89.999   5.040  9.33699E-01  9.93838E-01 -6.01384E-02
    9086.475     91.541   5.080  9.31265E-01  9.94244E-01 -6.29788E-02
    9088.029     93.096   5.120  9.31398E-01  9.94622E-01 -6.32235E-02
    9089.596     94.662   5.160  9.33857E-01  9.94971E-01 -6.11147E-02
    9091.175     96.241   5.200  9.38032E-01  9.95336E-01 -5.73042E-02
    9092.766     97.832   5.240  9.42967E-01  9.95670E-01 -5.27036E-02
    9094.369     99.435   5.280  9.47767E-01  9.95973E-01 -4.82057E-02
    9095.984    101.051   5.320  9.51886E-01  9.96266E-01 -4.43795E-02
    9097.612    102.678   5.360  9.55211E-01  9.96547E-01 -4.13351E-02
    9099.252    104.318   5.400  9.58055E-01  9.96771E-01 -3.87161E-02
    9100.904    105.970   5.440  9.60992E-01  9.96983E-01 -3.59915E-02
    9102.568    107.634   5.480  9.64474E-01  9.97182E-01 -3.27072E-02
    9104.244    109.311   5.520  9.68807E-01  9.97322E-01 -2.85156E-02
    9105.933    110.999   5.560  9.73939E-01  9.97448E-01 -2.35086E-02
    9107.634    112.700   5.600  9.79579E-01  9.97535E-01 -1.79565E-02
    9109.347    114.413   5.640  9.85371E-01  9.97586E-01 -1.22146E-02
    9111.072    116.138   5.680  9.90924E-01  9.97597E-01 -6.67287E-03
    9112.809    117.876   5.720  9.95896E-01  9.97593E-01 -1.69667E-03
    9114.559    119.625   5.760  9.99929E-01  9.97527E-01  2.40174E-03
    9116.321    121.387   5.800  1.00285E+00  9.97422E-01  5.42826E-03
    9118.094    123.161   5.840  1.00446E+00  9.97302E-01  7.16289E-03
    9119.881    124.947   5.880  1.00515E+00  9.97122E-01  8.02956E-03
    9121.679    126.745   5.920  1.00516E+00  9.96929E-01  8.22592E-03
    9123.489    128.556   5.960  1.00471E+00  9.96698E-01  8.01264E-03
    9125.312    130.379   6.000  1.00405E+00  9.96376E-01  7.67282E-03
