# # comment:                                                     FEFF 9.9.1  
# # Source:
# # Structure
# # Reduced
# # space
# # abc:
# # angles:
# # sites:
# # POT  SCF 100  7.0000   0, screened core-hole, AFOLP (folp(0)= 1.150)
# # Abs   Z=29 Rmt= 1.157 Rnm= 1.283 K  shell
# # Pot 1 Z=29 Rmt= 1.190 Rnm= 1.297
# # Pot 2 Z=16 Rmt= 0.854 Rnm= 1.105
# # Pot 3 Z= 8 Rmt= 1.003 Rnm= 1.114
# # Gam_ch=1.729E+00 H-L exch Vi= 0.000E+00 Vr= 0.000E+00
# # Mu=-7.263E+00eV kf=2.261E+00 Vint=-1.484E+01eV Rs_int= 1.604
# FMS rfms= 9.0000
# # PATH  Rmax=-1.000,  Keep_limit= 0.00, Heap_limit 0.00  Pwcrit= 2.50%
#  S02=0.950  Temp=   0.00  Debye_temp=   0.00  Global_sig2= 0.00000
#  Energy zero shift, vr, vi    0.00000E+00   0.00000E+00
#  Curved wave amplitude ratio filter   4.000%
#     file         sig2 tot  cw amp ratio   deg  nlegs   reff  inp sig2
#     0/   0 paths used
#  xsedge+ 50, used to normalize mu           2.4386E-04
#  -----------------------------------------------------------------------
#  omega    e    k    mu    mu0     chi     @#
    8983.456    -11.073  -1.000  3.12951E-02  5.35554E-02 -2.22603E-02
    8983.754    -10.774  -0.960  3.26340E-02  5.73805E-02 -2.47465E-02
    8984.041    -10.488  -0.920  3.40543E-02  6.16230E-02 -2.75688E-02
    8984.315    -10.213  -0.880  3.55648E-02  6.63433E-02 -3.07785E-02
    8984.577     -9.951  -0.840  3.71761E-02  7.16116E-02 -3.44355E-02
    8984.827     -9.701  -0.800  3.89007E-02  7.75094E-02 -3.86086E-02
    8985.065     -9.463  -0.760  4.07531E-02  8.41298E-02 -4.33766E-02
    8985.290     -9.238  -0.720  4.27501E-02  9.15779E-02 -4.88278E-02
    8985.504     -9.025  -0.680  4.49102E-02  9.99693E-02 -5.50591E-02
    8985.705     -8.823  -0.640  4.72536E-02  1.09426E-01 -6.21722E-02
    8985.894     -8.634  -0.600  4.97999E-02  1.20067E-01 -7.02667E-02
    8986.071     -8.458  -0.560  5.25656E-02  1.31993E-01 -7.94275E-02
    8986.235     -8.293  -0.520  5.55593E-02  1.45265E-01 -8.97055E-02
    8986.388     -8.141  -0.480  5.87754E-02  1.59867E-01 -1.01091E-01
    8986.528     -8.000  -0.440  6.21865E-02  1.75671E-01 -1.13485E-01
    8986.656     -7.872  -0.400  6.57370E-02  1.92406E-01 -1.26669E-01
    8986.772     -7.757  -0.360  6.93416E-02  2.09643E-01 -1.40302E-01
    8986.875     -7.653  -0.320  7.28903E-02  2.26829E-01 -1.53939E-01
    8986.967     -7.562  -0.280  7.62631E-02  2.43345E-01 -1.67082E-01
    8987.046     -7.482  -0.240  7.93466E-02  2.58598E-01 -1.79251E-01
    8987.113     -7.415  -0.200  8.20494E-02  2.72086E-01 -1.90037E-01
    8987.168     -7.360  -0.160  8.43098E-02  2.83441E-01 -1.99132E-01
    8987.211     -7.318  -0.120  8.60938E-02  2.92425E-01 -2.06331E-01
    8987.241     -7.287  -0.080  8.73866E-02  2.98901E-01 -2.11515E-01
    8987.266     -7.263   0.000  8.84553E-02  3.04108E-01 -2.15653E-01
    8987.320     -7.208   0.120  9.07125E-02  3.15846E-01 -2.25134E-01
    8987.363     -7.165   0.160  9.24083E-02  3.24990E-01 -2.32582E-01
    8987.418     -7.110   0.200  9.45090E-02  3.36678E-01 -2.42169E-01
    8987.485     -7.043   0.240  9.69448E-02  3.50788E-01 -2.53844E-01
    8987.564     -6.964   0.280  9.95930E-02  3.67021E-01 -2.67428E-01
    8987.656     -6.873   0.320  1.02300E-01  3.84994E-01 -2.82694E-01
    8987.759     -6.769   0.360  1.04955E-01  4.04247E-01 -2.99292E-01
    8987.875     -6.653   0.400  1.07360E-01  4.24249E-01 -3.16889E-01
    8988.003     -6.525   0.440  1.09421E-01  4.44511E-01 -3.35091E-01
    8988.143     -6.385   0.480  1.11176E-01  4.64690E-01 -3.53514E-01
    8988.296     -6.233   0.520  1.12717E-01  4.84513E-01 -3.71796E-01
    8988.460     -6.068   0.560  1.14251E-01  5.03872E-01 -3.89621E-01
    8988.637     -5.891   0.600  1.16078E-01  5.22735E-01 -4.06657E-01
    8988.826     -5.702   0.640  1.18540E-01  5.41151E-01 -4.22611E-01
    8989.027     -5.501   0.680  1.21919E-01  5.59161E-01 -4.37242E-01
    8989.241     -5.288   0.720  1.26527E-01  5.76857E-01 -4.50330E-01
    8989.466     -5.062   0.760  1.32651E-01  5.94289E-01 -4.61638E-01
    8989.704     -4.824   0.800  1.40657E-01  6.11559E-01 -4.70901E-01
    8989.954     -4.574   0.840  1.50781E-01  6.28653E-01 -4.77872E-01
    8990.216     -4.312   0.880  1.63382E-01  6.45648E-01 -4.82266E-01
    8990.490     -4.038   0.920  1.78896E-01  6.62546E-01 -4.83650E-01
    8990.777     -3.752   0.960  1.97946E-01  6.79358E-01 -4.81412E-01
    8991.076     -3.453   1.000  2.21525E-01  6.96063E-01 -4.74538E-01
    8991.386     -3.142   1.040  2.50735E-01  7.12655E-01 -4.61919E-01
    8991.710     -2.819   1.080  2.86157E-01  7.29098E-01 -4.42940E-01
    8992.045     -2.484   1.120  3.27004E-01  7.45392E-01 -4.18388E-01
    8992.392     -2.136   1.160  3.71075E-01  7.61472E-01 -3.90397E-01
    8992.752     -1.776   1.200  4.15913E-01  7.77329E-01 -3.61416E-01
    8993.124     -1.405   1.240  4.62189E-01  7.92892E-01 -3.30702E-01
    8993.508     -1.021   1.280  5.17586E-01  8.08169E-01 -2.90582E-01
    8993.904     -0.624   1.320  5.89818E-01  8.23064E-01 -2.33247E-01
    8994.313     -0.216   1.360  6.78240E-01  8.37585E-01 -1.59344E-01
    8994.733      0.205   1.400  7.73384E-01  8.51655E-01 -7.82709E-02
    8995.166      0.638   1.440  8.52074E-01  8.65284E-01 -1.32100E-02
    8995.611      1.083   1.480  8.88557E-01  8.78416E-01  1.01405E-02
    8996.068      1.540   1.520  8.86914E-01  8.91019E-01 -4.10540E-03
    8996.538      2.009   1.560  8.68986E-01  9.03085E-01 -3.40996E-02
    8997.019      2.491   1.600  8.47913E-01  9.14564E-01 -6.66510E-02
    8997.513      2.985   1.640  8.33640E-01  9.25468E-01 -9.18283E-02
    8998.019      3.490   1.680  8.28479E-01  9.35773E-01 -1.07295E-01
    8998.537      4.009   1.720  8.27924E-01  9.45478E-01 -1.17554E-01
    8999.067      4.539   1.760  8.29943E-01  9.54560E-01 -1.24617E-01
    8999.610      5.082   1.800  8.38856E-01  9.63039E-01 -1.24183E-01
    9000.165      5.636   1.840  8.60352E-01  9.70917E-01 -1.10565E-01
    9000.732      6.203   1.880  8.98390E-01  9.78178E-01 -7.97888E-02
    9001.311      6.782   1.920  9.64872E-01  9.84848E-01 -1.99760E-02
    9001.902      7.374   1.960  1.07164E+00  9.90932E-01  8.07043E-02
    9002.506      7.977   2.000  1.21384E+00  9.96441E-01  2.17395E-01
    9003.121      8.593   2.040  1.36558E+00  1.00140E+00  3.64177E-01
    9003.749      9.221   2.080  1.48694E+00  1.00585E+00  4.81091E-01
    9004.389      9.861   2.120  1.55140E+00  1.00976E+00  5.41633E-01
    9005.041     10.513   2.160  1.56391E+00  1.01321E+00  5.50706E-01
    9005.706     11.178   2.200  1.53596E+00  1.01617E+00  5.19795E-01
    9006.383     11.854   2.240  1.47194E+00  1.01870E+00  4.53245E-01
    9007.071     12.543   2.280  1.38593E+00  1.02079E+00  3.65140E-01
    9007.772     13.244   2.320  1.29935E+00  1.02252E+00  2.76829E-01
    9008.486     13.957   2.360  1.22111E+00  1.02386E+00  1.97252E-01
    9009.211     14.683   2.400  1.15151E+00  1.02486E+00  1.26644E-01
    9009.949     15.420   2.440  1.09617E+00  1.02556E+00  7.06090E-02
    9010.699     16.170   2.480  1.06114E+00  1.02597E+00  3.51770E-02
    9011.461     16.932   2.520  1.04639E+00  1.02609E+00  2.02911E-02
    9012.235     17.706   2.560  1.04768E+00  1.02600E+00  2.16851E-02
    9013.021     18.493   2.600  1.05961E+00  1.02566E+00  3.39450E-02
    9013.820     19.291   2.640  1.07895E+00  1.02512E+00  5.38317E-02
    9014.630     20.102   2.680  1.09384E+00  1.02441E+00  6.94279E-02
    9015.453     20.925   2.720  1.09217E+00  1.02356E+00  6.86100E-02
    9016.289     21.760   2.760  1.07916E+00  1.02256E+00  5.66080E-02
    9017.136     22.607   2.800  1.06274E+00  1.02145E+00  4.12860E-02
    9017.995     23.467   2.840  1.04717E+00  1.02023E+00  2.69417E-02
    9018.867     24.339   2.880  1.03350E+00  1.01893E+00  1.45692E-02
    9019.751     25.223   2.920  1.02140E+00  1.01755E+00  3.85098E-03
    9020.647     26.119   2.960  1.01074E+00  1.01612E+00 -5.38560E-03
    9021.555     27.027   3.000  1.00123E+00  1.01468E+00 -1.34505E-02
    9022.476     27.948   3.040  9.92164E-01  1.01319E+00 -2.10315E-02
    9023.409     28.880   3.080  9.82865E-01  1.01168E+00 -2.88199E-02
    9024.353     29.825   3.120  9.72704E-01  1.01019E+00 -3.74907E-02
    9025.311     30.782   3.160  9.61264E-01  1.00871E+00 -4.74426E-02
    9026.280     31.751   3.200  9.48893E-01  1.00723E+00 -5.83354E-02
    9027.261     32.733   3.240  9.36573E-01  1.00578E+00 -6.92108E-02
    9028.255     33.727   3.280  9.25144E-01  1.00440E+00 -7.92526E-02
    9029.261     34.732   3.320  9.15137E-01  1.00303E+00 -8.78933E-02
    9030.279     35.750   3.360  9.06870E-01  1.00171E+00 -9.48372E-02
    9031.309     36.781   3.400  9.00328E-01  1.00045E+00 -1.00124E-01
    9032.351     37.823   3.440  8.95294E-01  9.99248E-01 -1.03954E-01
    9033.406     38.878   3.480  8.91519E-01  9.98118E-01 -1.06599E-01
    9034.473     39.944   3.520  8.88785E-01  9.97064E-01 -1.08279E-01
    9035.552     41.023   3.560  8.86860E-01  9.96087E-01 -1.09227E-01
    9036.643     42.115   3.600  8.85849E-01  9.95169E-01 -1.09319E-01
    9037.746     43.218   3.640  8.86147E-01  9.94352E-01 -1.08205E-01
    9038.862     44.334   3.680  8.88157E-01  9.93615E-01 -1.05458E-01
    9039.990     45.461   3.720  8.92171E-01  9.92940E-01 -1.00769E-01
    9041.130     46.601   3.760  8.98335E-01  9.92368E-01 -9.40335E-02
    9042.282     47.753   3.800  9.06422E-01  9.91880E-01 -8.54583E-02
    9043.446     48.918   3.840  9.15794E-01  9.91475E-01 -7.56811E-02
    9044.623     50.094   3.880  9.25785E-01  9.91154E-01 -6.53695E-02
    9045.811     51.283   3.920  9.35882E-01  9.90937E-01 -5.50548E-02
    9047.012     52.484   3.960  9.45750E-01  9.90781E-01 -4.50307E-02
    9048.225     53.697   4.000  9.55384E-01  9.90706E-01 -3.53227E-02
    9049.451     54.922   4.040  9.64970E-01  9.90734E-01 -2.57639E-02
    9050.688     56.160   4.080  9.74580E-01  9.90821E-01 -1.62416E-02
    9051.938     57.409   4.120  9.84273E-01  9.91010E-01 -6.73662E-03
    9053.200     58.671   4.160  9.93988E-01  9.91255E-01  2.73280E-03
    9054.474     59.945   4.200  1.00373E+00  9.91576E-01  1.21515E-02
    9055.760     61.232   4.240  1.01340E+00  9.91951E-01  2.14496E-02
    9057.058     62.530   4.280  1.02305E+00  9.92422E-01  3.06263E-02
    9058.369     63.841   4.320  1.03262E+00  9.92944E-01  3.96749E-02
    9059.692     65.163   4.360  1.04199E+00  9.93516E-01  4.84761E-02
    9061.027     66.498   4.400  1.05088E+00  9.94157E-01  5.67246E-02
    9062.374     67.846   4.440  1.05881E+00  9.94844E-01  6.39623E-02
    9063.733     69.205   4.480  1.06531E+00  9.95574E-01  6.97348E-02
    9065.105     70.577   4.520  1.07014E+00  9.96368E-01  7.37745E-02
    9066.489     71.960   4.560  1.07335E+00  9.97180E-01  7.61702E-02
    9067.885     73.356   4.600  1.07518E+00  9.98029E-01  7.71525E-02
    9069.293     74.765   4.640  1.07592E+00  9.98914E-01  7.70030E-02
    9070.713     76.185   4.680  1.07585E+00  9.99833E-01  7.60180E-02
    9072.146     77.618   4.720  1.07522E+00  1.00076E+00  7.44596E-02
    9073.591     79.062   4.760  1.07422E+00  1.00172E+00  7.25052E-02
    9075.048     80.519   4.800  1.07300E+00  1.00265E+00  7.03404E-02
    9076.517     81.988   4.840  1.07166E+00  1.00362E+00  6.80469E-02
    9077.998     83.470   4.880  1.07022E+00  1.00458E+00  6.56362E-02
    9079.492     84.963   4.920  1.06854E+00  1.00554E+00  6.29991E-02
    9080.997     86.469   4.960  1.06633E+00  1.00650E+00  5.98331E-02
    9082.515     87.987   5.000  1.06317E+00  1.00742E+00  5.57442E-02
    9084.045     89.517   5.040  1.05872E+00  1.00834E+00  5.03752E-02
    9085.588     91.059   5.080  1.05272E+00  1.00922E+00  4.34915E-02
    9087.142     92.614   5.120  1.04523E+00  1.01010E+00  3.51374E-02
    9088.709     94.180   5.160  1.03657E+00  1.01093E+00  2.56395E-02
    9090.288     95.759   5.200  1.02730E+00  1.01173E+00  1.55690E-02
    9091.879     97.350   5.240  1.01804E+00  1.01248E+00  5.55277E-03
    9093.482     98.953   5.280  1.00931E+00  1.01319E+00 -3.88471E-03
    9095.097    100.569   5.320  1.00148E+00  1.01386E+00 -1.23892E-02
    9096.725    102.197   5.360  9.94697E-01  1.01449E+00 -1.97917E-02
    9098.365    103.836   5.400  9.88907E-01  1.01505E+00 -2.61383E-02
    9100.017    105.488   5.440  9.83968E-01  1.01558E+00 -3.16075E-02
    9101.681    107.153   5.480  9.79548E-01  1.01601E+00 -3.64647E-02
    9103.357    108.829   5.520  9.75425E-01  1.01642E+00 -4.09969E-02
    9105.046    110.518   5.560  9.71305E-01  1.01674E+00 -4.54321E-02
    9106.747    112.218   5.600  9.67193E-01  1.01702E+00 -4.98296E-02
    9108.460    113.931   5.640  9.63138E-01  1.01721E+00 -5.40745E-02
    9110.185    115.656   5.680  9.59499E-01  1.01737E+00 -5.78754E-02
    9111.922    117.394   5.720  9.56604E-01  1.01744E+00 -6.08342E-02
    9113.672    119.143   5.760  9.54901E-01  1.01745E+00 -6.25482E-02
    9115.433    120.905   5.800  9.54592E-01  1.01739E+00 -6.27950E-02
    9117.207    122.679   5.840  9.55698E-01  1.01728E+00 -6.15782E-02
    9118.993    124.465   5.880  9.57993E-01  1.01709E+00 -5.90998E-02
    9120.792    126.263   5.920  9.61226E-01  1.01686E+00 -5.56326E-02
    9122.602    128.074   5.960  9.65104E-01  1.01654E+00 -5.14405E-02
    9124.425    129.897   6.000  9.69482E-01  1.01610E+00 -4.66220E-02
