# # comment:                                                     FEFF 9.9.1  
# # Source:
# # Structure
# # Reduced
# # space
# # abc:
# # angles:
# # sites:
# # POT  SCF 100  7.0000   0, screened core-hole, AFOLP (folp(0)= 1.150)
# # Abs   Z=29 Rmt= 1.115 Rnm= 1.325 K  shell
# # Pot 1 Z=19 Rmt= 1.848 Rnm= 1.889
# # Pot 2 Z=29 Rmt= 1.115 Rnm= 1.326
# # Pot 3 Z= 8 Rmt= 1.085 Rnm= 1.162
# # Gam_ch=1.729E+00 H-L exch Vi= 0.000E+00 Vr= 0.000E+00
# # Mu=-7.152E+00eV kf=1.741E+00 Vint=-1.438E+01eV Rs_int= 2.083
# FMS rfms= 9.0000
# # PATH  Rmax=-1.000,  Keep_limit= 0.00, Heap_limit 0.00  Pwcrit= 2.50%
#  S02=0.950  Temp=   0.00  Debye_temp=   0.00  Global_sig2= 0.00000
#  Energy zero shift, vr, vi    0.00000E+00   0.00000E+00
#  Curved wave amplitude ratio filter   4.000%
#     file         sig2 tot  cw amp ratio   deg  nlegs   reff  inp sig2
#     0/   0 paths used
#  xsedge+ 50, used to normalize mu           2.4040E-04
#  -----------------------------------------------------------------------
#  omega    e    k    mu    mu0     chi     @#
    8985.167    -10.962  -1.000  5.91949E-02  6.23352E-02 -3.14030E-03
    8985.466    -10.663  -0.960  6.38643E-02  6.69227E-02 -3.05844E-03
    8985.752    -10.377  -0.920  6.91287E-02  7.20169E-02 -2.88813E-03
    8986.027    -10.102  -0.880  7.50903E-02  7.76912E-02 -2.60090E-03
    8986.289     -9.840  -0.840  8.18706E-02  8.40313E-02 -2.16075E-03
    8986.539     -9.590  -0.800  8.96134E-02  9.11360E-02 -1.52259E-03
    8986.777     -9.353  -0.760  9.84878E-02  9.91185E-02 -6.30727E-04
    8987.002     -9.127  -0.720  1.08689E-01  1.08107E-01  5.82332E-04
    8987.215     -8.914  -0.680  1.20437E-01  1.18241E-01  2.19624E-03
    8987.417     -8.712  -0.640  1.33970E-01  1.29668E-01  4.30127E-03
    8987.606     -8.523  -0.600  1.49528E-01  1.42535E-01  6.99360E-03
    8987.782     -8.347  -0.560  1.67328E-01  1.56963E-01  1.03655E-02
    8987.947     -8.182  -0.520  1.87513E-01  1.73025E-01  1.44886E-02
    8988.099     -8.030  -0.480  2.10093E-01  1.90703E-01  1.93898E-02
    8988.240     -7.889  -0.440  2.34865E-01  2.09843E-01  2.50225E-02
    8988.368     -7.761  -0.400  2.61354E-01  2.30114E-01  3.12398E-02
    8988.483     -7.646  -0.360  2.88785E-01  2.51000E-01  3.77855E-02
    8988.587     -7.542  -0.320  3.16141E-01  2.71827E-01  4.43142E-02
    8988.678     -7.451  -0.280  3.42293E-01  2.91847E-01  5.04465E-02
    8988.758     -7.371  -0.240  3.66184E-01  3.10338E-01  5.58453E-02
    8988.825     -7.304  -0.200  3.86979E-01  3.26694E-01  6.02851E-02
    8988.880     -7.249  -0.160  4.04155E-01  3.40466E-01  6.36887E-02
    8988.922     -7.207  -0.120  4.17479E-01  3.51363E-01  6.61154E-02
    8988.953     -7.176  -0.080  4.26920E-01  3.59221E-01  6.76988E-02
    8988.977     -7.152   0.000  4.34372E-01  3.65539E-01  6.88321E-02
    8989.032     -7.097   0.120  4.49737E-01  3.79778E-01  6.99586E-02
    8989.075     -7.054   0.160  4.61524E-01  3.90886E-01  7.06382E-02
    8989.130     -6.999   0.200  4.75908E-01  4.05072E-01  7.08359E-02
    8989.197     -6.932   0.240  4.92091E-01  4.22188E-01  6.99025E-02
    8989.276     -6.853   0.280  5.08890E-01  4.41904E-01  6.69864E-02
    8989.367     -6.762   0.320  5.24918E-01  4.63759E-01  6.11591E-02
    8989.471     -6.658   0.360  5.38841E-01  4.87156E-01  5.16847E-02
    8989.587     -6.542   0.400  5.49856E-01  5.11479E-01  3.83775E-02
    8989.715     -6.414   0.440  5.57979E-01  5.36161E-01  2.18180E-02
    8989.855     -6.274   0.480  5.63870E-01  5.60721E-01  3.14919E-03
    8990.007     -6.122   0.520  5.68324E-01  5.84855E-01 -1.65304E-02
    8990.172     -5.957   0.560  5.71718E-01  6.08451E-01 -3.67332E-02
    8990.349     -5.780   0.600  5.73842E-01  6.31407E-01 -5.75656E-02
    8990.538     -5.591   0.640  5.74683E-01  6.53817E-01 -7.91337E-02
    8990.739     -5.390   0.680  5.74582E-01  6.75689E-01 -1.01107E-01
    8990.952     -5.177   0.720  5.74211E-01  6.97131E-01 -1.22920E-01
    8991.178     -4.951   0.760  5.73942E-01  7.18200E-01 -1.44257E-01
    8991.416     -4.713   0.800  5.73798E-01  7.38965E-01 -1.65167E-01
    8991.666     -4.464   0.840  5.73708E-01  7.59440E-01 -1.85732E-01
    8991.928     -4.201   0.880  5.73660E-01  7.79663E-01 -2.06003E-01
    8992.202     -3.927   0.920  5.72937E-01  7.99654E-01 -2.26716E-01
    8992.488     -3.641   0.960  5.69794E-01  8.19358E-01 -2.49564E-01
    8992.787     -3.342   1.000  5.63731E-01  8.38775E-01 -2.75043E-01
    8993.098     -3.031   1.040  5.57675E-01  8.57890E-01 -3.00215E-01
    8993.421     -2.708   1.080  5.56742E-01  8.76619E-01 -3.19877E-01
    8993.756     -2.373   1.120  5.64515E-01  8.94936E-01 -3.30421E-01
    8994.104     -2.025   1.160  5.78949E-01  9.12787E-01 -3.33838E-01
    8994.464     -1.665   1.200  5.93403E-01  9.30139E-01 -3.36736E-01
    8994.835     -1.294   1.240  6.04664E-01  9.46912E-01 -3.42248E-01
    8995.219     -0.910   1.280  6.17186E-01  9.63048E-01 -3.45861E-01
    8995.616     -0.513   1.320  6.37104E-01  9.78529E-01 -3.41425E-01
    8996.024     -0.105   1.360  6.68702E-01  9.93299E-01 -3.24597E-01
    8996.445      0.316   1.400  7.18091E-01  1.00730E+00 -2.89209E-01
    8996.878      0.749   1.440  7.93334E-01  1.02050E+00 -2.27165E-01
    8997.323      1.194   1.480  8.93274E-01  1.03291E+00 -1.39633E-01
    8997.780      1.651   1.520  9.94527E-01  1.04445E+00 -4.99247E-02
    8998.249      2.120   1.560  1.06562E+00  1.05515E+00  1.04718E-02
    8998.731      2.602   1.600  1.10534E+00  1.06496E+00  4.03878E-02
    8999.225      3.095   1.640  1.12597E+00  1.07391E+00  5.20551E-02
    8999.730      3.601   1.680  1.12962E+00  1.08199E+00  4.76343E-02
    9000.249      4.120   1.720  1.12253E+00  1.08920E+00  3.33338E-02
    9000.779      4.650   1.760  1.11597E+00  1.09558E+00  2.03966E-02
    9001.322      5.192   1.800  1.11938E+00  1.10111E+00  1.82655E-02
    9001.876      5.747   1.840  1.13807E+00  1.10584E+00  3.22253E-02
    9002.443      6.314   1.880  1.17424E+00  1.10980E+00  6.44346E-02
    9003.022      6.893   1.920  1.22361E+00  1.11300E+00  1.10612E-01
    9003.614      7.485   1.960  1.27047E+00  1.11548E+00  1.54988E-01
    9004.217      8.088   2.000  1.29456E+00  1.11731E+00  1.77255E-01
    9004.833      8.704   2.040  1.28841E+00  1.11847E+00  1.69943E-01
    9005.461      9.332   2.080  1.26324E+00  1.11903E+00  1.44210E-01
    9006.101      9.972   2.120  1.23480E+00  1.11902E+00  1.15787E-01
    9006.753     10.624   2.160  1.21316E+00  1.11851E+00  9.46500E-02
    9007.418     11.288   2.200  1.20516E+00  1.11750E+00  8.76619E-02
    9008.094     11.965   2.240  1.20702E+00  1.11604E+00  9.09821E-02
    9008.783     12.654   2.280  1.21240E+00  1.11416E+00  9.82415E-02
    9009.484     13.355   2.320  1.21878E+00  1.11192E+00  1.06854E-01
    9010.197     14.068   2.360  1.22544E+00  1.10935E+00  1.16082E-01
    9010.923     14.794   2.400  1.23241E+00  1.10649E+00  1.25921E-01
    9011.660     15.531   2.440  1.23906E+00  1.10336E+00  1.35697E-01
    9012.410     16.281   2.480  1.24458E+00  1.10002E+00  1.44565E-01
    9013.172     17.043   2.520  1.24688E+00  1.09647E+00  1.50410E-01
    9013.946     17.817   2.560  1.24314E+00  1.09275E+00  1.50391E-01
    9014.733     18.604   2.600  1.23157E+00  1.08887E+00  1.42698E-01
    9015.531     19.402   2.640  1.21202E+00  1.08489E+00  1.27127E-01
    9016.342     20.213   2.680  1.18591E+00  1.08083E+00  1.05083E-01
    9017.165     21.036   2.720  1.15588E+00  1.07671E+00  7.91748E-02
    9018.000     21.871   2.760  1.12450E+00  1.07252E+00  5.19765E-02
    9018.847     22.718   2.800  1.09362E+00  1.06833E+00  2.52977E-02
    9019.707     23.578   2.840  1.06462E+00  1.06413E+00  4.92559E-04
    9020.579     24.450   2.880  1.03847E+00  1.05995E+00 -2.14768E-02
    9021.463     25.334   2.920  1.01553E+00  1.05578E+00 -4.02508E-02
    9022.359     26.230   2.960  9.96188E-01  1.05167E+00 -5.54873E-02
    9023.267     27.138   3.000  9.80650E-01  1.04762E+00 -6.69726E-02
    9024.188     28.058   3.040  9.68816E-01  1.04362E+00 -7.48045E-02
    9025.120     28.991   3.080  9.60417E-01  1.03973E+00 -7.93117E-02
    9026.065     29.936   3.120  9.54945E-01  1.03593E+00 -8.09828E-02
    9027.022     30.893   3.160  9.51779E-01  1.03222E+00 -8.04393E-02
    9027.991     31.862   3.200  9.50472E-01  1.02861E+00 -7.81408E-02
    9028.973     32.844   3.240  9.50961E-01  1.02513E+00 -7.41689E-02
    9029.967     33.837   3.280  9.53300E-01  1.02179E+00 -6.84875E-02
    9030.972     34.843   3.320  9.57400E-01  1.01856E+00 -6.11624E-02
    9031.990     35.861   3.360  9.63042E-01  1.01549E+00 -5.24466E-02
    9033.021     36.892   3.400  9.69630E-01  1.01254E+00 -4.29106E-02
    9034.063     37.934   3.440  9.76293E-01  1.00973E+00 -3.34368E-02
    9035.118     38.989   3.480  9.82042E-01  1.00708E+00 -2.50412E-02
    9036.184     40.055   3.520  9.85972E-01  1.00459E+00 -1.86138E-02
    9037.263     41.134   3.560  9.87454E-01  1.00223E+00 -1.47732E-02
    9038.355     42.226   3.600  9.86295E-01  1.00005E+00 -1.37572E-02
    9039.458     43.329   3.640  9.82788E-01  9.97992E-01 -1.52037E-02
    9040.574     44.444   3.680  9.77924E-01  9.96117E-01 -1.81923E-02
    9041.701     45.572   3.720  9.72626E-01  9.94406E-01 -2.17800E-02
    9042.841     46.712   3.760  9.67663E-01  9.92832E-01 -2.51689E-02
    9043.993     47.864   3.800  9.63491E-01  9.91415E-01 -2.79231E-02
    9045.158     49.029   3.840  9.60115E-01  9.90165E-01 -3.00502E-02
    9046.334     50.205   3.880  9.57123E-01  9.89079E-01 -3.19557E-02
    9047.523     51.394   3.920  9.54147E-01  9.88150E-01 -3.40028E-02
    9048.724     52.595   3.960  9.50952E-01  9.87357E-01 -3.64058E-02
    9049.937     53.808   4.000  9.47624E-01  9.86722E-01 -3.90974E-02
    9051.162     55.033   4.040  9.44410E-01  9.86221E-01 -4.18115E-02
    9052.400     56.271   4.080  9.41557E-01  9.85873E-01 -4.43160E-02
    9053.649     57.520   4.120  9.39156E-01  9.85658E-01 -4.65014E-02
    9054.911     58.782   4.160  9.37333E-01  9.85573E-01 -4.82399E-02
    9056.185     60.056   4.200  9.36422E-01  9.85639E-01 -4.92171E-02
    9057.472     61.343   4.240  9.37000E-01  9.85834E-01 -4.88341E-02
    9058.770     62.641   4.280  9.39799E-01  9.86154E-01 -4.63551E-02
    9060.081     63.952   4.320  9.45349E-01  9.86598E-01 -4.12497E-02
    9061.403     65.274   4.360  9.53662E-01  9.87164E-01 -3.35022E-02
    9062.738     66.609   4.400  9.64286E-01  9.87848E-01 -2.35622E-02
    9064.086     67.957   4.440  9.76550E-01  9.88627E-01 -1.20764E-02
    9065.445     69.316   4.480  9.90028E-01  9.89519E-01  5.08732E-04
    9066.817     70.688   4.520  1.00473E+00  9.90499E-01  1.42334E-02
    9068.200     72.071   4.560  1.02106E+00  9.91564E-01  2.94984E-02
    9069.596     73.467   4.600  1.03930E+00  9.92712E-01  4.65853E-02
    9071.005     74.876   4.640  1.05899E+00  9.93941E-01  6.50475E-02
    9072.425     76.296   4.680  1.07867E+00  9.95248E-01  8.34188E-02
    9073.858     77.728   4.720  1.09605E+00  9.96608E-01  9.94451E-02
    9075.302     79.173   4.760  1.10863E+00  9.98041E-01  1.10594E-01
    9076.759     80.630   4.800  1.11424E+00  9.99543E-01  1.14693E-01
    9078.228     82.099   4.840  1.11181E+00  1.00107E+00  1.10740E-01
    9079.710     83.581   4.880  1.10216E+00  1.00263E+00  9.95357E-02
    9081.203     85.074   4.920  1.08769E+00  1.00423E+00  8.34694E-02
    9082.709     86.580   4.960  1.07131E+00  1.00586E+00  6.54502E-02
    9084.227     88.098   5.000  1.05526E+00  1.00750E+00  4.77599E-02
    9085.757     89.628   5.040  1.04078E+00  1.00914E+00  3.16420E-02
    9087.299     91.170   5.080  1.02830E+00  1.01078E+00  1.75188E-02
    9088.854     92.725   5.120  1.01781E+00  1.01242E+00  5.39129E-03
    9090.420     94.291   5.160  1.00920E+00  1.01405E+00 -4.85625E-03
    9091.999     95.870   5.200  1.00235E+00  1.01568E+00 -1.33327E-02
    9093.590     97.461   5.240  9.97059E-01  1.01725E+00 -2.01881E-02
    9095.193     99.064   5.280  9.93056E-01  1.01880E+00 -2.57428E-02
    9096.809    100.680   5.320  9.89956E-01  1.02031E+00 -3.03553E-02
    9098.436    102.307   5.360  9.87733E-01  1.02178E+00 -3.40478E-02
    9100.076    103.947   5.400  9.87001E-01  1.02321E+00 -3.62051E-02
    9101.728    105.599   5.440  9.88824E-01  1.02458E+00 -3.57566E-02
    9103.393    107.263   5.480  9.94085E-01  1.02586E+00 -3.17732E-02
    9105.069    108.940   5.520  1.00300E+00  1.02710E+00 -2.41084E-02
    9106.758    110.628   5.560  1.01447E+00  1.02825E+00 -1.37777E-02
    9108.458    112.329   5.600  1.02656E+00  1.02933E+00 -2.77344E-03
    9110.171    114.042   5.640  1.03703E+00  1.03031E+00  6.72280E-03
    9111.896    115.767   5.680  1.04444E+00  1.03123E+00  1.32131E-02
    9113.634    117.505   5.720  1.04839E+00  1.03203E+00  1.63552E-02
    9115.383    119.254   5.760  1.04959E+00  1.03275E+00  1.68392E-02
    9117.145    121.016   5.800  1.04905E+00  1.03336E+00  1.56929E-02
    9118.919    122.790   5.840  1.04738E+00  1.03389E+00  1.34850E-02
    9120.705    124.576   5.880  1.04423E+00  1.03432E+00  9.91043E-03
    9122.503    126.374   5.920  1.03882E+00  1.03461E+00  4.20803E-03
    9124.314    128.185   5.960  1.03072E+00  1.03479E+00 -4.07198E-03
    9126.137    130.008   6.000  1.02073E+00  1.03480E+00 -1.40752E-02
