# # comment:                                                     FEFF 9.9.1  
# # Source:
# # Structure
# # Reduced
# # space
# # abc:
# # angles:
# # sites:
# # POT  SCF 100  7.0000   0, screened core-hole, AFOLP (folp(0)= 1.150)
# # Abs   Z=29 Rmt= 1.154 Rnm= 1.262 K  shell
# # Pot 1 Z=12 Rmt= 1.344 Rnm= 1.445
# # Pot 2 Z=29 Rmt= 1.154 Rnm= 1.262
# # Pot 3 Z=14 Rmt= 1.006 Rnm= 1.219
# # Pot 4 Z= 8 Rmt= 0.907 Rnm= 1.072
# # Gam_ch=1.729E+00 H-L exch Vi= 0.000E+00 Vr= 0.000E+00
# # Mu=-7.328E+00eV kf=2.365E+00 Vint=-1.704E+01eV Rs_int= 1.534
# FMS rfms= 9.0000
# # PATH  Rmax=-1.000,  Keep_limit= 0.00, Heap_limit 0.00  Pwcrit= 2.50%
#  S02=0.950  Temp=   0.00  Debye_temp=   0.00  Global_sig2= 0.00000
#  Energy zero shift, vr, vi    0.00000E+00   0.00000E+00
#  Curved wave amplitude ratio filter   4.000%
#     file         sig2 tot  cw amp ratio   deg  nlegs   reff  inp sig2
#     0/   0 paths used
#  xsedge+ 50, used to normalize mu           2.4636E-04
#  -----------------------------------------------------------------------
#  omega    e    k    mu    mu0     chi     @#
    8983.779    -11.138  -1.000  3.67221E-02  5.26261E-02 -1.59040E-02
    8984.078    -10.839  -0.960  3.87000E-02  5.64448E-02 -1.77448E-02
    8984.365    -10.553  -0.920  4.08298E-02  6.06896E-02 -1.98598E-02
    8984.639    -10.278  -0.880  4.31258E-02  6.54233E-02 -2.22975E-02
    8984.901    -10.016  -0.840  4.56037E-02  7.07193E-02 -2.51156E-02
    8985.151     -9.766  -0.800  4.82801E-02  7.66627E-02 -2.83826E-02
    8985.389     -9.529  -0.760  5.11728E-02  8.33511E-02 -3.21783E-02
    8985.614     -9.303  -0.720  5.42999E-02  9.08948E-02 -3.65949E-02
    8985.828     -9.090  -0.680  5.76792E-02  9.94153E-02 -4.17361E-02
    8986.029     -8.888  -0.640  6.13273E-02  1.09041E-01 -4.77139E-02
    8986.218     -8.699  -0.600  6.52573E-02  1.19899E-01 -5.46414E-02
    8986.395     -8.523  -0.560  6.94760E-02  1.32095E-01 -6.26195E-02
    8986.559     -8.358  -0.520  7.39797E-02  1.45696E-01 -7.17161E-02
    8986.712     -8.206  -0.480  7.87491E-02  1.60686E-01 -8.19369E-02
    8986.852     -8.066  -0.440  8.37432E-02  1.76934E-01 -9.31909E-02
    8986.980     -7.937  -0.400  8.88945E-02  1.94157E-01 -1.05262E-01
    8987.096     -7.822  -0.360  9.41070E-02  2.11907E-01 -1.17800E-01
    8987.199     -7.718  -0.320  9.92597E-02  2.29607E-01 -1.30348E-01
    8987.291     -7.627  -0.280  1.04216E-01  2.46613E-01 -1.42397E-01
    8987.370     -7.547  -0.240  1.08836E-01  2.62308E-01 -1.53472E-01
    8987.437     -7.480  -0.200  1.12987E-01  2.76174E-01 -1.63187E-01
    8987.492     -7.425  -0.160  1.16554E-01  2.87834E-01 -1.71281E-01
    8987.535     -7.383  -0.120  1.19440E-01  2.97050E-01 -1.77609E-01
    8987.565     -7.352  -0.080  1.21571E-01  3.03687E-01 -1.82116E-01
    8987.589     -7.328   0.000  1.23347E-01  3.09019E-01 -1.85672E-01
    8987.644     -7.273   0.120  1.27362E-01  3.21037E-01 -1.93675E-01
    8987.687     -7.230   0.160  1.30518E-01  3.30376E-01 -1.99858E-01
    8987.742     -7.176   0.200  1.34630E-01  3.42275E-01 -2.07645E-01
    8987.809     -7.108   0.240  1.39844E-01  3.56605E-01 -2.16761E-01
    8987.888     -7.029   0.280  1.46213E-01  3.73035E-01 -2.26822E-01
    8987.980     -6.938   0.320  1.53883E-01  3.91134E-01 -2.37251E-01
    8988.083     -6.834   0.360  1.63041E-01  4.10395E-01 -2.47353E-01
    8988.199     -6.718   0.400  1.73927E-01  4.30212E-01 -2.56285E-01
    8988.327     -6.590   0.440  1.86901E-01  4.50094E-01 -2.63193E-01
    8988.467     -6.450   0.480  2.02451E-01  4.69621E-01 -2.67170E-01
    8988.620     -6.298   0.520  2.21190E-01  4.88543E-01 -2.67353E-01
    8988.784     -6.133   0.560  2.43856E-01  5.06725E-01 -2.62869E-01
    8988.961     -5.956   0.600  2.71238E-01  5.24155E-01 -2.52918E-01
    8989.150     -5.767   0.640  3.03955E-01  5.40872E-01 -2.36917E-01
    8989.351     -5.566   0.680  3.42134E-01  5.56970E-01 -2.14836E-01
    8989.564     -5.353   0.720  3.84510E-01  5.72538E-01 -1.88028E-01
    8989.790     -5.127   0.760  4.27466E-01  5.87663E-01 -1.60197E-01
    8990.028     -4.890   0.800  4.64943E-01  6.02424E-01 -1.37481E-01
    8990.278     -4.640   0.840  4.90538E-01  6.16927E-01 -1.26389E-01
    8990.540     -4.377   0.880  5.01142E-01  6.31204E-01 -1.30062E-01
    8990.814     -4.103   0.920  4.99339E-01  6.45294E-01 -1.45955E-01
    8991.101     -3.817   0.960  4.90915E-01  6.59246E-01 -1.68331E-01
    8991.399     -3.518   1.000  4.80004E-01  6.73055E-01 -1.93051E-01
    8991.710     -3.207   1.040  4.67993E-01  6.86750E-01 -2.18758E-01
    8992.033     -2.884   1.080  4.56073E-01  7.00333E-01 -2.44260E-01
    8992.369     -2.549   1.120  4.46120E-01  7.13774E-01 -2.67654E-01
    8992.716     -2.201   1.160  4.39000E-01  7.27106E-01 -2.88105E-01
    8993.076     -1.842   1.200  4.34225E-01  7.40292E-01 -3.06067E-01
    8993.448     -1.470   1.240  4.31827E-01  7.53315E-01 -3.21489E-01
    8993.832     -1.086   1.280  4.33299E-01  7.66154E-01 -3.32856E-01
    8994.228     -0.689   1.320  4.40398E-01  7.78804E-01 -3.38406E-01
    8994.636     -0.281   1.360  4.53267E-01  7.91240E-01 -3.37972E-01
    8995.057      0.140   1.400  4.69502E-01  8.03418E-01 -3.33915E-01
    8995.490      0.572   1.440  4.87251E-01  8.15330E-01 -3.28079E-01
    8995.935      1.017   1.480  5.08936E-01  8.26968E-01 -3.18032E-01
    8996.392      1.475   1.520  5.37314E-01  8.38307E-01 -3.00993E-01
    8996.861      1.944   1.560  5.70698E-01  8.49298E-01 -2.78600E-01
    8997.343      2.426   1.600  6.07586E-01  8.59956E-01 -2.52370E-01
    8997.837      2.919   1.640  6.55219E-01  8.70253E-01 -2.15035E-01
    8998.343      3.425   1.680  7.19836E-01  8.80164E-01 -1.60328E-01
    8998.861      3.944   1.720  7.95522E-01  8.89707E-01 -9.41848E-02
    8999.391      4.474   1.760  8.72862E-01  8.98835E-01 -2.59733E-02
    8999.934      5.016   1.800  9.50709E-01  9.07566E-01  4.31426E-02
    9000.488      5.571   1.840  1.02567E+00  9.15897E-01  1.09770E-01
    9001.055      6.138   1.880  1.08628E+00  9.23787E-01  1.62491E-01
    9001.635      6.717   1.920  1.13592E+00  9.31277E-01  2.04642E-01
    9002.226      7.309   1.960  1.18855E+00  9.38324E-01  2.50229E-01
    9002.829      7.912   2.000  1.24229E+00  9.44972E-01  2.97318E-01
    9003.445      8.528   2.040  1.28222E+00  9.51182E-01  3.31034E-01
    9004.073      9.156   2.080  1.29393E+00  9.57000E-01  3.36926E-01
    9004.713      9.796   2.120  1.27614E+00  9.62405E-01  3.13738E-01
    9005.365     10.448   2.160  1.23773E+00  9.67405E-01  2.70323E-01
    9006.030     11.112   2.200  1.19247E+00  9.72046E-01  2.20427E-01
    9006.706     11.789   2.240  1.15604E+00  9.76290E-01  1.79755E-01
    9007.395     12.478   2.280  1.13866E+00  9.80164E-01  1.58496E-01
    9008.096     13.179   2.320  1.14210E+00  9.83695E-01  1.58408E-01
    9008.809     13.892   2.360  1.16296E+00  9.86872E-01  1.76085E-01
    9009.535     14.618   2.400  1.19365E+00  9.89740E-01  2.03906E-01
    9010.273     15.355   2.440  1.22428E+00  9.92288E-01  2.31993E-01
    9011.022     16.105   2.480  1.24624E+00  9.94543E-01  2.51701E-01
    9011.784     16.867   2.520  1.25478E+00  9.96534E-01  2.58245E-01
    9012.559     17.641   2.560  1.24877E+00  9.98226E-01  2.50542E-01
    9013.345     18.428   2.600  1.22900E+00  9.99688E-01  2.29310E-01
    9014.143     19.226   2.640  1.19834E+00  1.00091E+00  1.97426E-01
    9014.954     20.037   2.680  1.16224E+00  1.00192E+00  1.60321E-01
    9015.777     20.860   2.720  1.12565E+00  1.00272E+00  1.22932E-01
    9016.612     21.695   2.760  1.09578E+00  1.00333E+00  9.24528E-02
    9017.460     22.542   2.800  1.07497E+00  1.00376E+00  7.12039E-02
    9018.319     23.402   2.840  1.05818E+00  1.00405E+00  5.41296E-02
    9019.191     24.274   2.880  1.04309E+00  1.00417E+00  3.89225E-02
    9020.075     25.158   2.920  1.02944E+00  1.00418E+00  2.52687E-02
    9020.971     26.054   2.960  1.01651E+00  1.00404E+00  1.24742E-02
    9021.879     26.962   3.000  1.00357E+00  1.00381E+00 -2.38311E-04
    9022.800     27.882   3.040  9.90004E-01  1.00349E+00 -1.34810E-02
    9023.732     28.815   3.080  9.75320E-01  1.00308E+00 -2.77607E-02
    9024.677     29.760   3.120  9.59419E-01  1.00260E+00 -4.31801E-02
    9025.634     30.717   3.160  9.42545E-01  1.00207E+00 -5.95201E-02
    9026.604     31.686   3.200  9.25175E-01  1.00146E+00 -7.62872E-02
    9027.585     32.668   3.240  9.08256E-01  1.00084E+00 -9.25818E-02
    9028.579     33.661   3.280  8.92646E-01  1.00015E+00 -1.07508E-01
    9029.585     34.667   3.320  8.78924E-01  9.99479E-01 -1.20555E-01
    9030.603     35.685   3.360  8.67159E-01  9.98753E-01 -1.31594E-01
    9031.633     36.716   3.400  8.57569E-01  9.98041E-01 -1.40472E-01
    9032.675     37.758   3.440  8.50196E-01  9.97329E-01 -1.47133E-01
    9033.730     38.813   3.480  8.45131E-01  9.96596E-01 -1.51465E-01
    9034.797     39.879   3.520  8.42618E-01  9.95908E-01 -1.53291E-01
    9035.876     40.958   3.560  8.42717E-01  9.95206E-01 -1.52489E-01
    9036.967     42.049   3.600  8.45404E-01  9.94535E-01 -1.49131E-01
    9038.070     43.153   3.640  8.50686E-01  9.93895E-01 -1.43209E-01
    9039.186     44.268   3.680  8.58468E-01  9.93268E-01 -1.34800E-01
    9040.313     45.396   3.720  8.68471E-01  9.92699E-01 -1.24228E-01
    9041.453     46.536   3.760  8.80262E-01  9.92145E-01 -1.11883E-01
    9042.606     47.688   3.800  8.93479E-01  9.91629E-01 -9.81500E-02
    9043.770     48.853   3.840  9.07731E-01  9.91154E-01 -8.34231E-02
    9044.946     50.029   3.880  9.22638E-01  9.90742E-01 -6.81042E-02
    9046.135     51.218   3.920  9.37994E-01  9.90352E-01 -5.23573E-02
    9047.336     52.419   3.960  9.53631E-01  9.90025E-01 -3.63937E-02
    9048.549     53.632   4.000  9.69165E-01  9.89741E-01 -2.05757E-02
    9049.774     54.857   4.040  9.84159E-01  9.89501E-01 -5.34193E-03
    9051.012     56.095   4.080  9.98219E-01  9.89325E-01  8.89310E-03
    9052.262     57.344   4.120  1.01098E+00  9.89172E-01  2.18044E-02
    9053.523     58.606   4.160  1.02236E+00  9.89083E-01  3.32777E-02
    9054.798     59.880   4.200  1.03234E+00  9.89038E-01  4.32995E-02
    9056.084     61.166   4.240  1.04082E+00  9.89037E-01  5.17809E-02
    9057.382     62.465   4.280  1.04769E+00  9.89099E-01  5.85904E-02
    9058.693     63.776   4.320  1.05290E+00  9.89183E-01  6.37143E-02
    9060.016     65.098   4.360  1.05663E+00  9.89329E-01  6.72981E-02
    9061.351     66.433   4.400  1.05913E+00  9.89515E-01  6.96162E-02
    9062.698     67.781   4.440  1.06070E+00  9.89720E-01  7.09815E-02
    9064.057     69.140   4.480  1.06148E+00  9.89986E-01  7.14925E-02
    9065.429     70.512   4.520  1.06130E+00  9.90290E-01  7.10083E-02
    9066.813     71.895   4.560  1.05998E+00  9.90610E-01  6.93693E-02
    9068.209     73.291   4.600  1.05757E+00  9.90987E-01  6.65842E-02
    9069.617     74.700   4.640  1.05433E+00  9.91375E-01  6.29520E-02
    9071.037     76.120   4.680  1.05072E+00  9.91774E-01  5.89421E-02
    9072.470     77.552   4.720  1.04706E+00  9.92205E-01  5.48596E-02
    9073.914     78.997   4.760  1.04334E+00  9.92667E-01  5.06751E-02
    9075.371     80.454   4.800  1.03931E+00  9.93139E-01  4.61708E-02
    9076.841     81.923   4.840  1.03485E+00  9.93639E-01  4.12158E-02
    9078.322     83.405   4.880  1.03008E+00  9.94143E-01  3.59365E-02
    9079.815     84.898   4.920  1.02540E+00  9.94650E-01  3.07546E-02
    9081.321     86.404   4.960  1.02138E+00  9.95160E-01  2.62226E-02
    9082.839     87.922   5.000  1.01850E+00  9.95692E-01  2.28070E-02
    9084.369     89.452   5.040  1.01697E+00  9.96201E-01  2.07667E-02
    9085.911     90.994   5.080  1.01676E+00  9.96705E-01  2.00583E-02
    9087.466     92.549   5.120  1.01752E+00  9.97207E-01  2.03156E-02
    9089.033     94.115   5.160  1.01853E+00  9.97704E-01  2.08280E-02
    9090.611     95.694   5.200  1.01885E+00  9.98173E-01  2.06772E-02
    9092.202     97.285   5.240  1.01769E+00  9.98656E-01  1.90369E-02
    9093.806     98.888   5.280  1.01451E+00  9.99086E-01  1.54204E-02
    9095.421    100.504   5.320  1.00934E+00  9.99505E-01  9.83182E-03
    9097.049    102.131   5.360  1.00260E+00  9.99914E-01  2.68832E-03
    9098.689    103.771   5.400  9.94959E-01  1.00029E+00 -5.32994E-03
    9100.341    105.423   5.440  9.87201E-01  1.00063E+00 -1.34251E-02
    9102.005    107.087   5.480  9.80102E-01  1.00093E+00 -2.08255E-02
    9103.681    108.764   5.520  9.74221E-01  1.00121E+00 -2.69933E-02
    9105.370    110.452   5.560  9.69672E-01  1.00146E+00 -3.17916E-02
    9107.070    112.153   5.600  9.66278E-01  1.00167E+00 -3.53936E-02
    9108.783    113.866   5.640  9.63782E-01  1.00182E+00 -3.80347E-02
    9110.509    115.591   5.680  9.62155E-01  1.00194E+00 -3.97899E-02
    9112.246    117.329   5.720  9.61421E-01  1.00203E+00 -4.06128E-02
    9113.996    119.078   5.760  9.61566E-01  1.00208E+00 -4.05170E-02
    9115.757    120.840   5.800  9.62341E-01  1.00209E+00 -3.97522E-02
    9117.531    122.614   5.840  9.63286E-01  1.00206E+00 -3.87762E-02
    9119.317    124.400   5.880  9.63935E-01  1.00199E+00 -3.80566E-02
    9121.116    126.198   5.920  9.64079E-01  1.00188E+00 -3.78000E-02
    9122.926    128.009   5.960  9.63939E-01  1.00169E+00 -3.77562E-02
    9124.749    129.832   6.000  9.64235E-01  1.00147E+00 -3.72322E-02
