# # comment:                                                     FEFF 9.9.1  
# # Source:
# # Structure
# # Reduced
# # space
# # abc:
# # angles:
# # sites:
# # POT  SCF 100  7.0000   0, screened core-hole, AFOLP (folp(0)= 1.150)
# # Abs   Z=29 Rmt= 1.264 Rnm= 1.334 K  shell
# # Pot 1 Z=29 Rmt= 1.298 Rnm= 1.370
# # Pot 2 Z=47 Rmt= 1.607 Rnm= 1.654
# # Pot 3 Z=15 Rmt= 0.941 Rnm= 1.159
# # Pot 4 Z= 8 Rmt= 0.930 Rnm= 1.051
# # Gam_ch=1.729E+00 H-L exch Vi= 0.000E+00 Vr= 0.000E+00
# # Mu=-6.562E+00eV kf=2.376E+00 Vint=-1.622E+01eV Rs_int= 1.526
# FMS rfms= 9.0000
# # PATH  Rmax=-1.000,  Keep_limit= 0.00, Heap_limit 0.00  Pwcrit= 2.50%
#  S02=0.950  Temp=   0.00  Debye_temp=   0.00  Global_sig2= 0.00000
#  Energy zero shift, vr, vi    0.00000E+00   0.00000E+00
#  Curved wave amplitude ratio filter   4.000%
#     file         sig2 tot  cw amp ratio   deg  nlegs   reff  inp sig2
#     0/   0 paths used
#  xsedge+ 50, used to normalize mu           2.4739E-04
#  -----------------------------------------------------------------------
#  omega    e    k    mu    mu0     chi     @#
    8983.336    -10.372  -1.000  3.66791E-02  5.13912E-02 -1.47121E-02
    8983.635    -10.073  -0.960  3.85268E-02  5.50909E-02 -1.65641E-02
    8983.921     -9.787  -0.920  4.05018E-02  5.92012E-02 -1.86994E-02
    8984.195     -9.512  -0.880  4.26157E-02  6.37828E-02 -2.11671E-02
    8984.458     -9.250  -0.840  4.48811E-02  6.89062E-02 -2.40251E-02
    8984.707     -9.000  -0.800  4.73116E-02  7.46531E-02 -2.73415E-02
    8984.945     -8.763  -0.760  4.99220E-02  8.11175E-02 -3.11954E-02
    8985.171     -8.537  -0.720  5.27278E-02  8.84052E-02 -3.56774E-02
    8985.384     -8.324  -0.680  5.57447E-02  9.66334E-02 -4.08887E-02
    8985.585     -8.123  -0.640  5.89876E-02  1.05925E-01 -4.69377E-02
    8985.774     -7.934  -0.600  6.24690E-02  1.16402E-01 -5.39331E-02
    8985.951     -7.757  -0.560  6.61964E-02  1.28168E-01 -6.19711E-02
    8986.116     -7.592  -0.520  7.01684E-02  1.41283E-01 -7.11146E-02
    8986.268     -7.440  -0.480  7.43700E-02  1.55735E-01 -8.13652E-02
    8986.408     -7.300  -0.440  7.87668E-02  1.71397E-01 -9.26302E-02
    8986.536     -7.172  -0.400  8.33002E-02  1.87995E-01 -1.04695E-01
    8986.652     -7.056  -0.360  8.78856E-02  2.05101E-01 -1.17215E-01
    8986.756     -6.952  -0.320  9.24156E-02  2.22156E-01 -1.29741E-01
    8986.847     -6.861  -0.280  9.67684E-02  2.38543E-01 -1.41775E-01
    8986.926     -6.781  -0.240  1.00819E-01  2.53666E-01 -1.52847E-01
    8986.993     -6.714  -0.200  1.04452E-01  2.67028E-01 -1.62576E-01
    8987.048     -6.659  -0.160  1.07567E-01  2.78266E-01 -1.70699E-01
    8987.091     -6.617  -0.120  1.10082E-01  2.87148E-01 -1.77065E-01
    8987.121     -6.586  -0.080  1.11937E-01  2.93545E-01 -1.81609E-01
    8987.146     -6.562   0.000  1.13482E-01  2.98686E-01 -1.85204E-01
    8987.201     -6.507   0.120  1.16959E-01  3.10272E-01 -1.93314E-01
    8987.243     -6.464   0.160  1.19675E-01  3.19272E-01 -1.99597E-01
    8987.298     -6.410   0.200  1.23221E-01  3.30745E-01 -2.07524E-01
    8987.365     -6.342   0.240  1.27658E-01  3.44570E-01 -2.16913E-01
    8987.445     -6.263   0.280  1.33011E-01  3.60406E-01 -2.27395E-01
    8987.536     -6.172   0.320  1.39395E-01  3.77884E-01 -2.38490E-01
    8987.640     -6.068   0.360  1.46869E-01  3.96475E-01 -2.49607E-01
    8987.755     -5.952   0.400  1.55599E-01  4.15639E-01 -2.60040E-01
    8987.883     -5.824   0.440  1.65701E-01  4.34864E-01 -2.69163E-01
    8988.024     -5.684   0.480  1.77434E-01  4.53768E-01 -2.76334E-01
    8988.176     -5.532   0.520  1.91035E-01  4.72111E-01 -2.81075E-01
    8988.341     -5.367   0.560  2.06670E-01  4.89782E-01 -2.83112E-01
    8988.517     -5.190   0.600  2.24304E-01  5.06732E-01 -2.82428E-01
    8988.706     -5.001   0.640  2.43633E-01  5.23038E-01 -2.79405E-01
    8988.908     -4.800   0.680  2.64026E-01  5.38751E-01 -2.74725E-01
    8989.121     -4.587   0.720  2.84914E-01  5.53997E-01 -2.69082E-01
    8989.347     -4.361   0.760  3.06015E-01  5.68838E-01 -2.62823E-01
    8989.584     -4.124   0.800  3.27448E-01  5.83390E-01 -2.55942E-01
    8989.834     -3.874   0.840  3.49251E-01  5.97696E-01 -2.48445E-01
    8990.096     -3.611   0.880  3.71384E-01  6.11826E-01 -2.40442E-01
    8990.371     -3.337   0.920  3.93683E-01  6.25797E-01 -2.32114E-01
    8990.657     -3.051   0.960  4.16168E-01  6.39656E-01 -2.23488E-01
    8990.956     -2.752   1.000  4.38493E-01  6.53438E-01 -2.14945E-01
    8991.267     -2.441   1.040  4.58498E-01  6.67132E-01 -2.08634E-01
    8991.590     -2.118   1.080  4.71627E-01  6.80756E-01 -2.09128E-01
    8991.925     -1.783   1.120  4.75959E-01  6.94284E-01 -2.18324E-01
    8992.273     -1.435   1.160  4.78070E-01  7.07725E-01 -2.29655E-01
    8992.632     -1.076   1.200  4.88213E-01  7.21083E-01 -2.32870E-01
    8993.004     -0.704   1.240  5.12694E-01  7.34300E-01 -2.21605E-01
    8993.388     -0.320   1.280  5.51877E-01  7.47374E-01 -1.95497E-01
    8993.784      0.077   1.320  6.00617E-01  7.60281E-01 -1.59665E-01
    8994.193      0.485   1.360  6.50725E-01  7.73017E-01 -1.22292E-01
    8994.613      0.906   1.400  6.95752E-01  7.85553E-01 -8.98008E-02
    8995.046      1.338   1.440  7.37404E-01  7.97863E-01 -6.04593E-02
    8995.491      1.783   1.480  7.86554E-01  8.09899E-01 -2.33447E-02
    8995.948      2.241   1.520  8.50644E-01  8.21673E-01  2.89707E-02
    8996.418      2.710   1.560  9.23985E-01  8.33157E-01  9.08276E-02
    8996.899      3.192   1.600  9.90102E-01  8.44323E-01  1.45779E-01
    8997.393      3.685   1.640  1.03262E+00  8.55143E-01  1.77478E-01
    8997.899      4.191   1.680  1.05261E+00  8.65631E-01  1.86980E-01
    8998.417      4.710   1.720  1.06915E+00  8.75740E-01  1.93407E-01
    8998.948      5.240   1.760  1.09677E+00  8.85463E-01  2.11311E-01
    8999.490      5.782   1.800  1.12847E+00  8.94799E-01  2.33667E-01
    9000.045      6.337   1.840  1.15114E+00  9.03721E-01  2.47416E-01
    9000.612      6.904   1.880  1.16097E+00  9.12247E-01  2.48719E-01
    9001.191      7.483   1.920  1.16217E+00  9.20356E-01  2.41809E-01
    9001.782      8.075   1.960  1.15901E+00  9.28047E-01  2.30964E-01
    9002.386      8.678   2.000  1.15412E+00  9.35318E-01  2.18802E-01
    9003.001      9.294   2.040  1.15171E+00  9.42151E-01  2.09554E-01
    9003.629      9.922   2.080  1.15455E+00  9.48588E-01  2.05962E-01
    9004.269     10.562   2.120  1.16063E+00  9.54612E-01  2.06019E-01
    9004.922     11.214   2.160  1.16404E+00  9.60224E-01  2.03814E-01
    9005.586     11.878   2.200  1.16135E+00  9.65428E-01  1.95926E-01
    9006.263     12.555   2.240  1.15462E+00  9.70230E-01  1.84385E-01
    9006.952     13.244   2.280  1.14978E+00  9.74677E-01  1.75102E-01
    9007.653     13.945   2.320  1.15207E+00  9.78731E-01  1.73340E-01
    9008.366     14.658   2.360  1.16127E+00  9.82439E-01  1.78828E-01
    9009.091     15.384   2.400  1.17071E+00  9.85789E-01  1.84918E-01
    9009.829     16.121   2.440  1.17150E+00  9.88806E-01  1.82694E-01
    9010.579     16.871   2.480  1.15939E+00  9.91497E-01  1.67892E-01
    9011.341     17.633   2.520  1.13389E+00  9.93872E-01  1.40023E-01
    9012.115     18.407   2.560  1.09794E+00  9.95977E-01  1.01961E-01
    9012.901     19.194   2.600  1.05851E+00  9.97800E-01  6.07097E-02
    9013.700     19.992   2.640  1.02446E+00  9.99349E-01  2.51122E-02
    9014.511     20.803   2.680  9.99968E-01  1.00067E+00 -7.05783E-04
    9015.334     21.626   2.720  9.81308E-01  1.00176E+00 -2.04505E-02
    9016.169     22.461   2.760  9.61432E-01  1.00263E+00 -4.12014E-02
    9017.016     23.308   2.800  9.40087E-01  1.00328E+00 -6.31967E-02
    9017.876     24.168   2.840  9.20049E-01  1.00378E+00 -8.37294E-02
    9018.747     25.040   2.880  9.01452E-01  1.00409E+00 -1.02635E-01
    9019.631     25.924   2.920  8.85279E-01  1.00423E+00 -1.18954E-01
    9020.527     26.820   2.960  8.72045E-01  1.00425E+00 -1.32201E-01
    9021.436     27.728   3.000  8.61912E-01  1.00413E+00 -1.42221E-01
    9022.356     28.648   3.040  8.54690E-01  1.00390E+00 -1.49210E-01
    9023.289     29.581   3.080  8.50203E-01  1.00357E+00 -1.53370E-01
    9024.234     30.526   3.120  8.48509E-01  1.00314E+00 -1.54629E-01
    9025.191     31.483   3.160  8.49812E-01  1.00262E+00 -1.52810E-01
    9026.160     32.452   3.200  8.54102E-01  1.00205E+00 -1.47948E-01
    9027.142     33.434   3.240  8.61422E-01  1.00143E+00 -1.40006E-01
    9028.135     34.427   3.280  8.71528E-01  1.00074E+00 -1.29210E-01
    9029.141     35.433   3.320  8.83426E-01  1.00001E+00 -1.16581E-01
    9030.159     36.451   3.360  8.95999E-01  9.99260E-01 -1.03260E-01
    9031.189     37.481   3.400  9.08466E-01  9.98480E-01 -9.00133E-02
    9032.232     38.524   3.440  9.20318E-01  9.97670E-01 -7.73522E-02
    9033.286     39.578   3.480  9.31545E-01  9.96878E-01 -6.53329E-02
    9034.353     40.645   3.520  9.42470E-01  9.96086E-01 -5.36165E-02
    9035.432     41.724   3.560  9.53575E-01  9.95295E-01 -4.17201E-02
    9036.523     42.815   3.600  9.65314E-01  9.94509E-01 -2.91949E-02
    9037.627     43.919   3.640  9.77907E-01  9.93751E-01 -1.58444E-02
    9038.742     45.034   3.680  9.91050E-01  9.93002E-01 -1.95171E-03
    9039.870     46.162   3.720  1.00407E+00  9.92286E-01  1.17864E-02
    9041.010     47.302   3.760  1.01628E+00  9.91604E-01  2.46749E-02
    9042.162     48.454   3.800  1.02721E+00  9.90938E-01  3.62711E-02
    9043.326     49.619   3.840  1.03657E+00  9.90331E-01  4.62350E-02
    9044.503     50.795   3.880  1.04407E+00  9.89763E-01  5.43079E-02
    9045.692     51.984   3.920  1.04952E+00  9.89215E-01  6.03004E-02
    9046.892     53.185   3.960  1.05292E+00  9.88729E-01  6.41946E-02
    9048.106     54.398   4.000  1.05447E+00  9.88284E-01  6.61880E-02
    9049.331     55.623   4.040  1.05453E+00  9.87884E-01  6.66490E-02
    9050.568     56.861   4.080  1.05332E+00  9.87548E-01  6.57734E-02
    9051.818     58.110   4.120  1.05073E+00  9.87234E-01  6.34956E-02
    9053.080     59.372   4.160  1.04666E+00  9.86985E-01  5.96733E-02
    9054.354     60.646   4.200  1.04115E+00  9.86781E-01  5.43644E-02
    9055.640     61.932   4.240  1.03459E+00  9.86641E-01  4.79474E-02
    9056.939     63.231   4.280  1.02764E+00  9.86523E-01  4.11145E-02
    9058.249     64.542   4.320  1.02114E+00  9.86469E-01  3.46673E-02
    9059.572     65.864   4.360  1.01565E+00  9.86458E-01  2.91935E-02
    9060.907     67.199   4.400  1.01145E+00  9.86487E-01  2.49632E-02
    9062.254     68.547   4.440  1.00852E+00  9.86557E-01  2.19645E-02
    9063.614     69.906   4.480  1.00671E+00  9.86666E-01  2.00445E-02
    9064.985     71.278   4.520  1.00592E+00  9.86815E-01  1.91033E-02
    9066.369     72.661   4.560  1.00615E+00  9.87003E-01  1.91466E-02
    9067.765     74.057   4.600  1.00737E+00  9.87228E-01  2.01453E-02
    9069.173     75.466   4.640  1.00931E+00  9.87488E-01  2.18178E-02
    9070.594     76.886   4.680  1.01130E+00  9.87763E-01  2.35359E-02
    9072.026     78.318   4.720  1.01252E+00  9.88070E-01  2.44520E-02
    9073.471     79.763   4.760  1.01213E+00  9.88413E-01  2.37186E-02
    9074.928     81.220   4.800  1.00960E+00  9.88787E-01  2.08174E-02
    9076.397     82.689   4.840  1.00492E+00  9.89169E-01  1.57520E-02
    9077.878     84.171   4.880  9.98625E-01  9.89557E-01  9.06811E-03
    9079.372     85.664   4.920  9.91702E-01  9.89971E-01  1.73073E-03
    9080.878     87.170   4.960  9.85159E-01  9.90367E-01 -5.20765E-03
    9082.395     88.688   5.000  9.79871E-01  9.90787E-01 -1.09163E-02
    9083.926     90.218   5.040  9.76252E-01  9.91232E-01 -1.49806E-02
    9085.468     91.760   5.080  9.74172E-01  9.91656E-01 -1.74837E-02
    9087.022     93.315   5.120  9.73172E-01  9.92077E-01 -1.89043E-02
    9088.589     94.881   5.160  9.72546E-01  9.92493E-01 -1.99478E-02
    9090.168     96.460   5.200  9.71727E-01  9.92905E-01 -2.11782E-02
    9091.759     98.051   5.240  9.70446E-01  9.93290E-01 -2.28435E-02
    9093.362     99.654   5.280  9.68754E-01  9.93667E-01 -2.49123E-02
    9094.978    101.270   5.320  9.66815E-01  9.94037E-01 -2.72212E-02
    9096.605    102.897   5.360  9.64802E-01  9.94375E-01 -2.95731E-02
    9098.245    104.537   5.400  9.62945E-01  9.94704E-01 -3.17592E-02
    9099.897    106.189   5.440  9.61388E-01  9.95001E-01 -3.36136E-02
    9101.561    107.853   5.480  9.60299E-01  9.95287E-01 -3.49885E-02
    9103.238    109.530   5.520  9.59872E-01  9.95537E-01 -3.56650E-02
    9104.926    111.218   5.560  9.60414E-01  9.95748E-01 -3.53342E-02
    9106.627    112.919   5.600  9.62198E-01  9.95922E-01 -3.37239E-02
    9108.340    114.632   5.640  9.65306E-01  9.96059E-01 -3.07528E-02
    9110.065    116.357   5.680  9.69602E-01  9.96181E-01 -2.65789E-02
    9111.802    118.095   5.720  9.74689E-01  9.96265E-01 -2.15760E-02
    9113.552    119.844   5.760  9.80049E-01  9.96286E-01 -1.62376E-02
    9115.314    121.606   5.800  9.85190E-01  9.96291E-01 -1.11003E-02
    9117.088    123.380   5.840  9.89572E-01  9.96259E-01 -6.68638E-03
    9118.874    125.166   5.880  9.92753E-01  9.96188E-01 -3.43466E-03
    9120.672    126.964   5.920  9.94506E-01  9.96077E-01 -1.57112E-03
    9122.483    128.775   5.960  9.94937E-01  9.95898E-01 -9.60286E-04
    9124.305    130.597   6.000  9.94621E-01  9.95681E-01 -1.05975E-03
