# # comment:                                                     FEFF 9.9.1  
# # Source:
# # Structure
# # Reduced
# # space
# # abc:
# # angles:
# # sites:
# # POT  SCF 100  7.0000   0, screened core-hole, AFOLP (folp(0)= 1.150)
# # Abs   Z=29 Rmt= 1.366 Rnm= 1.402 K  shell
# # Pot 1 Z=29 Rmt= 1.357 Rnm= 1.398
# # Pot 2 Z= 8 Rmt= 0.924 Rnm= 1.057
# # Gam_ch=1.729E+00 H-L exch Vi= 0.000E+00 Vr= 0.000E+00
# # Mu=-7.905E+00eV kf=1.990E+00 Vint=-1.656E+01eV Rs_int= 1.822
# FMS rfms= 9.0000
# # PATH  Rmax=-1.000,  Keep_limit= 0.00, Heap_limit 0.00  Pwcrit= 2.50%
#  S02=0.950  Temp=   0.00  Debye_temp=   0.00  Global_sig2= 0.00000
#  Energy zero shift, vr, vi    0.00000E+00   0.00000E+00
#  Curved wave amplitude ratio filter   4.000%
#     file         sig2 tot  cw amp ratio   deg  nlegs   reff  inp sig2
#     0/   0 paths used
#  xsedge+ 50, used to normalize mu           2.4548E-04
#  -----------------------------------------------------------------------
#  omega    e    k    mu    mu0     chi     @#
    8984.609    -11.715  -1.000  4.98226E-02  5.83289E-02 -8.50621E-03
    8984.908    -11.416  -0.960  5.33263E-02  6.27172E-02 -9.39087E-03
    8985.195    -11.129  -0.920  5.72204E-02  6.76053E-02 -1.03850E-02
    8985.469    -10.855  -0.880  6.15639E-02  7.30678E-02 -1.15039E-02
    8985.731    -10.593  -0.840  6.64259E-02  7.91914E-02 -1.27654E-02
    8985.981    -10.343  -0.800  7.18865E-02  8.60765E-02 -1.41900E-02
    8986.219    -10.105  -0.760  7.80380E-02  9.38389E-02 -1.58009E-02
    8986.444     -9.880  -0.720  8.49850E-02  1.02609E-01 -1.76239E-02
    8986.658     -9.666  -0.680  9.28430E-02  1.12531E-01 -1.96877E-02
    8986.859     -9.465  -0.640  1.01734E-01  1.23756E-01 -2.20219E-02
    8987.048     -9.276  -0.600  1.11780E-01  1.36435E-01 -2.46555E-02
    8987.225     -9.099  -0.560  1.23083E-01  1.50695E-01 -2.76125E-02
    8987.389     -8.935  -0.520  1.35708E-01  1.66614E-01 -3.09059E-02
    8987.542     -8.782  -0.480  1.49645E-01  1.84175E-01 -3.45296E-02
    8987.682     -8.642  -0.440  1.64776E-01  2.03224E-01 -3.84481E-02
    8987.810     -8.514  -0.400  1.80838E-01  2.23427E-01 -4.25890E-02
    8987.926     -8.398  -0.360  1.97420E-01  2.44260E-01 -4.68406E-02
    8988.029     -8.295  -0.320  2.13980E-01  2.65040E-01 -5.10603E-02
    8988.121     -8.203  -0.280  2.29917E-01  2.85010E-01 -5.50923E-02
    8988.200     -8.124  -0.240  2.44650E-01  3.03441E-01 -5.87904E-02
    8988.267     -8.057  -0.200  2.57689E-01  3.19725E-01 -6.20360E-02
    8988.322     -8.002  -0.160  2.68672E-01  3.33418E-01 -6.47464E-02
    8988.364     -7.960  -0.120  2.77366E-01  3.44239E-01 -6.68728E-02
    8988.395     -7.929  -0.080  2.83639E-01  3.52032E-01 -6.83927E-02
    8988.419     -7.905   0.000  2.88689E-01  3.58290E-01 -6.96007E-02
    8988.474     -7.850   0.120  3.00021E-01  3.72408E-01 -7.23871E-02
    8988.517     -7.807   0.160  3.08827E-01  3.83364E-01 -7.45362E-02
    8988.572     -7.752   0.200  3.20064E-01  3.97330E-01 -7.72657E-02
    8988.639     -7.685   0.240  3.33610E-01  4.14130E-01 -8.05206E-02
    8988.718     -7.606   0.280  3.49170E-01  4.33398E-01 -8.42284E-02
    8988.809     -7.515   0.320  3.66328E-01  4.54608E-01 -8.82803E-02
    8988.913     -7.411   0.360  3.84588E-01  4.77155E-01 -9.25672E-02
    8989.029     -7.295   0.400  4.03309E-01  5.00309E-01 -9.70007E-02
    8989.157     -7.167   0.440  4.21956E-01  5.23505E-01 -1.01549E-01
    8989.297     -7.027   0.480  4.39934E-01  5.46207E-01 -1.06274E-01
    8989.450     -6.874   0.520  4.56781E-01  5.68115E-01 -1.11333E-01
    8989.614     -6.710   0.560  4.72085E-01  5.89085E-01 -1.16999E-01
    8989.791     -6.533   0.600  4.85384E-01  6.09037E-01 -1.23653E-01
    8989.980     -6.344   0.640  4.96305E-01  6.28055E-01 -1.31750E-01
    8990.181     -6.143   0.680  5.04432E-01  6.46221E-01 -1.41789E-01
    8990.394     -5.930   0.720  5.09390E-01  6.63594E-01 -1.54204E-01
    8990.620     -5.704   0.760  5.11098E-01  6.80293E-01 -1.69195E-01
    8990.858     -5.466   0.800  5.09822E-01  6.96385E-01 -1.86563E-01
    8991.108     -5.216   0.840  5.06406E-01  7.11966E-01 -2.05560E-01
    8991.370     -4.954   0.880  5.02225E-01  7.27071E-01 -2.24846E-01
    8991.644     -4.680   0.920  4.99092E-01  7.41744E-01 -2.42651E-01
    8991.931     -4.393   0.960  4.98995E-01  7.56016E-01 -2.57021E-01
    8992.229     -4.095   1.000  5.03763E-01  7.69865E-01 -2.66101E-01
    8992.540     -3.784   1.040  5.14848E-01  7.83339E-01 -2.68491E-01
    8992.863     -3.461   1.080  5.32797E-01  7.96423E-01 -2.63626E-01
    8993.199     -3.125   1.120  5.57216E-01  8.09109E-01 -2.51893E-01
    8993.546     -2.778   1.160  5.87147E-01  8.21389E-01 -2.34242E-01
    8993.906     -2.418   1.200  6.21535E-01  8.33231E-01 -2.11695E-01
    8994.278     -2.046   1.240  6.58504E-01  8.44659E-01 -1.86154E-01
    8994.662     -1.662   1.280  6.93648E-01  8.55615E-01 -1.61967E-01
    8995.058     -1.266   1.320  7.21249E-01  8.66122E-01 -1.44873E-01
    8995.466     -0.858   1.360  7.38801E-01  8.76163E-01 -1.37362E-01
    8995.887     -0.437   1.400  7.49739E-01  8.85717E-01 -1.35978E-01
    8996.320     -0.004   1.440  7.60654E-01  8.94786E-01 -1.34133E-01
    8996.765      0.441   1.480  7.77158E-01  9.03353E-01 -1.26195E-01
    8997.222      0.898   1.520  8.03023E-01  9.11441E-01 -1.08419E-01
    8997.691      1.367   1.560  8.41123E-01  9.19035E-01 -7.79116E-02
    8998.173      1.849   1.600  8.93747E-01  9.26138E-01 -3.23907E-02
    8998.667      2.343   1.640  9.60834E-01  9.32756E-01  2.80780E-02
    8999.173      2.849   1.680  1.03683E+00  9.38915E-01  9.79104E-02
    8999.691      3.367   1.720  1.10846E+00  9.44604E-01  1.63852E-01
    9000.221      3.897   1.760  1.15997E+00  9.49830E-01  2.10139E-01
    9000.764      4.440   1.800  1.18528E+00  9.54642E-01  2.30643E-01
    9001.318      4.994   1.840  1.18980E+00  9.59030E-01  2.30766E-01
    9001.885      5.561   1.880  1.17914E+00  9.63005E-01  2.16136E-01
    9002.464      6.140   1.920  1.15523E+00  9.66616E-01  1.88609E-01
    9003.056      6.732   1.960  1.12147E+00  9.69854E-01  1.51615E-01
    9003.659      7.335   2.000  1.08451E+00  9.72750E-01  1.11758E-01
    9004.275      7.951   2.040  1.05078E+00  9.75316E-01  7.54600E-02
    9004.903      8.579   2.080  1.02569E+00  9.77604E-01  4.80868E-02
    9005.543      9.219   2.120  1.01536E+00  9.79605E-01  3.57512E-02
    9006.195      9.871   2.160  1.02539E+00  9.81348E-01  4.40371E-02
    9006.860     10.536   2.200  1.05443E+00  9.82845E-01  7.15868E-02
    9007.536     11.212   2.240  1.08773E+00  9.84129E-01  1.03597E-01
    9008.225     11.901   2.280  1.10390E+00  9.85226E-01  1.18676E-01
    9008.926     12.602   2.320  1.09837E+00  9.86130E-01  1.12238E-01
    9009.639     13.315   2.360  1.08736E+00  9.86889E-01  1.00474E-01
    9010.365     14.041   2.400  1.07647E+00  9.87491E-01  8.89786E-02
    9011.102     14.778   2.440  1.05807E+00  9.87966E-01  7.01041E-02
    9011.852     15.528   2.480  1.03316E+00  9.88343E-01  4.48155E-02
    9012.614     16.290   2.520  1.00352E+00  9.88608E-01  1.49123E-02
    9013.388     17.064   2.560  9.74404E-01  9.88810E-01 -1.44062E-02
    9014.175     17.851   2.600  9.49709E-01  9.88936E-01 -3.92271E-02
    9014.973     18.649   2.640  9.31851E-01  9.89012E-01 -5.71618E-02
    9015.784     19.460   2.680  9.21934E-01  9.89044E-01 -6.71106E-02
    9016.607     20.283   2.720  9.19035E-01  9.89037E-01 -7.00018E-02
    9017.442     21.118   2.760  9.21727E-01  9.89018E-01 -6.72908E-02
    9018.290     21.966   2.800  9.27336E-01  9.88970E-01 -6.16337E-02
    9019.149     22.825   2.840  9.34222E-01  9.88938E-01 -5.47155E-02
    9020.021     23.697   2.880  9.41472E-01  9.88885E-01 -4.74128E-02
    9020.905     24.581   2.920  9.49018E-01  9.88856E-01 -3.98385E-02
    9021.801     25.477   2.960  9.57086E-01  9.88855E-01 -3.17688E-02
    9022.709     26.385   3.000  9.66086E-01  9.88862E-01 -2.27758E-02
    9023.630     27.306   3.040  9.76253E-01  9.88880E-01 -1.26269E-02
    9024.562     28.238   3.080  9.87383E-01  9.88951E-01 -1.56742E-03
    9025.507     29.183   3.120  9.99211E-01  9.89036E-01  1.01742E-02
    9026.464     30.140   3.160  1.01117E+00  9.89158E-01  2.20139E-02
    9027.434     31.110   3.200  1.02257E+00  9.89317E-01  3.32513E-02
    9028.415     32.091   3.240  1.03243E+00  9.89515E-01  4.29164E-02
    9029.409     33.085   3.280  1.03985E+00  9.89750E-01  5.01023E-02
    9030.415     34.091   3.320  1.04420E+00  9.90025E-01  5.41770E-02
    9031.433     35.109   3.360  1.04505E+00  9.90339E-01  5.47124E-02
    9032.463     36.139   3.400  1.04191E+00  9.90692E-01  5.12196E-02
    9033.505     37.181   3.440  1.03476E+00  9.91082E-01  4.36729E-02
    9034.560     38.236   3.480  1.02392E+00  9.91511E-01  3.24092E-02
    9035.627     39.303   3.520  1.01018E+00  9.91977E-01  1.81979E-02
    9036.706     40.382   3.560  9.94616E-01  9.92458E-01  2.15775E-03
    9037.797     41.473   3.600  9.78558E-01  9.92996E-01 -1.44376E-02
    9038.900     42.576   3.640  9.62990E-01  9.93547E-01 -3.05563E-02
    9040.016     43.692   3.680  9.48816E-01  9.94130E-01 -4.53145E-02
    9041.143     44.819   3.720  9.36819E-01  9.94747E-01 -5.79274E-02
    9042.283     45.959   3.760  9.27677E-01  9.95372E-01 -6.76946E-02
    9043.436     47.112   3.800  9.21885E-01  9.96004E-01 -7.41184E-02
    9044.600     48.276   3.840  9.19559E-01  9.96663E-01 -7.71043E-02
    9045.776     49.452   3.880  9.20296E-01  9.97349E-01 -7.70526E-02
    9046.965     50.641   3.920  9.23257E-01  9.98016E-01 -7.47594E-02
    9048.166     51.842   3.960  9.27768E-01  9.98705E-01 -7.09370E-02
    9049.379     53.055   4.000  9.33451E-01  9.99372E-01 -6.59206E-02
    9050.604     54.280   4.040  9.40361E-01  1.00006E+00 -5.96963E-02
    9051.842     55.518   4.080  9.48561E-01  1.00072E+00 -5.21583E-02
    9053.092     56.768   4.120  9.57957E-01  1.00140E+00 -4.34410E-02
    9054.353     58.029   4.160  9.68082E-01  1.00205E+00 -3.39646E-02
    9055.627     59.303   4.200  9.78036E-01  1.00266E+00 -2.46274E-02
    9056.914     60.590   4.240  9.86701E-01  1.00327E+00 -1.65699E-02
    9058.212     61.888   4.280  9.93338E-01  1.00387E+00 -1.05289E-02
    9059.523     63.199   4.320  9.98205E-01  1.00443E+00 -6.22314E-03
    9060.846     64.522   4.360  1.00255E+00  1.00495E+00 -2.40570E-03
    9062.181     65.857   4.400  1.00765E+00  1.00544E+00  2.21255E-03
    9063.528     67.204   4.440  1.01403E+00  1.00591E+00  8.11363E-03
    9064.887     68.563   4.480  1.02133E+00  1.00635E+00  1.49879E-02
    9066.259     69.935   4.520  1.02907E+00  1.00674E+00  2.23313E-02
    9067.643     71.319   4.560  1.03704E+00  1.00709E+00  2.99487E-02
    9069.039     72.715   4.600  1.04541E+00  1.00740E+00  3.80122E-02
    9070.447     74.123   4.640  1.05454E+00  1.00767E+00  4.68662E-02
    9071.867     75.543   4.680  1.06479E+00  1.00789E+00  5.68978E-02
    9073.300     76.976   4.720  1.07639E+00  1.00805E+00  6.83335E-02
    9074.744     78.420   4.760  1.08931E+00  1.00819E+00  8.11194E-02
    9076.201     79.877   4.800  1.10337E+00  1.00829E+00  9.50866E-02
    9077.671     81.347   4.840  1.11820E+00  1.00834E+00  1.09863E-01
    9079.152     82.828   4.880  1.13223E+00  1.00833E+00  1.23900E-01
    9080.645     84.321   4.920  1.14185E+00  1.00830E+00  1.33556E-01
    9082.151     85.827   4.960  1.14239E+00  1.00820E+00  1.34193E-01
    9083.669     87.345   5.000  1.13105E+00  1.00808E+00  1.22971E-01
    9085.199     88.875   5.040  1.10860E+00  1.00790E+00  1.00693E-01
    9086.741     90.417   5.080  1.07900E+00  1.00770E+00  7.12978E-02
    9088.296     91.972   5.120  1.04723E+00  1.00744E+00  3.97920E-02
    9089.862     93.538   5.160  1.01738E+00  1.00716E+00  1.02185E-02
    9091.441     95.117   5.200  9.91504E-01  1.00685E+00 -1.53410E-02
    9093.032     96.708   5.240  9.69773E-01  1.00649E+00 -3.67190E-02
    9094.636     98.312   5.280  9.50633E-01  1.00613E+00 -5.54937E-02
    9096.251     99.927   5.320  9.31691E-01  1.00572E+00 -7.40333E-02
    9097.879    101.555   5.360  9.11290E-01  1.00529E+00 -9.39948E-02
    9099.518    103.194   5.400  8.89851E-01  1.00481E+00 -1.14960E-01
    9101.170    104.846   5.440  8.69804E-01  1.00433E+00 -1.34525E-01
    9102.835    106.511   5.480  8.53839E-01  1.00384E+00 -1.50002E-01
    9104.511    108.187   5.520  8.43278E-01  1.00332E+00 -1.60043E-01
    9106.200    109.876   5.560  8.38358E-01  1.00280E+00 -1.64437E-01
    9107.900    111.576   5.600  8.39480E-01  1.00227E+00 -1.62785E-01
    9109.613    113.289   5.640  8.47058E-01  1.00171E+00 -1.54653E-01
    9111.339    115.015   5.680  8.60575E-01  1.00117E+00 -1.40599E-01
    9113.076    116.752   5.720  8.78718E-01  1.00061E+00 -1.21896E-01
    9114.825    118.501   5.760  9.00916E-01  1.00006E+00 -9.91400E-02
    9116.587    120.263   5.800  9.27446E-01  9.99521E-01 -7.20750E-02
    9118.361    122.037   5.840  9.57986E-01  9.98967E-01 -4.09810E-02
    9120.147    123.823   5.880  9.90887E-01  9.98417E-01 -7.53056E-03
    9121.946    125.622   5.920  1.02283E+00  9.97902E-01  2.49242E-02
    9123.756    127.432   5.960  1.04855E+00  9.97381E-01  5.11715E-02
    9125.579    129.255   6.000  1.06417E+00  9.96898E-01  6.72704E-02
