# # comment:                                                     FEFF 9.9.1  
# # Source:
# # Structure
# # Reduced
# # space
# # abc:
# # angles:
# # sites:
# # POT  SCF 100  7.0000   0, screened core-hole, AFOLP (folp(0)= 1.150)
# # Abs   Z=29 Rmt= 1.282 Rnm= 1.340 K  shell
# # Pot 1 Z= 3 Rmt= 1.217 Rnm= 1.280
# # Pot 2 Z=29 Rmt= 1.298 Rnm= 1.361
# # Pot 3 Z= 5 Rmt= 0.768 Rnm= 0.982
# # Pot 4 Z= 8 Rmt= 0.925 Rnm= 1.047
# # Gam_ch=1.729E+00 H-L exch Vi= 0.000E+00 Vr= 0.000E+00
# # Mu=-6.712E+00eV kf=2.338E+00 Vint=-1.781E+01eV Rs_int= 1.551
# FMS rfms= 9.0000
# # PATH  Rmax=-1.000,  Keep_limit= 0.00, Heap_limit 0.00  Pwcrit= 2.50%
#  S02=0.950  Temp=   0.00  Debye_temp=   0.00  Global_sig2= 0.00000
#  Energy zero shift, vr, vi    0.00000E+00   0.00000E+00
#  Curved wave amplitude ratio filter   4.000%
#     file         sig2 tot  cw amp ratio   deg  nlegs   reff  inp sig2
#     0/   0 paths used
#  xsedge+ 50, used to normalize mu           2.4720E-04
#  -----------------------------------------------------------------------
#  omega    e    k    mu    mu0     chi     @#
    8983.997    -10.522  -1.000  4.80880E-02  5.73740E-02 -9.28603E-03
    8984.296    -10.223  -0.960  5.10220E-02  6.16757E-02 -1.06537E-02
    8984.582     -9.937  -0.920  5.42145E-02  6.64689E-02 -1.22543E-02
    8984.857     -9.662  -0.880  5.76956E-02  7.18271E-02 -1.41315E-02
    8985.119     -9.400  -0.840  6.14991E-02  7.78364E-02 -1.63372E-02
    8985.369     -9.150  -0.800  6.56629E-02  8.45963E-02 -1.89334E-02
    8985.606     -8.913  -0.760  7.02290E-02  9.22215E-02 -2.19925E-02
    8985.832     -8.687  -0.720  7.52428E-02  1.00842E-01 -2.55989E-02
    8986.045     -8.474  -0.680  8.07523E-02  1.10600E-01 -2.98475E-02
    8986.247     -8.272  -0.640  8.68059E-02  1.21647E-01 -3.48415E-02
    8986.435     -8.083  -0.600  9.34478E-02  1.34133E-01 -4.06855E-02
    8986.612     -7.907  -0.560  1.00712E-01  1.48185E-01 -4.74733E-02
    8986.777     -7.742  -0.520  1.08612E-01  1.63880E-01 -5.52679E-02
    8986.929     -7.590  -0.480  1.17130E-01  1.81204E-01 -6.40739E-02
    8987.069     -7.450  -0.440  1.26197E-01  2.00003E-01 -7.38056E-02
    8987.197     -7.321  -0.400  1.35686E-01  2.19946E-01 -8.42597E-02
    8987.313     -7.206  -0.360  1.45403E-01  2.40513E-01 -9.51091E-02
    8987.417     -7.102  -0.320  1.55095E-01  2.61025E-01 -1.05929E-01
    8987.508     -7.011  -0.280  1.64472E-01  2.80732E-01 -1.16260E-01
    8987.588     -6.931  -0.240  1.73237E-01  2.98913E-01 -1.25676E-01
    8987.655     -6.864  -0.200  1.81114E-01  3.14969E-01 -1.33855E-01
    8987.710     -6.809  -0.160  1.87868E-01  3.28462E-01 -1.40594E-01
    8987.752     -6.767  -0.120  1.93315E-01  3.39120E-01 -1.45805E-01
    8987.783     -6.736  -0.080  1.97318E-01  3.46792E-01 -1.49474E-01
    8987.807     -6.712   0.000  2.00622E-01  3.52951E-01 -1.52330E-01
    8987.862     -6.657   0.120  2.08026E-01  3.66830E-01 -1.58804E-01
    8987.905     -6.614   0.160  2.13870E-01  3.77584E-01 -1.63714E-01
    8987.959     -6.559   0.200  2.21531E-01  3.91315E-01 -1.69784E-01
    8988.027     -6.492   0.240  2.31095E-01  4.07776E-01 -1.76681E-01
    8988.106     -6.413   0.280  2.42678E-01  4.26628E-01 -1.83950E-01
    8988.197     -6.322   0.320  2.56382E-01  4.47332E-01 -1.90950E-01
    8988.301     -6.218   0.360  2.72286E-01  4.69245E-01 -1.96959E-01
    8988.417     -6.102   0.400  2.90517E-01  4.91692E-01 -2.01175E-01
    8988.545     -5.974   0.440  3.11061E-01  5.14013E-01 -2.02952E-01
    8988.685     -5.834   0.480  3.33879E-01  5.35773E-01 -2.01894E-01
    8988.837     -5.682   0.520  3.58625E-01  5.56627E-01 -1.98003E-01
    8989.002     -5.517   0.560  3.84696E-01  5.76436E-01 -1.91740E-01
    8989.179     -5.340   0.600  4.11418E-01  5.95166E-01 -1.83749E-01
    8989.368     -5.151   0.640  4.38374E-01  6.12889E-01 -1.74515E-01
    8989.569     -4.950   0.680  4.65462E-01  6.29677E-01 -1.64216E-01
    8989.782     -4.737   0.720  4.92524E-01  6.45684E-01 -1.53160E-01
    8990.008     -4.511   0.760  5.18553E-01  6.61018E-01 -1.42464E-01
    8990.245     -4.274   0.800  5.41537E-01  6.75779E-01 -1.34243E-01
    8990.495     -4.024   0.840  5.59169E-01  6.90056E-01 -1.30887E-01
    8990.758     -3.761   0.880  5.70032E-01  7.03916E-01 -1.33884E-01
    8991.032     -3.487   0.920  5.74390E-01  7.17414E-01 -1.43024E-01
    8991.318     -3.201   0.960  5.74107E-01  7.30633E-01 -1.56526E-01
    8991.617     -2.902   1.000  5.71466E-01  7.43561E-01 -1.72095E-01
    8991.928     -2.591   1.040  5.68534E-01  7.56257E-01 -1.87723E-01
    8992.251     -2.268   1.080  5.67354E-01  7.68690E-01 -2.01336E-01
    8992.586     -1.933   1.120  5.70371E-01  7.80906E-01 -2.10535E-01
    8992.934     -1.585   1.160  5.81917E-01  7.92878E-01 -2.10961E-01
    8993.293     -1.226   1.200  6.09209E-01  8.04619E-01 -1.95411E-01
    8993.665     -0.854   1.240  6.56588E-01  8.16118E-01 -1.59530E-01
    8994.049     -0.470   1.280  7.19241E-01  8.27361E-01 -1.08120E-01
    8994.446     -0.073   1.320  7.87490E-01  8.38350E-01 -5.08601E-02
    8994.854      0.335   1.360  8.56957E-01  8.49043E-01  7.91393E-03
    8995.275      0.756   1.400  9.28937E-01  8.59443E-01  6.94944E-02
    8995.707      1.188   1.440  1.00686E+00  8.69547E-01  1.37311E-01
    8996.152      1.633   1.480  1.09350E+00  8.79313E-01  2.14189E-01
    8996.610      2.091   1.520  1.18439E+00  8.88758E-01  2.95628E-01
    8997.079      2.560   1.560  1.26541E+00  8.97860E-01  3.67552E-01
    8997.561      3.042   1.600  1.32253E+00  9.06575E-01  4.15956E-01
    8998.054      3.535   1.640  1.35527E+00  9.14945E-01  4.40323E-01
    8998.560      4.041   1.680  1.37379E+00  9.22946E-01  4.50849E-01
    8999.079      4.560   1.720  1.38372E+00  9.30557E-01  4.53167E-01
    8999.609      5.090   1.760  1.38086E+00  9.37799E-01  4.43065E-01
    9000.151      5.632   1.800  1.35700E+00  9.44650E-01  4.12353E-01
    9000.706      6.187   1.840  1.31646E+00  9.51092E-01  3.65364E-01
    9001.273      6.754   1.880  1.28022E+00  9.57165E-01  3.23056E-01
    9001.852      7.333   1.920  1.25396E+00  9.62854E-01  2.91105E-01
    9002.444      7.925   1.960  1.22986E+00  9.68140E-01  2.61719E-01
    9003.047      8.528   2.000  1.20130E+00  9.73067E-01  2.28232E-01
    9003.663      9.144   2.040  1.17021E+00  9.77620E-01  1.92593E-01
    9004.291      9.772   2.080  1.14833E+00  9.81822E-01  1.66509E-01
    9004.931     10.412   2.120  1.14210E+00  9.85660E-01  1.56441E-01
    9005.583     11.064   2.160  1.14561E+00  9.89158E-01  1.56456E-01
    9006.247     11.728   2.200  1.15007E+00  9.92324E-01  1.57749E-01
    9006.924     12.405   2.240  1.14927E+00  9.95163E-01  1.54109E-01
    9007.613     13.094   2.280  1.14125E+00  9.97723E-01  1.43528E-01
    9008.314     13.795   2.320  1.12641E+00  9.99970E-01  1.26435E-01
    9009.027     14.508   2.360  1.10508E+00  1.00193E+00  1.03149E-01
    9009.753     15.234   2.400  1.07591E+00  1.00363E+00  7.22735E-02
    9010.490     15.971   2.440  1.03821E+00  1.00508E+00  3.31263E-02
    9011.240     16.721   2.480  9.96536E-01  1.00629E+00 -9.75483E-03
    9012.002     17.483   2.520  9.57514E-01  1.00728E+00 -4.97692E-02
    9012.776     18.257   2.560  9.23298E-01  1.00807E+00 -8.47700E-02
    9013.563     19.044   2.600  8.91336E-01  1.00865E+00 -1.17313E-01
    9014.361     19.842   2.640  8.59292E-01  1.00906E+00 -1.49767E-01
    9015.172     20.653   2.680  8.28966E-01  1.00930E+00 -1.80336E-01
    9015.995     21.476   2.720  8.06304E-01  1.00939E+00 -2.03081E-01
    9016.830     22.311   2.760  8.03632E-01  1.00934E+00 -2.05703E-01
    9017.677     23.158   2.800  8.10094E-01  1.00916E+00 -1.99066E-01
    9018.537     24.018   2.840  8.20479E-01  1.00887E+00 -1.88386E-01
    9019.409     24.890   2.880  8.32172E-01  1.00848E+00 -1.76305E-01
    9020.293     25.774   2.920  8.43705E-01  1.00798E+00 -1.64275E-01
    9021.189     26.670   2.960  8.54605E-01  1.00742E+00 -1.52817E-01
    9022.097     27.578   3.000  8.65362E-01  1.00679E+00 -1.41427E-01
    9023.017     28.498   3.040  8.76748E-01  1.00611E+00 -1.29358E-01
    9023.950     29.431   3.080  8.89117E-01  1.00538E+00 -1.16259E-01
    9024.895     30.376   3.120  9.02468E-01  1.00458E+00 -1.02115E-01
    9025.852     31.333   3.160  9.16483E-01  1.00377E+00 -8.72912E-02
    9026.821     32.302   3.200  9.30235E-01  1.00295E+00 -7.27185E-02
    9027.803     33.284   3.240  9.43168E-01  1.00210E+00 -5.89360E-02
    9028.796     34.277   3.280  9.54852E-01  1.00125E+00 -4.63998E-02
    9029.802     35.283   3.320  9.65149E-01  1.00042E+00 -3.52674E-02
    9030.820     36.301   3.360  9.74198E-01  9.99563E-01 -2.53645E-02
    9031.851     37.332   3.400  9.82217E-01  9.98734E-01 -1.65168E-02
    9032.893     38.374   3.440  9.89319E-01  9.97912E-01 -8.59295E-03
    9033.948     39.429   3.480  9.95853E-01  9.97118E-01 -1.26419E-03
    9035.014     40.495   3.520  1.00234E+00  9.96335E-01  6.00721E-03
    9036.093     41.574   3.560  1.00924E+00  9.95585E-01  1.36510E-02
    9037.184     42.665   3.600  1.01677E+00  9.94873E-01  2.18953E-02
    9038.288     43.769   3.640  1.02478E+00  9.94198E-01  3.05807E-02
    9039.403     44.884   3.680  1.03276E+00  9.93561E-01  3.91976E-02
    9040.531     46.012   3.720  1.03996E+00  9.92964E-01  4.69982E-02
    9041.671     47.152   3.760  1.04586E+00  9.92408E-01  5.34543E-02
    9042.823     48.304   3.800  1.05038E+00  9.91891E-01  5.84910E-02
    9043.988     49.469   3.840  1.05394E+00  9.91418E-01  6.25214E-02
    9045.164     50.645   3.880  1.05731E+00  9.91008E-01  6.63063E-02
    9046.353     51.834   3.920  1.06122E+00  9.90641E-01  7.05820E-02
    9047.554     53.035   3.960  1.06598E+00  9.90296E-01  7.56840E-02
    9048.767     54.248   4.000  1.07136E+00  9.90036E-01  8.13203E-02
    9049.992     55.473   4.040  1.07653E+00  9.89797E-01  8.67294E-02
    9051.230     56.711   4.080  1.08039E+00  9.89601E-01  9.07934E-02
    9052.479     57.960   4.120  1.08186E+00  9.89470E-01  9.23894E-02
    9053.741     59.222   4.160  1.08014E+00  9.89380E-01  9.07565E-02
    9055.015     60.496   4.200  1.07499E+00  9.89332E-01  8.56551E-02
    9056.301     61.782   4.240  1.06659E+00  9.89323E-01  7.72626E-02
    9057.600     63.081   4.280  1.05550E+00  9.89353E-01  6.61509E-02
    9058.911     64.392   4.320  1.04267E+00  9.89398E-01  5.32673E-02
    9060.233     65.714   4.360  1.02923E+00  9.89505E-01  3.97294E-02
    9061.568     67.049   4.400  1.01627E+00  9.89652E-01  2.66192E-02
    9062.916     68.397   4.440  1.00453E+00  9.89834E-01  1.46998E-02
    9064.275     69.756   4.480  9.94245E-01  9.90029E-01  4.21606E-03
    9065.647     71.128   4.520  9.85244E-01  9.90257E-01 -5.01302E-03
    9067.030     72.511   4.560  9.77206E-01  9.90519E-01 -1.33130E-02
    9068.426     73.907   4.600  9.69856E-01  9.90791E-01 -2.09356E-02
    9069.835     75.316   4.640  9.63168E-01  9.91093E-01 -2.79250E-02
    9071.255     76.736   4.680  9.57279E-01  9.91404E-01 -3.41248E-02
    9072.687     78.168   4.720  9.52307E-01  9.91741E-01 -3.94344E-02
    9074.132     79.613   4.760  9.48262E-01  9.92085E-01 -4.38228E-02
    9075.589     81.070   4.800  9.45129E-01  9.92432E-01 -4.73034E-02
    9077.058     82.539   4.840  9.42907E-01  9.92802E-01 -4.98952E-02
    9078.540     84.021   4.880  9.41627E-01  9.93151E-01 -5.15233E-02
    9080.033     85.514   4.920  9.41540E-01  9.93499E-01 -5.19586E-02
    9081.539     87.020   4.960  9.42893E-01  9.93868E-01 -5.09749E-02
    9083.057     88.538   5.000  9.45815E-01  9.94212E-01 -4.83975E-02
    9084.587     90.068   5.040  9.50240E-01  9.94552E-01 -4.43117E-02
    9086.129     91.610   5.080  9.55792E-01  9.94888E-01 -3.90962E-02
    9087.684     93.165   5.120  9.61920E-01  9.95218E-01 -3.32985E-02
    9089.250     94.731   5.160  9.67973E-01  9.95518E-01 -2.75455E-02
    9090.829     96.310   5.200  9.73431E-01  9.95809E-01 -2.23773E-02
    9092.420     97.901   5.240  9.77856E-01  9.96067E-01 -1.82113E-02
    9094.023     99.504   5.280  9.81045E-01  9.96316E-01 -1.52709E-02
    9095.639    101.120   5.320  9.82969E-01  9.96530E-01 -1.35608E-02
    9097.266    102.747   5.360  9.83808E-01  9.96708E-01 -1.29006E-02
    9098.906    104.387   5.400  9.83854E-01  9.96875E-01 -1.30217E-02
    9100.558    106.039   5.440  9.83375E-01  9.97009E-01 -1.36337E-02
    9102.222    107.703   5.480  9.82704E-01  9.97128E-01 -1.44233E-02
    9103.899    109.380   5.520  9.82173E-01  9.97188E-01 -1.50151E-02
    9105.587    111.068   5.560  9.82267E-01  9.97233E-01 -1.49663E-02
    9107.288    112.769   5.600  9.83370E-01  9.97240E-01 -1.38702E-02
    9109.001    114.482   5.640  9.85730E-01  9.97211E-01 -1.14809E-02
    9110.726    116.207   5.680  9.89365E-01  9.97168E-01 -7.80259E-03
    9112.464    117.945   5.720  9.93980E-01  9.97064E-01 -3.08340E-03
    9114.213    119.694   5.760  9.99169E-01  9.96943E-01  2.22635E-03
    9115.975    121.456   5.800  1.00428E+00  9.96762E-01  7.51590E-03
    9117.749    123.230   5.840  1.00871E+00  9.96569E-01  1.21437E-02
    9119.535    125.016   5.880  1.01198E+00  9.96342E-01  1.56339E-02
    9121.333    126.814   5.920  1.01395E+00  9.96106E-01  1.78416E-02
    9123.144    128.625   5.960  1.01476E+00  9.95809E-01  1.89522E-02
    9124.967    130.448   6.000  1.01486E+00  9.95481E-01  1.93739E-02
