# # comment:                                                     FEFF 9.9.1  
# # Source:
# # Structure
# # Reduced
# # space
# # abc:
# # angles:
# # sites:
# # POT  SCF 100  7.0000   0, screened core-hole, AFOLP (folp(0)= 1.150)
# # Abs   Z=29 Rmt= 1.219 Rnm= 1.354 K  shell
# # Pot 1 Z=29 Rmt= 1.219 Rnm= 1.354
# # Pot 2 Z= 1 Rmt= 0.869 Rnm= 0.999
# # Pot 3 Z=17 Rmt= 0.793 Rnm= 1.072
# # Pot 4 Z= 8 Rmt= 1.024 Rnm= 1.199
# # Gam_ch=1.729E+00 H-L exch Vi= 0.000E+00 Vr= 0.000E+00
# # Mu=-6.038E+00eV kf=2.094E+00 Vint=-1.209E+01eV Rs_int= 1.732
# FMS rfms= 9.0000
# # PATH  Rmax=-1.000,  Keep_limit= 0.00, Heap_limit 0.00  Pwcrit= 2.50%
#  S02=0.950  Temp=   0.00  Debye_temp=   0.00  Global_sig2= 0.00000
#  Energy zero shift, vr, vi    0.00000E+00   0.00000E+00
#  Curved wave amplitude ratio filter   4.000%
#     file         sig2 tot  cw amp ratio   deg  nlegs   reff  inp sig2
#     0/   0 paths used
#  xsedge+ 50, used to normalize mu           2.3974E-04
#  -----------------------------------------------------------------------
#  omega    e    k    mu    mu0     chi     @#
    8983.213     -9.848  -1.000  3.80980E-02  6.01903E-02 -2.20924E-02
    8983.512     -9.549  -0.960  3.99026E-02  6.45880E-02 -2.46854E-02
    8983.799     -9.263  -0.920  4.18188E-02  6.94667E-02 -2.76479E-02
    8984.073     -8.988  -0.880  4.38559E-02  7.48955E-02 -3.10397E-02
    8984.335     -8.726  -0.840  4.60238E-02  8.09547E-02 -3.49309E-02
    8984.585     -8.476  -0.800  4.83338E-02  8.77367E-02 -3.94029E-02
    8984.823     -8.239  -0.760  5.07977E-02  9.53475E-02 -4.45498E-02
    8985.048     -8.013  -0.720  5.34284E-02  1.03906E-01 -5.04780E-02
    8985.262     -7.800  -0.680  5.62388E-02  1.13544E-01 -5.73052E-02
    8985.463     -7.599  -0.640  5.92416E-02  1.24398E-01 -6.51566E-02
    8985.652     -7.410  -0.600  6.24474E-02  1.36603E-01 -7.41559E-02
    8985.829     -7.233  -0.560  6.58625E-02  1.50273E-01 -8.44108E-02
    8985.993     -7.068  -0.520  6.94859E-02  1.65474E-01 -9.59886E-02
    8986.146     -6.916  -0.480  7.33044E-02  1.82189E-01 -1.08885E-01
    8986.286     -6.776  -0.440  7.72877E-02  2.00271E-01 -1.22983E-01
    8986.414     -6.648  -0.400  8.13840E-02  2.19412E-01 -1.38028E-01
    8986.530     -6.532  -0.360  8.55177E-02  2.39128E-01 -1.53610E-01
    8986.633     -6.428  -0.320  8.95926E-02  2.58788E-01 -1.69196E-01
    8986.725     -6.337  -0.280  9.34994E-02  2.77694E-01 -1.84194E-01
    8986.804     -6.257  -0.240  9.71265E-02  2.95165E-01 -1.98038E-01
    8986.871     -6.190  -0.200  1.00371E-01  3.10630E-01 -2.10259E-01
    8986.926     -6.136  -0.160  1.03145E-01  3.23662E-01 -2.20517E-01
    8986.969     -6.093  -0.120  1.05381E-01  3.33982E-01 -2.28601E-01
    8986.999     -6.062  -0.080  1.07027E-01  3.41430E-01 -2.34402E-01
    8987.023     -6.038   0.000  1.08401E-01  3.47422E-01 -2.39021E-01
    8987.078     -5.983   0.120  1.11443E-01  3.60952E-01 -2.49509E-01
    8987.121     -5.940   0.160  1.13792E-01  3.71500E-01 -2.57708E-01
    8987.176     -5.886   0.200  1.16840E-01  3.84998E-01 -2.68159E-01
    8987.243     -5.819   0.240  1.20569E-01  4.01305E-01 -2.80737E-01
    8987.322     -5.739   0.280  1.25029E-01  4.20151E-01 -2.95122E-01
    8987.414     -5.648   0.320  1.30204E-01  4.41128E-01 -3.10924E-01
    8987.517     -5.544   0.360  1.36066E-01  4.63679E-01 -3.27613E-01
    8987.633     -5.428   0.400  1.42633E-01  4.87269E-01 -3.44637E-01
    8987.761     -5.300   0.440  1.49923E-01  5.11347E-01 -3.61424E-01
    8987.901     -5.160   0.480  1.58029E-01  5.35493E-01 -3.77463E-01
    8988.054     -5.008   0.520  1.67217E-01  5.59446E-01 -3.92229E-01
    8988.218     -4.843   0.560  1.77803E-01  5.83039E-01 -4.05236E-01
    8988.395     -4.666   0.600  1.90184E-01  6.06204E-01 -4.16021E-01
    8988.584     -4.477   0.640  2.04844E-01  6.28983E-01 -4.24140E-01
    8988.785     -4.276   0.680  2.22133E-01  6.51405E-01 -4.29273E-01
    8988.998     -4.063   0.720  2.42168E-01  6.73490E-01 -4.31322E-01
    8989.224     -3.837   0.760  2.64790E-01  6.95274E-01 -4.30484E-01
    8989.462     -3.600   0.800  2.89613E-01  7.16825E-01 -4.27211E-01
    8989.712     -3.350   0.840  3.16029E-01  7.38090E-01 -4.22062E-01
    8989.974     -3.088   0.880  3.43762E-01  7.59086E-01 -4.15324E-01
    8990.248     -2.813   0.920  3.73681E-01  7.79794E-01 -4.06113E-01
    8990.535     -2.527   0.960  4.08285E-01  8.00140E-01 -3.91855E-01
    8990.833     -2.228   1.000  4.49042E-01  8.20105E-01 -3.71063E-01
    8991.144     -1.917   1.040  4.90301E-01  8.39619E-01 -3.49318E-01
    8991.467     -1.594   1.080  5.18904E-01  8.58628E-01 -3.39723E-01
    8991.803     -1.259   1.120  5.26386E-01  8.77030E-01 -3.50644E-01
    8992.150     -0.911   1.160  5.19345E-01  8.94828E-01 -3.75483E-01
    8992.510     -0.552   1.200  5.13549E-01  9.11897E-01 -3.98347E-01
    8992.882     -0.180   1.240  5.23903E-01  9.28217E-01 -4.04314E-01
    8993.266      0.204   1.280  5.56834E-01  9.43707E-01 -3.86874E-01
    8993.662      0.600   1.320  6.05332E-01  9.58353E-01 -3.53022E-01
    8994.070      1.009   1.360  6.51890E-01  9.72098E-01 -3.20208E-01
    8994.491      1.430   1.400  6.86045E-01  9.84911E-01 -2.98866E-01
    8994.924      1.862   1.440  7.17954E-01  9.96787E-01 -2.78833E-01
    8995.369      2.307   1.480  7.62379E-01  1.00772E+00 -2.45344E-01
    8995.826      2.765   1.520  8.21821E-01  1.01768E+00 -1.95858E-01
    8996.295      3.234   1.560  8.94985E-01  1.02668E+00 -1.31697E-01
    8996.777      3.716   1.600  9.85471E-01  1.03474E+00 -4.92664E-02
    8997.271      4.209   1.640  1.09570E+00  1.04188E+00  5.38180E-02
    8997.777      4.715   1.680  1.22060E+00  1.04812E+00  1.72477E-01
    8998.295      5.233   1.720  1.35007E+00  1.05351E+00  2.96557E-01
    8998.825      5.764   1.760  1.47634E+00  1.05807E+00  4.18267E-01
    8999.368      6.306   1.800  1.58477E+00  1.06184E+00  5.22930E-01
    8999.922      6.861   1.840  1.64541E+00  1.06484E+00  5.80564E-01
    9000.489      7.428   1.880  1.64010E+00  1.06718E+00  5.72925E-01
    9001.069      8.007   1.920  1.58635E+00  1.06883E+00  5.17520E-01
    9001.660      8.598   1.960  1.52073E+00  1.06989E+00  4.50839E-01
    9002.263      9.202   2.000  1.46719E+00  1.07038E+00  3.96806E-01
    9002.879      9.818   2.040  1.42687E+00  1.07038E+00  3.56484E-01
    9003.507     10.445   2.080  1.39756E+00  1.06990E+00  3.27663E-01
    9004.147     11.086   2.120  1.38545E+00  1.06901E+00  3.16442E-01
    9004.799     11.738   2.160  1.38934E+00  1.06772E+00  3.21620E-01
    9005.464     12.402   2.200  1.39643E+00  1.06611E+00  3.30321E-01
    9006.140     13.079   2.240  1.39340E+00  1.06421E+00  3.29186E-01
    9006.829     13.768   2.280  1.37150E+00  1.06208E+00  3.09422E-01
    9007.530     14.469   2.320  1.32909E+00  1.05971E+00  2.69372E-01
    9008.243     15.182   2.360  1.26931E+00  1.05717E+00  2.12139E-01
    9008.969     15.907   2.400  1.19397E+00  1.05446E+00  1.39506E-01
    9009.707     16.645   2.440  1.10598E+00  1.05166E+00  5.43193E-02
    9010.456     17.395   2.480  1.01837E+00  1.04876E+00 -3.03892E-02
    9011.218     18.157   2.520  9.61289E-01  1.04579E+00 -8.45031E-02
    9011.993     18.931   2.560  9.35907E-01  1.04280E+00 -1.06895E-01
    9012.779     19.717   2.600  9.25591E-01  1.03978E+00 -1.14190E-01
    9013.577     20.516   2.640  9.21839E-01  1.03678E+00 -1.14944E-01
    9014.388     21.327   2.680  9.20198E-01  1.03379E+00 -1.13597E-01
    9015.211     22.150   2.720  9.18518E-01  1.03085E+00 -1.12327E-01
    9016.046     22.985   2.760  9.16295E-01  1.02797E+00 -1.11670E-01
    9016.894     23.832   2.800  9.13362E-01  1.02514E+00 -1.11777E-01
    9017.753     24.692   2.840  9.09779E-01  1.02239E+00 -1.12616E-01
    9018.625     25.564   2.880  9.05797E-01  1.01976E+00 -1.13963E-01
    9019.509     26.447   2.920  9.01729E-01  1.01722E+00 -1.15487E-01
    9020.405     27.344   2.960  8.98056E-01  1.01479E+00 -1.16736E-01
    9021.313     28.252   3.000  8.95342E-01  1.01249E+00 -1.17149E-01
    9022.234     29.172   3.040  8.94134E-01  1.01031E+00 -1.16180E-01
    9023.166     30.105   3.080  8.94291E-01  1.00829E+00 -1.13995E-01
    9024.111     31.050   3.120  8.95427E-01  1.00637E+00 -1.10940E-01
    9025.068     32.007   3.160  8.97064E-01  1.00460E+00 -1.07537E-01
    9026.038     32.976   3.200  8.98647E-01  1.00299E+00 -1.04344E-01
    9027.019     33.958   3.240  8.99853E-01  1.00152E+00 -1.01664E-01
    9028.013     34.951   3.280  9.00763E-01  1.00018E+00 -9.94127E-02
    9029.019     35.957   3.320  9.01871E-01  9.99015E-01 -9.71441E-02
    9030.037     36.975   3.360  9.03432E-01  9.97991E-01 -9.45582E-02
    9031.067     38.005   3.400  9.05847E-01  9.97101E-01 -9.12538E-02
    9032.109     39.048   3.440  9.09481E-01  9.96369E-01 -8.68876E-02
    9033.164     40.102   3.480  9.14614E-01  9.95794E-01 -8.11802E-02
    9034.231     41.169   3.520  9.21399E-01  9.95354E-01 -7.39548E-02
    9035.310     42.248   3.560  9.29960E-01  9.95069E-01 -6.51087E-02
    9036.401     43.339   3.600  9.40207E-01  9.94915E-01 -5.47081E-02
    9037.504     44.443   3.640  9.51874E-01  9.94892E-01 -4.30182E-02
    9038.620     45.558   3.680  9.64737E-01  9.95020E-01 -3.02834E-02
    9039.747     46.686   3.720  9.78631E-01  9.95275E-01 -1.66443E-02
    9040.887     47.826   3.760  9.93358E-01  9.95654E-01 -2.29609E-03
    9042.040     48.978   3.800  1.00865E+00  9.96132E-01  1.25208E-02
    9043.204     50.142   3.840  1.02427E+00  9.96754E-01  2.75190E-02
    9044.380     51.319   3.880  1.03971E+00  9.97471E-01  4.22397E-02
    9045.569     52.508   3.920  1.05427E+00  9.98301E-01  5.59650E-02
    9046.770     53.709   3.960  1.06719E+00  9.99220E-01  6.79743E-02
    9047.983     54.922   4.000  1.07793E+00  1.00023E+00  7.77071E-02
    9049.208     56.147   4.040  1.08614E+00  1.00132E+00  8.48235E-02
    9050.446     57.384   4.080  1.09171E+00  1.00248E+00  8.92221E-02
    9051.696     58.634   4.120  1.09479E+00  1.00373E+00  9.10563E-02
    9052.957     59.896   4.160  1.09562E+00  1.00506E+00  9.05598E-02
    9054.232     61.170   4.200  1.09452E+00  1.00643E+00  8.80915E-02
    9055.518     62.456   4.240  1.09205E+00  1.00785E+00  8.42071E-02
    9056.816     63.755   4.280  1.08883E+00  1.00930E+00  7.95249E-02
    9058.127     65.065   4.320  1.08536E+00  1.01080E+00  7.45660E-02
    9059.450     66.388   4.360  1.08197E+00  1.01233E+00  6.96436E-02
    9060.785     67.723   4.400  1.07873E+00  1.01387E+00  6.48593E-02
    9062.132     69.070   4.440  1.07551E+00  1.01543E+00  6.00726E-02
    9063.491     70.430   4.480  1.07202E+00  1.01698E+00  5.50437E-02
    9064.863     71.801   4.520  1.06809E+00  1.01854E+00  4.95410E-02
    9066.247     73.185   4.560  1.06352E+00  1.02008E+00  4.34429E-02
    9067.643     74.581   4.600  1.05841E+00  1.02161E+00  3.67994E-02
    9069.051     75.989   4.640  1.05294E+00  1.02310E+00  2.98335E-02
    9070.471     77.410   4.680  1.04745E+00  1.02458E+00  2.28731E-02
    9071.904     78.842   4.720  1.04226E+00  1.02599E+00  1.62740E-02
    9073.348     80.287   4.760  1.03766E+00  1.02736E+00  1.03008E-02
    9074.805     81.744   4.800  1.03362E+00  1.02870E+00  4.92388E-03
    9076.275     83.213   4.840  1.02967E+00  1.02995E+00 -2.82433E-04
    9077.756     84.694   4.880  1.02512E+00  1.03114E+00 -6.02258E-03
    9079.249     86.188   4.920  1.01933E+00  1.03228E+00 -1.29508E-02
    9080.755     87.694   4.960  1.01213E+00  1.03334E+00 -2.12082E-02
    9082.273     89.212   5.000  1.00405E+00  1.03430E+00 -3.02413E-02
    9083.803     90.742   5.040  9.96148E-01  1.03519E+00 -3.90403E-02
    9085.345     92.284   5.080  9.89441E-01  1.03600E+00 -4.65580E-02
    9086.900     93.838   5.120  9.84579E-01  1.03672E+00 -5.21426E-02
    9088.467     95.405   5.160  9.81778E-01  1.03734E+00 -5.55574E-02
    9090.045     96.984   5.200  9.80945E-01  1.03788E+00 -5.69386E-02
    9091.636     98.575   5.240  9.81699E-01  1.03832E+00 -5.66180E-02
    9093.240    100.178   5.280  9.83642E-01  1.03864E+00 -5.49965E-02
    9094.855    101.794   5.320  9.86418E-01  1.03889E+00 -5.24750E-02
    9096.483    103.421   5.360  9.89614E-01  1.03904E+00 -4.94212E-02
    9098.123    105.061   5.400  9.92991E-01  1.03906E+00 -4.60730E-02
    9099.775    106.713   5.440  9.96604E-01  1.03903E+00 -4.24220E-02
    9101.439    108.377   5.480  1.00064E+00  1.03888E+00 -3.82367E-02
    9103.115    110.054   5.520  1.00535E+00  1.03864E+00 -3.32930E-02
    9104.804    111.742   5.560  1.01071E+00  1.03832E+00 -2.76123E-02
    9106.505    113.443   5.600  1.01639E+00  1.03792E+00 -2.15301E-02
    9108.217    115.156   5.640  1.02189E+00  1.03744E+00 -1.55469E-02
    9109.943    116.881   5.680  1.02671E+00  1.03687E+00 -1.01535E-02
    9111.680    118.619   5.720  1.03055E+00  1.03622E+00 -5.67476E-03
    9113.430    120.368   5.760  1.03331E+00  1.03550E+00 -2.18743E-03
    9115.191    122.130   5.800  1.03520E+00  1.03473E+00  4.76599E-04
    9116.965    123.904   5.840  1.03649E+00  1.03391E+00  2.58132E-03
    9118.751    125.690   5.880  1.03732E+00  1.03303E+00  4.29248E-03
    9120.550    127.488   5.920  1.03769E+00  1.03208E+00  5.60239E-03
    9122.360    129.299   5.960  1.03756E+00  1.03113E+00  6.42631E-03
    9124.183    131.121   6.000  1.03690E+00  1.03011E+00  6.79472E-03
