# # comment:                                                     FEFF 9.9.1  
# # Source:
# # Structure
# # Reduced
# # space
# # abc:
# # angles:
# # sites:
# # POT  SCF 100  7.0000   0, screened core-hole, AFOLP (folp(0)= 1.150)
# # Abs   Z=29 Rmt= 1.172 Rnm= 1.322 K  shell
# # Pot 1 Z=29 Rmt= 1.186 Rnm= 1.332
# # Pot 2 Z= 1 Rmt= 0.672 Rnm= 0.812
# # Pot 3 Z=34 Rmt= 1.098 Rnm= 1.335
# # Pot 4 Z= 8 Rmt= 0.956 Rnm= 1.097
# # Gam_ch=1.729E+00 H-L exch Vi= 0.000E+00 Vr= 0.000E+00
# # Mu=-6.734E+00eV kf=2.195E+00 Vint=-1.430E+01eV Rs_int= 1.652
# FMS rfms= 9.0000
# # PATH  Rmax=-1.000,  Keep_limit= 0.00, Heap_limit 0.00  Pwcrit= 2.50%
#  S02=0.950  Temp=   0.00  Debye_temp=   0.00  Global_sig2= 0.00000
#  Energy zero shift, vr, vi    0.00000E+00   0.00000E+00
#  Curved wave amplitude ratio filter   4.000%
#     file         sig2 tot  cw amp ratio   deg  nlegs   reff  inp sig2
#     0/   0 paths used
#  xsedge+ 50, used to normalize mu           2.4330E-04
#  -----------------------------------------------------------------------
#  omega    e    k    mu    mu0     chi     @#
    8983.398    -10.544  -1.000  3.84896E-02  5.46763E-02 -1.61867E-02
    8983.697    -10.245  -0.960  4.06100E-02  5.86050E-02 -1.79950E-02
    8983.984     -9.959  -0.920  4.29071E-02  6.29639E-02 -2.00568E-02
    8984.258     -9.684  -0.880  4.54011E-02  6.78152E-02 -2.24142E-02
    8984.520     -9.422  -0.840  4.81148E-02  7.32317E-02 -2.51169E-02
    8984.770     -9.172  -0.800  5.10738E-02  7.92973E-02 -2.82235E-02
    8985.008     -8.934  -0.760  5.43060E-02  8.61081E-02 -3.18021E-02
    8985.233     -8.709  -0.720  5.78418E-02  9.37727E-02 -3.59310E-02
    8985.447     -8.495  -0.680  6.17130E-02  1.02410E-01 -4.06975E-02
    8985.648     -8.294  -0.640  6.59511E-02  1.12147E-01 -4.61959E-02
    8985.837     -8.105  -0.600  7.05852E-02  1.23106E-01 -5.25204E-02
    8986.014     -7.929  -0.560  7.56367E-02  1.35391E-01 -5.97541E-02
    8986.178     -7.764  -0.520  8.11140E-02  1.49064E-01 -6.79504E-02
    8986.331     -7.612  -0.480  8.70036E-02  1.64111E-01 -7.71073E-02
    8986.471     -7.471  -0.440  9.32606E-02  1.80399E-01 -8.71381E-02
    8986.599     -7.343  -0.400  9.98009E-02  1.97647E-01 -9.78460E-02
    8986.715     -7.228  -0.360  1.06497E-01  2.15415E-01 -1.08918E-01
    8986.818     -7.124  -0.320  1.13184E-01  2.33130E-01 -1.19946E-01
    8986.910     -7.032  -0.280  1.19669E-01  2.50156E-01 -1.30487E-01
    8986.989     -6.953  -0.240  1.25755E-01  2.65879E-01 -1.40124E-01
    8987.056     -6.886  -0.200  1.31252E-01  2.79783E-01 -1.48531E-01
    8987.111     -6.831  -0.160  1.35994E-01  2.91487E-01 -1.55494E-01
    8987.154     -6.789  -0.120  1.39842E-01  3.00747E-01 -1.60905E-01
    8987.184     -6.758  -0.080  1.42690E-01  3.07422E-01 -1.64731E-01
    8987.208     -6.734   0.000  1.45078E-01  3.12787E-01 -1.67709E-01
    8987.263     -6.679   0.120  1.50536E-01  3.24902E-01 -1.74366E-01
    8987.306     -6.636   0.160  1.54824E-01  3.34333E-01 -1.79509E-01
    8987.361     -6.581   0.200  1.60432E-01  3.46376E-01 -1.85944E-01
    8987.428     -6.514   0.240  1.67510E-01  3.60904E-01 -1.93394E-01
    8987.507     -6.435   0.280  1.76165E-01  3.77630E-01 -2.01465E-01
    8987.599     -6.344   0.320  1.86565E-01  3.96158E-01 -2.09594E-01
    8987.702     -6.240   0.360  1.98868E-01  4.15973E-01 -2.17105E-01
    8987.818     -6.124   0.400  2.13231E-01  4.36565E-01 -2.23334E-01
    8987.946     -5.996   0.440  2.29633E-01  4.57431E-01 -2.27797E-01
    8988.086     -5.856   0.480  2.47782E-01  4.78173E-01 -2.30391E-01
    8988.239     -5.704   0.520  2.66908E-01  4.98552E-01 -2.31644E-01
    8988.403     -5.539   0.560  2.85751E-01  5.18415E-01 -2.32663E-01
    8988.580     -5.362   0.600  3.02918E-01  5.37790E-01 -2.34872E-01
    8988.769     -5.173   0.640  3.17268E-01  5.56644E-01 -2.39376E-01
    8988.970     -4.972   0.680  3.28618E-01  5.75103E-01 -2.46485E-01
    8989.184     -4.759   0.720  3.37315E-01  5.93179E-01 -2.55864E-01
    8989.409     -4.533   0.760  3.43932E-01  6.11006E-01 -2.67074E-01
    8989.647     -4.295   0.800  3.48781E-01  6.28605E-01 -2.79824E-01
    8989.897     -4.045   0.840  3.52214E-01  6.46027E-01 -2.93813E-01
    8990.159     -3.783   0.880  3.55057E-01  6.63286E-01 -3.08229E-01
    8990.433     -3.509   0.920  3.59044E-01  6.80447E-01 -3.21403E-01
    8990.720     -3.222   0.960  3.66213E-01  6.97458E-01 -3.31245E-01
    8991.018     -2.924   1.000  3.78324E-01  7.14343E-01 -3.36018E-01
    8991.329     -2.613   1.040  3.96362E-01  7.31092E-01 -3.34730E-01
    8991.652     -2.290   1.080  4.20125E-01  7.47650E-01 -3.27525E-01
    8991.988     -1.955   1.120  4.48631E-01  7.64017E-01 -3.15386E-01
    8992.335     -1.607   1.160  4.81773E-01  7.80128E-01 -2.98355E-01
    8992.695     -1.247   1.200  5.18799E-01  7.95972E-01 -2.77174E-01
    8993.067     -0.876   1.240  5.53780E-01  8.11500E-01 -2.57720E-01
    8993.451     -0.491   1.280  5.79540E-01  8.26679E-01 -2.47139E-01
    8993.847     -0.095   1.320  5.97277E-01  8.41452E-01 -2.44175E-01
    8994.255      0.313   1.360  6.14808E-01  8.55788E-01 -2.40979E-01
    8994.676      0.734   1.400  6.36930E-01  8.69652E-01 -2.32721E-01
    8995.109      1.167   1.440  6.63762E-01  8.83030E-01 -2.19269E-01
    8995.554      1.612   1.480  6.92834E-01  8.95873E-01 -2.03039E-01
    8996.011      2.069   1.520  7.22023E-01  9.08147E-01 -1.86124E-01
    8996.480      2.538   1.560  7.52825E-01  9.19842E-01 -1.67017E-01
    8996.962      3.020   1.600  7.89124E-01  9.30932E-01 -1.41808E-01
    8997.456      3.514   1.640  8.34330E-01  9.41413E-01 -1.07083E-01
    8997.962      4.020   1.680  8.87557E-01  9.51260E-01 -6.37024E-02
    8998.480      4.538   1.720  9.44467E-01  9.60471E-01 -1.60038E-02
    8999.010      5.068   1.760  9.99854E-01  9.69067E-01  3.07870E-02
    8999.553      5.611   1.800  1.04384E+00  9.77030E-01  6.68146E-02
    9000.108      6.165   1.840  1.06918E+00  9.84364E-01  8.48204E-02
    9000.674      6.732   1.880  1.08320E+00  9.91073E-01  9.21278E-02
    9001.254      7.311   1.920  1.09910E+00  9.97187E-01  1.01912E-01
    9001.845      7.903   1.960  1.12505E+00  1.00271E+00  1.22339E-01
    9002.448      8.506   2.000  1.16256E+00  1.00766E+00  1.54906E-01
    9003.064      9.122   2.040  1.20768E+00  1.01208E+00  1.95601E-01
    9003.692      9.750   2.080  1.25108E+00  1.01594E+00  2.35144E-01
    9004.332     10.390   2.120  1.28147E+00  1.01932E+00  2.62154E-01
    9004.984     11.042   2.160  1.29078E+00  1.02220E+00  2.68577E-01
    9005.649     11.707   2.200  1.27938E+00  1.02463E+00  2.54754E-01
    9006.325     12.383   2.240  1.25659E+00  1.02663E+00  2.29958E-01
    9007.014     13.072   2.280  1.23688E+00  1.02822E+00  2.08658E-01
    9007.715     13.773   2.320  1.22670E+00  1.02944E+00  1.97265E-01
    9008.429     14.486   2.360  1.21954E+00  1.03029E+00  1.89253E-01
    9009.154     15.212   2.400  1.21056E+00  1.03083E+00  1.79732E-01
    9009.892     15.949   2.440  1.20347E+00  1.03108E+00  1.72389E-01
    9010.641     16.699   2.480  1.20012E+00  1.03104E+00  1.69075E-01
    9011.403     17.461   2.520  1.19137E+00  1.03078E+00  1.60587E-01
    9012.178     18.235   2.560  1.16957E+00  1.03026E+00  1.39316E-01
    9012.964     19.022   2.600  1.14054E+00  1.02957E+00  1.10972E-01
    9013.763     19.820   2.640  1.11403E+00  1.02866E+00  8.53674E-02
    9014.573     20.631   2.680  1.09295E+00  1.02762E+00  6.53334E-02
    9015.396     21.454   2.720  1.07622E+00  1.02644E+00  4.97743E-02
    9016.231     22.289   2.760  1.06243E+00  1.02515E+00  3.72882E-02
    9017.079     23.137   2.800  1.04997E+00  1.02376E+00  2.62137E-02
    9017.938     23.996   2.840  1.03796E+00  1.02228E+00  1.56756E-02
    9018.810     24.868   2.880  1.02617E+00  1.02074E+00  5.43049E-03
    9019.694     25.752   2.920  1.01440E+00  1.01914E+00 -4.74158E-03
    9020.590     26.648   2.960  1.00279E+00  1.01753E+00 -1.47356E-02
    9021.498     27.556   3.000  9.91378E-01  1.01589E+00 -2.45075E-02
    9022.419     28.477   3.040  9.80135E-01  1.01424E+00 -3.41002E-02
    9023.351     29.409   3.080  9.69090E-01  1.01258E+00 -4.34947E-02
    9024.296     30.354   3.120  9.58266E-01  1.01094E+00 -5.26750E-02
    9025.253     31.311   3.160  9.47572E-01  1.00933E+00 -6.17567E-02
    9026.223     32.280   3.200  9.37023E-01  1.00775E+00 -7.07297E-02
    9027.204     33.262   3.240  9.26940E-01  1.00622E+00 -7.92770E-02
    9028.198     34.256   3.280  9.17664E-01  1.00473E+00 -8.70624E-02
    9029.204     35.261   3.320  9.09647E-01  1.00330E+00 -9.36560E-02
    9030.222     36.279   3.360  9.03358E-01  1.00193E+00 -9.85726E-02
    9031.252     37.310   3.400  8.99165E-01  1.00063E+00 -1.01468E-01
    9032.294     38.352   3.440  8.97129E-01  9.99389E-01 -1.02260E-01
    9033.349     39.407   3.480  8.97293E-01  9.98247E-01 -1.00954E-01
    9034.416     40.473   3.520  8.99479E-01  9.97186E-01 -9.77064E-02
    9035.495     41.552   3.560  9.03292E-01  9.96185E-01 -9.28937E-02
    9036.586     42.644   3.600  9.08340E-01  9.95289E-01 -8.69488E-02
    9037.689     43.747   3.640  9.14200E-01  9.94479E-01 -8.02794E-02
    9038.805     44.863   3.680  9.20512E-01  9.93776E-01 -7.32645E-02
    9039.933     45.990   3.720  9.26866E-01  9.93138E-01 -6.62714E-02
    9041.072     47.130   3.760  9.33202E-01  9.92606E-01 -5.94034E-02
    9042.225     48.282   3.800  9.39612E-01  9.92159E-01 -5.25477E-02
    9043.389     49.447   3.840  9.46386E-01  9.91800E-01 -4.54141E-02
    9044.565     50.623   3.880  9.53955E-01  9.91549E-01 -3.75949E-02
    9045.754     51.812   3.920  9.62692E-01  9.91385E-01 -2.86923E-02
    9046.955     53.013   3.960  9.72774E-01  9.91305E-01 -1.85308E-02
    9048.168     54.226   4.000  9.84015E-01  9.91310E-01 -7.29534E-03
    9049.393     55.451   4.040  9.95926E-01  9.91419E-01  4.50615E-03
    9050.631     56.689   4.080  1.00763E+00  9.91589E-01  1.60439E-02
    9051.881     57.938   4.120  1.01819E+00  9.91862E-01  2.63273E-02
    9053.142     59.200   4.160  1.02670E+00  9.92192E-01  3.45042E-02
    9054.417     60.474   4.200  1.03262E+00  9.92600E-01  4.00181E-02
    9055.703     61.761   4.240  1.03575E+00  9.93086E-01  4.26636E-02
    9057.001     63.059   4.280  1.03631E+00  9.93648E-01  4.26594E-02
    9058.312     64.370   4.320  1.03487E+00  9.94263E-01  4.06046E-02
    9059.635     65.693   4.360  1.03231E+00  9.94950E-01  3.73582E-02
    9060.970     67.028   4.400  1.02958E+00  9.95706E-01  3.38725E-02
    9062.317     68.375   4.440  1.02752E+00  9.96486E-01  3.10358E-02
    9063.676     69.734   4.480  1.02679E+00  9.97331E-01  2.94634E-02
    9065.048     71.106   4.520  1.02764E+00  9.98217E-01  2.94198E-02
    9066.432     72.490   4.560  1.02993E+00  9.99120E-01  3.08095E-02
    9067.828     73.886   4.600  1.03329E+00  1.00008E+00  3.32055E-02
    9069.236     75.294   4.640  1.03705E+00  1.00106E+00  3.59940E-02
    9070.656     76.714   4.680  1.04067E+00  1.00206E+00  3.86098E-02
    9072.089     78.147   4.720  1.04370E+00  1.00308E+00  4.06180E-02
    9073.534     79.591   4.760  1.04588E+00  1.00412E+00  4.17544E-02
    9074.990     81.048   4.800  1.04713E+00  1.00517E+00  4.19605E-02
    9076.460     82.517   4.840  1.04756E+00  1.00622E+00  4.13409E-02
    9077.941     83.999   4.880  1.04729E+00  1.00724E+00  4.00547E-02
    9079.434     85.492   4.920  1.04651E+00  1.00828E+00  3.82357E-02
    9080.940     86.998   4.960  1.04514E+00  1.00929E+00  3.58563E-02
    9082.458     88.516   5.000  1.04308E+00  1.01029E+00  3.27854E-02
    9083.988     90.046   5.040  1.04022E+00  1.01129E+00  2.89259E-02
    9085.530     91.588   5.080  1.03657E+00  1.01225E+00  2.43248E-02
    9087.085     93.143   5.120  1.03238E+00  1.01317E+00  1.92038E-02
    9088.652     94.709   5.160  1.02790E+00  1.01405E+00  1.38428E-02
    9090.230     96.288   5.200  1.02339E+00  1.01489E+00  8.49259E-03
    9091.821     97.879   5.240  1.01905E+00  1.01569E+00  3.35459E-03
    9093.425     99.483   5.280  1.01509E+00  1.01645E+00 -1.35308E-03
    9095.040    101.098   5.320  1.01177E+00  1.01715E+00 -5.38073E-03
    9096.668    102.726   5.360  1.00933E+00  1.01779E+00 -8.45572E-03
    9098.308    104.365   5.400  1.00797E+00  1.01838E+00 -1.04090E-02
    9099.960    106.017   5.440  1.00755E+00  1.01892E+00 -1.13664E-02
    9101.624    107.682   5.480  1.00755E+00  1.01939E+00 -1.18367E-02
    9103.300    109.358   5.520  1.00727E+00  1.01977E+00 -1.25014E-02
    9104.989    111.047   5.560  1.00620E+00  1.02011E+00 -1.39156E-02
    9106.690    112.747   5.600  1.00405E+00  1.02037E+00 -1.63191E-02
    9108.403    114.460   5.640  1.00089E+00  1.02056E+00 -1.96637E-02
    9110.128    116.185   5.680  9.96999E-01  1.02069E+00 -2.36911E-02
    9111.865    117.923   5.720  9.92686E-01  1.02075E+00 -2.80610E-02
    9113.615    119.672   5.760  9.88345E-01  1.02075E+00 -3.24052E-02
    9115.376    121.434   5.800  9.84336E-01  1.02065E+00 -3.63175E-02
    9117.150    123.208   5.840  9.81187E-01  1.02050E+00 -3.93174E-02
    9118.936    124.994   5.880  9.79358E-01  1.02028E+00 -4.09241E-02
    9120.735    126.792   5.920  9.79189E-01  1.02001E+00 -4.08191E-02
    9122.545    128.603   5.960  9.80682E-01  1.01965E+00 -3.89719E-02
    9124.368    130.426   6.000  9.83579E-01  1.01917E+00 -3.55874E-02
