# # comment:                                                     FEFF 9.9.1  
# # Source:
# # Structure
# # Reduced
# # space
# # abc:
# # angles:103.229596
# # sites:
# # POT  SCF 100  7.0000   0, screened core-hole, AFOLP (folp(0)= 1.150)
# # Abs   Z=29 Rmt= 1.202 Rnm= 1.287 K  shell
# # Pot 1 Z= 3 Rmt= 1.248 Rnm= 1.304
# # Pot 2 Z=22 Rmt= 1.263 Rnm= 1.397
# # Pot 3 Z=29 Rmt= 1.202 Rnm= 1.287
# # Pot 4 Z= 8 Rmt= 1.021 Rnm= 1.107
# # Gam_ch=1.729E+00 H-L exch Vi= 0.000E+00 Vr= 0.000E+00
# # Mu=-9.641E+00eV kf=2.100E+00 Vint=-1.817E+01eV Rs_int= 1.727
# FMS rfms= 9.0000
# # PATH  Rmax=-1.000,  Keep_limit= 0.00, Heap_limit 0.00  Pwcrit= 2.50%
#  S02=0.950  Temp=   0.00  Debye_temp=   0.00  Global_sig2= 0.00000
#  Energy zero shift, vr, vi    0.00000E+00   0.00000E+00
#  Curved wave amplitude ratio filter   4.000%
#     file         sig2 tot  cw amp ratio   deg  nlegs   reff  inp sig2
#     0/   0 paths used
#  xsedge+ 50, used to normalize mu           2.4663E-04
#  -----------------------------------------------------------------------
#  omega    e    k    mu    mu0     chi     @#
    8984.895    -13.451  -1.000  3.40858E-02  5.19253E-02 -1.78395E-02
    8985.194    -13.152  -0.960  3.56472E-02  5.56435E-02 -1.99962E-02
    8985.480    -12.866  -0.920  3.73023E-02  5.97708E-02 -2.24685E-02
    8985.755    -12.591  -0.880  3.90587E-02  6.43670E-02 -2.53083E-02
    8986.017    -12.329  -0.840  4.09255E-02  6.95018E-02 -2.85763E-02
    8986.267    -12.079  -0.800  4.29125E-02  7.52559E-02 -3.23434E-02
    8986.504    -11.841  -0.760  4.50308E-02  8.17216E-02 -3.66908E-02
    8986.730    -11.616  -0.720  4.72925E-02  8.90036E-02 -4.17110E-02
    8986.943    -11.403  -0.680  4.97107E-02  9.72166E-02 -4.75059E-02
    8987.144    -11.201  -0.640  5.22982E-02  1.06482E-01 -5.41839E-02
    8987.333    -11.012  -0.600  5.50669E-02  1.16919E-01 -6.18519E-02
    8987.510    -10.836  -0.560  5.80251E-02  1.28628E-01 -7.06032E-02
    8987.675    -10.671  -0.520  6.11742E-02  1.41670E-01 -8.04962E-02
    8987.827    -10.519  -0.480  6.45039E-02  1.56031E-01 -9.15274E-02
    8987.967    -10.378  -0.440  6.79866E-02  1.71585E-01 -1.03598E-01
    8988.095    -10.250  -0.400  7.15730E-02  1.88061E-01 -1.16488E-01
    8988.211    -10.135  -0.360  7.51901E-02  2.05037E-01 -1.29847E-01
    8988.315    -10.031  -0.320  7.87452E-02  2.21963E-01 -1.43218E-01
    8988.406     -9.940  -0.280  8.21345E-02  2.38227E-01 -1.56092E-01
    8988.486     -9.860  -0.240  8.52563E-02  2.53241E-01 -1.67985E-01
    8988.553     -9.793  -0.200  8.80217E-02  2.66512E-01 -1.78490E-01
    8988.608     -9.738  -0.160  9.03613E-02  2.77678E-01 -1.87317E-01
    8988.650     -9.696  -0.120  9.22257E-02  2.86507E-01 -1.94281E-01
    8988.681     -9.665  -0.080  9.35820E-02  2.92869E-01 -1.99287E-01
    8988.705     -9.641   0.000  9.46897E-02  2.97982E-01 -2.03292E-01
    8988.760     -9.586   0.120  9.71854E-02  3.09509E-01 -2.12324E-01
    8988.803     -9.543   0.160  9.91126E-02  3.18471E-01 -2.19359E-01
    8988.857     -9.488   0.200  1.01566E-01  3.29925E-01 -2.28359E-01
    8988.925     -9.421   0.240  1.04534E-01  3.43724E-01 -2.39190E-01
    8989.004     -9.342   0.280  1.07942E-01  3.59557E-01 -2.51615E-01
    8989.095     -9.251   0.320  1.11736E-01  3.77072E-01 -2.65336E-01
    8989.199     -9.147   0.360  1.15801E-01  3.95761E-01 -2.79960E-01
    8989.315     -9.031   0.400  1.20011E-01  4.15102E-01 -2.95092E-01
    8989.443     -8.903   0.440  1.24224E-01  4.34578E-01 -3.10354E-01
    8989.583     -8.763   0.480  1.28436E-01  4.53862E-01 -3.25426E-01
    8989.735     -8.611   0.520  1.32723E-01  4.72679E-01 -3.39956E-01
    8989.900     -8.446   0.560  1.37428E-01  4.90920E-01 -3.53493E-01
    8990.077     -8.269   0.600  1.43157E-01  5.08557E-01 -3.65400E-01
    8990.266     -8.080   0.640  1.50725E-01  5.25642E-01 -3.74917E-01
    8990.467     -7.879   0.680  1.60982E-01  5.42239E-01 -3.81258E-01
    8990.680     -7.666   0.720  1.74770E-01  5.58428E-01 -3.83658E-01
    8990.906     -7.440   0.760  1.92710E-01  5.74307E-01 -3.81597E-01
    8991.143     -7.202   0.800  2.14917E-01  5.89941E-01 -3.75024E-01
    8991.393     -6.953   0.840  2.41001E-01  6.05367E-01 -3.64366E-01
    8991.656     -6.690   0.880  2.71138E-01  6.20668E-01 -3.49530E-01
    8991.930     -6.416   0.920  3.06451E-01  6.35832E-01 -3.29381E-01
    8992.216     -6.130   0.960  3.47998E-01  6.50902E-01 -3.02903E-01
    8992.515     -5.831   1.000  3.96206E-01  6.65885E-01 -2.69679E-01
    8992.826     -5.520   1.040  4.50339E-01  6.80802E-01 -2.30463E-01
    8993.149     -5.197   1.080  5.05843E-01  6.95585E-01 -1.89742E-01
    8993.484     -4.862   1.120  5.56568E-01  7.10283E-01 -1.53716E-01
    8993.832     -4.514   1.160  6.00836E-01  7.24840E-01 -1.24004E-01
    8994.191     -4.154   1.200  6.37725E-01  7.39233E-01 -1.01508E-01
    8994.563     -3.783   1.240  6.60058E-01  7.53459E-01 -9.34009E-02
    8994.947     -3.399   1.280  6.58398E-01  7.67471E-01 -1.09074E-01
    8995.344     -3.002   1.320  6.33958E-01  7.81262E-01 -1.47304E-01
    8995.752     -2.594   1.360  6.03685E-01  7.94761E-01 -1.91077E-01
    8996.173     -2.173   1.400  5.85611E-01  8.08001E-01 -2.22390E-01
    8996.605     -1.740   1.440  5.87576E-01  8.20889E-01 -2.33313E-01
    8997.050     -1.295   1.480  6.08025E-01  8.33456E-01 -2.25431E-01
    8997.508     -0.838   1.520  6.44160E-01  8.45633E-01 -2.01473E-01
    8997.977     -0.369   1.560  6.96828E-01  8.57409E-01 -1.60581E-01
    8998.459      0.113   1.600  7.63808E-01  8.68778E-01 -1.04970E-01
    8998.952      0.607   1.640  8.43258E-01  8.79712E-01 -3.64540E-02
    8999.458      1.112   1.680  9.34850E-01  8.90203E-01  4.46471E-02
    8999.977      1.631   1.720  1.02808E+00  9.00206E-01  1.27869E-01
    9000.507      2.161   1.760  1.10986E+00  9.09759E-01  2.00096E-01
    9001.049      2.704   1.800  1.18454E+00  9.18819E-01  2.65720E-01
    9001.604      3.258   1.840  1.26022E+00  9.27404E-01  3.32812E-01
    9002.171      3.825   1.880  1.33211E+00  9.35490E-01  3.96624E-01
    9002.750      4.404   1.920  1.38626E+00  9.43083E-01  4.43176E-01
    9003.342      4.996   1.960  1.41876E+00  9.50183E-01  4.68578E-01
    9003.945      5.599   2.000  1.43901E+00  9.56814E-01  4.82199E-01
    9004.561      6.215   2.040  1.45176E+00  9.62979E-01  4.88784E-01
    9005.189      6.843   2.080  1.44269E+00  9.68664E-01  4.74031E-01
    9005.829      7.483   2.120  1.38711E+00  9.73915E-01  4.13193E-01
    9006.481      8.135   2.160  1.28145E+00  9.78717E-01  3.02730E-01
    9007.145      8.799   2.200  1.15660E+00  9.83078E-01  1.73523E-01
    9007.822      9.476   2.240  1.04604E+00  9.87025E-01  5.90149E-02
    9008.511     10.165   2.280  9.62866E-01  9.90589E-01 -2.77233E-02
    9009.212     10.866   2.320  9.07075E-01  9.93777E-01 -8.67024E-02
    9009.925     11.579   2.360  8.75206E-01  9.96577E-01 -1.21371E-01
    9010.651     12.305   2.400  8.66281E-01  9.99061E-01 -1.32780E-01
    9011.388     13.042   2.440  8.79742E-01  1.00120E+00 -1.21455E-01
    9012.138     13.792   2.480  9.12742E-01  1.00303E+00 -9.02916E-02
    9012.900     14.554   2.520  9.61813E-01  1.00458E+00 -4.27703E-02
    9013.674     15.328   2.560  1.00877E+00  1.00587E+00  2.89757E-03
    9014.461     16.115   2.600  1.04797E+00  1.00689E+00  4.10816E-02
    9015.259     16.913   2.640  1.08018E+00  1.00769E+00  7.24919E-02
    9016.070     17.724   2.680  1.10531E+00  1.00826E+00  9.70549E-02
    9016.893     18.547   2.720  1.12303E+00  1.00864E+00  1.14382E-01
    9017.728     19.382   2.760  1.13340E+00  1.00883E+00  1.24568E-01
    9018.575     20.229   2.800  1.13560E+00  1.00886E+00  1.26743E-01
    9019.435     21.089   2.840  1.12778E+00  1.00875E+00  1.19033E-01
    9020.307     21.961   2.880  1.10918E+00  1.00848E+00  1.00693E-01
    9021.191     22.845   2.920  1.08010E+00  1.00810E+00  7.19997E-02
    9022.087     23.741   2.960  1.04278E+00  1.00762E+00  3.51620E-02
    9022.995     24.649   3.000  1.00110E+00  1.00705E+00 -5.94951E-03
    9023.915     25.570   3.040  9.59590E-01  1.00641E+00 -4.68161E-02
    9024.848     26.502   3.080  9.21722E-01  1.00568E+00 -8.39605E-02
    9025.793     27.447   3.120  8.90271E-01  1.00491E+00 -1.14640E-01
    9026.750     28.404   3.160  8.66292E-01  1.00409E+00 -1.37803E-01
    9027.719     29.373   3.200  8.49951E-01  1.00324E+00 -1.53288E-01
    9028.701     30.355   3.240  8.40960E-01  1.00237E+00 -1.61412E-01
    9029.694     31.349   3.280  8.38249E-01  1.00147E+00 -1.63225E-01
    9030.700     32.354   3.320  8.40303E-01  1.00057E+00 -1.60269E-01
    9031.718     33.372   3.360  8.45550E-01  9.99668E-01 -1.54117E-01
    9032.748     34.403   3.400  8.52842E-01  9.98786E-01 -1.45944E-01
    9033.791     35.445   3.440  8.61146E-01  9.97889E-01 -1.36743E-01
    9034.845     36.500   3.480  8.70264E-01  9.97021E-01 -1.26756E-01
    9035.912     37.566   3.520  8.80195E-01  9.96184E-01 -1.15989E-01
    9036.991     38.645   3.560  8.90854E-01  9.95382E-01 -1.04528E-01
    9038.082     39.737   3.600  9.02024E-01  9.94596E-01 -9.25719E-02
    9039.186     40.840   3.640  9.13573E-01  9.93868E-01 -8.02948E-02
    9040.301     41.955   3.680  9.25374E-01  9.93158E-01 -6.77839E-02
    9041.429     43.083   3.720  9.37488E-01  9.92488E-01 -5.49993E-02
    9042.569     44.223   3.760  9.50182E-01  9.91882E-01 -4.16998E-02
    9043.721     45.375   3.800  9.63786E-01  9.91320E-01 -2.75339E-02
    9044.886     46.540   3.840  9.78522E-01  9.90802E-01 -1.22803E-02
    9046.062     47.716   3.880  9.94343E-01  9.90350E-01  3.99262E-03
    9047.251     48.905   3.920  1.01077E+00  9.89921E-01  2.08509E-02
    9048.452     50.106   3.960  1.02700E+00  9.89559E-01  3.74426E-02
    9049.665     51.319   4.000  1.04196E+00  9.89266E-01  5.26904E-02
    9050.890     52.544   4.040  1.05457E+00  9.89018E-01  6.55485E-02
    9052.128     53.782   4.080  1.06396E+00  9.88814E-01  7.51424E-02
    9053.377     55.031   4.120  1.06961E+00  9.88655E-01  8.09521E-02
    9054.639     56.293   4.160  1.07167E+00  9.88560E-01  8.31143E-02
    9055.913     57.567   4.200  1.07064E+00  9.88489E-01  8.21488E-02
    9057.199     58.854   4.240  1.06707E+00  9.88483E-01  7.85851E-02
    9058.498     60.152   4.280  1.06135E+00  9.88542E-01  7.28126E-02
    9059.809     61.463   4.320  1.05387E+00  9.88623E-01  6.52517E-02
    9061.131     62.785   4.360  1.04536E+00  9.88765E-01  5.65909E-02
    9062.466     64.120   4.400  1.03669E+00  9.88926E-01  4.77614E-02
    9063.814     65.468   4.440  1.02891E+00  9.89147E-01  3.97673E-02
    9065.173     66.827   4.480  1.02263E+00  9.89383E-01  3.32462E-02
    9066.545     68.199   4.520  1.01813E+00  9.89655E-01  2.84756E-02
    9067.928     69.582   4.560  1.01561E+00  9.89964E-01  2.56464E-02
    9069.324     70.978   4.600  1.01543E+00  9.90306E-01  2.51211E-02
    9070.732     72.387   4.640  1.01801E+00  9.90659E-01  2.73523E-02
    9072.153     73.807   4.680  1.02358E+00  9.91044E-01  3.25357E-02
    9073.585     75.240   4.720  1.03163E+00  9.91438E-01  4.01951E-02
    9075.030     76.684   4.760  1.04080E+00  9.91860E-01  4.89363E-02
    9076.487     78.141   4.800  1.04905E+00  9.92289E-01  5.67643E-02
    9077.956     79.610   4.840  1.05445E+00  9.92743E-01  6.17106E-02
    9079.438     81.092   4.880  1.05556E+00  9.93178E-01  6.23826E-02
    9080.931     82.585   4.920  1.05194E+00  9.93636E-01  5.83024E-02
    9082.437     84.091   4.960  1.04406E+00  9.94093E-01  4.99662E-02
    9083.955     85.609   5.000  1.03321E+00  9.94527E-01  3.86877E-02
    9085.485     87.139   5.040  1.02109E+00  9.94978E-01  2.61097E-02
    9087.027     88.681   5.080  1.00894E+00  9.95405E-01  1.35384E-02
    9088.582     90.236   5.120  9.97421E-01  9.95826E-01  1.59547E-03
    9090.148     91.802   5.160  9.86483E-01  9.96239E-01 -9.75613E-03
    9091.727     93.381   5.200  9.75842E-01  9.96625E-01 -2.07825E-02
    9093.318     94.972   5.240  9.65373E-01  9.97001E-01 -3.16278E-02
    9094.921     96.575   5.280  9.55152E-01  9.97368E-01 -4.22163E-02
    9096.537     98.191   5.320  9.45424E-01  9.97702E-01 -5.22785E-02
    9098.164     99.818   5.360  9.36640E-01  9.98000E-01 -6.13597E-02
    9099.804    101.458   5.400  9.29356E-01  9.98261E-01 -6.89053E-02
    9101.456    103.110   5.440  9.24064E-01  9.98510E-01 -7.44460E-02
    9103.120    104.775   5.480  9.20898E-01  9.98725E-01 -7.78271E-02
    9104.797    106.451   5.520  9.19702E-01  9.98925E-01 -7.92226E-02
    9106.485    108.139   5.560  9.20166E-01  9.99064E-01 -7.88978E-02
    9108.186    109.840   5.600  9.22308E-01  9.99186E-01 -7.68780E-02
    9109.899    111.553   5.640  9.26283E-01  9.99247E-01 -7.29637E-02
    9111.624    113.278   5.680  9.32259E-01  9.99291E-01 -6.70325E-02
    9113.362    115.016   5.720  9.40011E-01  9.99298E-01 -5.92874E-02
    9115.111    116.765   5.760  9.49116E-01  9.99267E-01 -5.01508E-02
    9116.873    118.527   5.800  9.59032E-01  9.99196E-01 -4.01638E-02
    9118.647    120.301   5.840  9.69141E-01  9.99087E-01 -2.99457E-02
    9120.433    122.087   5.880  9.78880E-01  9.98940E-01 -2.00599E-02
    9122.231    123.885   5.920  9.87924E-01  9.98782E-01 -1.08581E-02
    9124.042    125.696   5.960  9.96150E-01  9.98560E-01 -2.41098E-03
    9125.864    127.519   6.000  1.00391E+00  9.98274E-01  5.63409E-03
