# # comment:                                                     FEFF 9.9.1  
# # Source:
# # Structure
# # Reduced
# # space
# # abc:
# # angles:
# # sites:
# # POT  SCF 100  7.0000   0, screened core-hole, AFOLP (folp(0)= 1.150)
# # Abs   Z=29 Rmt= 1.312 Rnm= 1.384 K  shell
# # Pot 1 Z= 3 Rmt= 1.268 Rnm= 1.329
# # Pot 2 Z=29 Rmt= 1.367 Rnm= 1.423
# # Pot 3 Z=15 Rmt= 0.946 Rnm= 1.158
# # Pot 4 Z= 8 Rmt= 0.934 Rnm= 1.042
# # Gam_ch=1.729E+00 H-L exch Vi= 0.000E+00 Vr= 0.000E+00
# # Mu=-6.353E+00eV kf=2.361E+00 Vint=-1.732E+01eV Rs_int= 1.536
# FMS rfms= 9.0000
# # PATH  Rmax=-1.000,  Keep_limit= 0.00, Heap_limit 0.00  Pwcrit= 2.50%
#  S02=0.950  Temp=   0.00  Debye_temp=   0.00  Global_sig2= 0.00000
#  Energy zero shift, vr, vi    0.00000E+00   0.00000E+00
#  Curved wave amplitude ratio filter   4.000%
#     file         sig2 tot  cw amp ratio   deg  nlegs   reff  inp sig2
#     0/   0 paths used
#  xsedge+ 50, used to normalize mu           2.4639E-04
#  -----------------------------------------------------------------------
#  omega    e    k    mu    mu0     chi     @#
    8983.763    -10.163  -1.000  5.48509E-02  5.59111E-02 -1.06022E-03
    8984.062     -9.864  -0.960  5.88217E-02  6.00361E-02 -1.21446E-03
    8984.348     -9.577  -0.920  6.32366E-02  6.46268E-02 -1.39012E-03
    8984.623     -9.303  -0.880  6.81619E-02  6.97522E-02 -1.59031E-03
    8984.885     -9.041  -0.840  7.36746E-02  7.54933E-02 -1.81871E-03
    8985.135     -8.791  -0.800  7.98639E-02  8.19437E-02 -2.07974E-03
    8985.372     -8.553  -0.760  8.68323E-02  8.92110E-02 -2.37868E-03
    8985.598     -8.328  -0.720  9.46952E-02  9.74170E-02 -2.72178E-03
    8985.811     -8.114  -0.680  1.03580E-01  1.06696E-01 -3.11627E-03
    8986.013     -7.913  -0.640  1.13619E-01  1.17190E-01 -3.57020E-03
    8986.201     -7.724  -0.600  1.24946E-01  1.29038E-01 -4.09182E-03
    8986.378     -7.547  -0.560  1.37672E-01  1.42360E-01 -4.68835E-03
    8986.543     -7.383  -0.520  1.51864E-01  1.57228E-01 -5.36391E-03
    8986.695     -7.230  -0.480  1.67510E-01  1.73626E-01 -6.11642E-03
    8986.835     -7.090  -0.440  1.84478E-01  1.91412E-01 -6.93394E-03
    8986.963     -6.962  -0.400  2.02480E-01  2.10271E-01 -7.79164E-03
    8987.079     -6.846  -0.360  2.21064E-01  2.29715E-01 -8.65127E-03
    8987.183     -6.743  -0.320  2.39639E-01  2.49105E-01 -9.46512E-03
    8987.274     -6.651  -0.280  2.57548E-01  2.67733E-01 -1.01849E-02
    8987.354     -6.572  -0.240  2.74148E-01  2.84921E-01 -1.07728E-02
    8987.421     -6.505  -0.200  2.88891E-01  3.00102E-01 -1.12110E-02
    8987.476     -6.450  -0.160  3.01361E-01  3.12865E-01 -1.15040E-02
    8987.518     -6.407  -0.120  3.11270E-01  3.22947E-01 -1.16765E-02
    8987.549     -6.377  -0.080  3.18441E-01  3.30206E-01 -1.17657E-02
    8987.573     -6.353   0.000  3.24208E-01  3.36036E-01 -1.18279E-02
    8987.628     -6.298   0.120  3.37156E-01  3.49162E-01 -1.20057E-02
    8987.671     -6.255   0.160  3.47377E-01  3.59361E-01 -1.19839E-02
    8987.725     -6.200   0.200  3.60599E-01  3.72379E-01 -1.17798E-02
    8987.793     -6.133   0.240  3.76737E-01  3.87985E-01 -1.12484E-02
    8987.872     -6.054   0.280  3.95699E-01  4.05887E-01 -1.01880E-02
    8987.963     -5.962   0.320  4.17194E-01  4.25563E-01 -8.36850E-03
    8988.067     -5.859   0.360  4.40858E-01  4.46439E-01 -5.58078E-03
    8988.183     -5.743   0.400  4.66138E-01  4.67884E-01 -1.74568E-03
    8988.311     -5.615   0.440  4.92211E-01  4.89283E-01  2.92820E-03
    8988.451     -5.475   0.480  5.17947E-01  5.10213E-01  7.73475E-03
    8988.603     -5.322   0.520  5.41733E-01  5.30392E-01  1.13408E-02
    8988.768     -5.158   0.560  5.61467E-01  5.49652E-01  1.18156E-02
    8988.945     -4.981   0.600  5.74922E-01  5.68002E-01  6.92021E-03
    8989.134     -4.792   0.640  5.80227E-01  5.85467E-01 -5.24081E-03
    8989.335     -4.591   0.680  5.76978E-01  6.02177E-01 -2.51984E-02
    8989.548     -4.378   0.720  5.67088E-01  6.18232E-01 -5.11444E-02
    8989.774     -4.152   0.760  5.54839E-01  6.33715E-01 -7.88759E-02
    8990.011     -3.914   0.800  5.45885E-01  6.48760E-01 -1.02875E-01
    8990.261     -3.664   0.840  5.45438E-01  6.63445E-01 -1.18008E-01
    8990.524     -3.402   0.880  5.56207E-01  6.77833E-01 -1.21626E-01
    8990.798     -3.128   0.920  5.76352E-01  6.91972E-01 -1.15620E-01
    8991.084     -2.841   0.960  5.99742E-01  7.05900E-01 -1.06159E-01
    8991.383     -2.543   1.000  6.20388E-01  7.19663E-01 -9.92752E-02
    8991.694     -2.232   1.040  6.37029E-01  7.33272E-01 -9.62427E-02
    8992.017     -1.909   1.080  6.52545E-01  7.46714E-01 -9.41689E-02
    8992.352     -1.573   1.120  6.70122E-01  7.60030E-01 -8.99072E-02
    8992.700     -1.226   1.160  6.91052E-01  7.73171E-01 -8.21184E-02
    8993.059     -0.866   1.200  7.15327E-01  7.86165E-01 -7.08378E-02
    8993.431     -0.494   1.240  7.41261E-01  7.98977E-01 -5.77166E-02
    8993.815     -0.110   1.280  7.66789E-01  8.11588E-01 -4.47995E-02
    8994.212      0.286   1.320  7.93536E-01  8.23995E-01 -3.04594E-02
    8994.620      0.694   1.360  8.25762E-01  8.36157E-01 -1.03947E-02
    8995.041      1.115   1.400  8.66088E-01  8.48068E-01  1.80194E-02
    8995.473      1.548   1.440  9.16442E-01  8.59722E-01  5.67205E-02
    8995.918      1.993   1.480  9.74418E-01  8.71051E-01  1.03367E-01
    8996.376      2.450   1.520  1.02909E+00  8.82068E-01  1.47025E-01
    8996.845      2.919   1.560  1.07109E+00  8.92747E-01  1.78345E-01
    8997.327      3.401   1.600  1.10280E+00  9.03061E-01  1.99744E-01
    8997.820      3.895   1.640  1.12904E+00  9.13003E-01  2.16032E-01
    8998.326      4.401   1.680  1.14472E+00  9.22547E-01  2.22176E-01
    8998.845      4.919   1.720  1.13853E+00  9.31687E-01  2.06842E-01
    8999.375      5.449   1.760  1.11107E+00  9.40399E-01  1.70670E-01
    8999.917      5.992   1.800  1.08366E+00  9.48679E-01  1.34977E-01
    9000.472      6.546   1.840  1.07385E+00  9.56523E-01  1.17326E-01
    9001.039      7.113   1.880  1.07860E+00  9.63909E-01  1.14693E-01
    9001.618      7.693   1.920  1.08760E+00  9.70858E-01  1.16745E-01
    9002.210      8.284   1.960  1.09567E+00  9.77347E-01  1.18320E-01
    9002.813      8.887   2.000  1.10120E+00  9.83380E-01  1.17816E-01
    9003.429      9.503   2.040  1.10185E+00  9.88978E-01  1.12869E-01
    9004.057     10.131   2.080  1.09794E+00  9.94102E-01  1.03838E-01
    9004.697     10.771   2.120  1.09339E+00  9.98819E-01  9.45706E-02
    9005.349     11.423   2.160  1.08880E+00  1.00309E+00  8.57121E-02
    9006.013     12.088   2.200  1.08145E+00  1.00694E+00  7.45078E-02
    9006.690     12.764   2.240  1.06941E+00  1.01038E+00  5.90217E-02
    9007.379     13.453   2.280  1.05353E+00  1.01344E+00  4.00941E-02
    9008.080     14.154   2.320  1.03777E+00  1.01610E+00  2.16701E-02
    9008.793     14.867   2.360  1.02629E+00  1.01838E+00  7.91445E-03
    9009.519     15.593   2.400  1.02049E+00  1.02032E+00  1.64156E-04
    9010.256     16.331   2.440  1.01834E+00  1.02193E+00 -3.58880E-03
    9011.006     17.080   2.480  1.01658E+00  1.02322E+00 -6.63401E-03
    9011.768     17.842   2.520  1.01295E+00  1.02421E+00 -1.12600E-02
    9012.542     18.616   2.560  1.00713E+00  1.02491E+00 -1.77853E-02
    9013.329     19.403   2.600  1.00162E+00  1.02536E+00 -2.37363E-02
    9014.127     20.201   2.640  1.00008E+00  1.02553E+00 -2.54558E-02
    9014.938     21.012   2.680  1.00246E+00  1.02551E+00 -2.30516E-02
    9015.761     21.835   2.720  1.00478E+00  1.02527E+00 -2.04837E-02
    9016.596     22.670   2.760  1.00611E+00  1.02482E+00 -1.87045E-02
    9017.443     23.518   2.800  1.00744E+00  1.02420E+00 -1.67586E-02
    9018.303     24.377   2.840  1.00701E+00  1.02343E+00 -1.64244E-02
    9019.175     25.249   2.880  1.00399E+00  1.02252E+00 -1.85302E-02
    9020.059     26.133   2.920  9.99655E-01  1.02147E+00 -2.18197E-02
    9020.955     27.029   2.960  9.95416E-01  1.02032E+00 -2.48986E-02
    9021.863     27.937   3.000  9.91919E-01  1.01907E+00 -2.71465E-02
    9022.783     28.858   3.040  9.89101E-01  1.01774E+00 -2.86348E-02
    9023.716     29.790   3.080  9.86523E-01  1.01635E+00 -2.98288E-02
    9024.661     30.735   3.120  9.83758E-01  1.01492E+00 -3.11654E-02
    9025.618     31.692   3.160  9.80503E-01  1.01345E+00 -3.29497E-02
    9026.587     32.662   3.200  9.76484E-01  1.01195E+00 -3.54614E-02
    9027.569     33.643   3.240  9.71692E-01  1.01041E+00 -3.87164E-02
    9028.562     34.637   3.280  9.66404E-01  1.00889E+00 -4.24848E-02
    9029.568     35.643   3.320  9.61150E-01  1.00737E+00 -4.62212E-02
    9030.586     36.661   3.360  9.56754E-01  1.00586E+00 -4.91054E-02
    9031.616     37.691   3.400  9.54069E-01  1.00438E+00 -5.03112E-02
    9032.659     38.733   3.440  9.53697E-01  1.00294E+00 -4.92401E-02
    9033.714     39.788   3.480  9.55786E-01  1.00153E+00 -4.57461E-02
    9034.780     40.855   3.520  9.60083E-01  1.00017E+00 -4.00875E-02
    9035.859     41.934   3.560  9.65909E-01  9.98875E-01 -3.29663E-02
    9036.950     43.025   3.600  9.72276E-01  9.97606E-01 -2.53301E-02
    9038.054     44.128   3.640  9.78451E-01  9.96429E-01 -1.79781E-02
    9039.169     45.244   3.680  9.83958E-01  9.95306E-01 -1.13479E-02
    9040.297     46.371   3.720  9.88720E-01  9.94257E-01 -5.53648E-03
    9041.437     47.511   3.760  9.92893E-01  9.93284E-01 -3.91996E-04
    9042.589     48.664   3.800  9.96640E-01  9.92371E-01  4.26899E-03
    9043.754     49.828   3.840  1.00002E+00  9.91557E-01  8.45913E-03
    9044.930     51.004   3.880  1.00283E+00  9.90825E-01  1.20064E-02
    9046.119     52.193   3.920  1.00485E+00  9.90174E-01  1.46757E-02
    9047.320     53.394   3.960  1.00596E+00  9.89605E-01  1.63507E-02
    9048.533     54.607   4.000  1.00627E+00  9.89117E-01  1.71510E-02
    9049.758     55.832   4.040  1.00615E+00  9.88709E-01  1.74444E-02
    9050.996     57.070   4.080  1.00606E+00  9.88383E-01  1.76816E-02
    9052.245     58.320   4.120  1.00629E+00  9.88139E-01  1.81499E-02
    9053.507     59.581   4.160  1.00681E+00  9.87997E-01  1.88162E-02
    9054.781     60.856   4.200  1.00734E+00  9.87914E-01  1.94239E-02
    9056.067     62.142   4.240  1.00756E+00  9.87908E-01  1.96549E-02
    9057.366     63.440   4.280  1.00731E+00  9.87980E-01  1.93347E-02
    9058.677     64.751   4.320  1.00665E+00  9.88130E-01  1.85243E-02
    9059.999     66.074   4.360  1.00582E+00  9.88355E-01  1.74619E-02
    9061.334     67.409   4.400  1.00508E+00  9.88631E-01  1.64529E-02
    9062.682     68.756   4.440  1.00477E+00  9.88977E-01  1.57886E-02
    9064.041     70.115   4.480  1.00504E+00  9.89372E-01  1.56697E-02
    9065.413     71.487   4.520  1.00593E+00  9.89812E-01  1.61130E-02
    9066.796     72.871   4.560  1.00732E+00  9.90319E-01  1.70033E-02
    9068.192     74.267   4.600  1.00906E+00  9.90870E-01  1.81860E-02
    9069.601     75.675   4.640  1.01097E+00  9.91461E-01  1.95088E-02
    9071.021     77.095   4.680  1.01298E+00  9.92091E-01  2.08866E-02
    9072.453     78.528   4.720  1.01499E+00  9.92756E-01  2.22299E-02
    9073.898     79.972   4.760  1.01677E+00  9.93432E-01  2.33402E-02
    9075.355     81.429   4.800  1.01810E+00  9.94138E-01  2.39670E-02
    9076.824     82.899   4.840  1.01878E+00  9.94850E-01  2.39321E-02
    9078.306     84.380   4.880  1.01878E+00  9.95566E-01  2.32091E-02
    9079.799     85.873   4.920  1.01825E+00  9.96308E-01  2.19445E-02
    9081.305     87.379   4.960  1.01742E+00  9.97050E-01  2.03662E-02
    9082.823     88.897   5.000  1.01646E+00  9.97768E-01  1.86938E-02
    9084.353     90.427   5.040  1.01553E+00  9.98501E-01  1.70307E-02
    9085.895     91.969   5.080  1.01445E+00  9.99183E-01  1.52658E-02
    9087.450     93.524   5.120  1.01295E+00  9.99877E-01  1.30702E-02
    9089.016     95.090   5.160  1.01052E+00  1.00054E+00  9.97610E-03
    9090.595     96.669   5.200  1.00670E+00  1.00116E+00  5.54050E-03
    9092.186     98.260   5.240  1.00134E+00  1.00175E+00 -4.13144E-04
    9093.789     99.864   5.280  9.94669E-01  1.00230E+00 -7.62693E-03
    9095.405    101.479   5.320  9.87383E-01  1.00282E+00 -1.54417E-02
    9097.032    103.107   5.360  9.80203E-01  1.00329E+00 -2.30845E-02
    9098.672    104.747   5.400  9.73755E-01  1.00371E+00 -2.99511E-02
    9100.324    106.399   5.440  9.68342E-01  1.00408E+00 -3.57362E-02
    9101.988    108.063   5.480  9.64026E-01  1.00438E+00 -4.03553E-02
    9103.665    109.739   5.520  9.60778E-01  1.00464E+00 -4.38586E-02
    9105.353    111.428   5.560  9.58458E-01  1.00484E+00 -4.63857E-02
    9107.054    113.128   5.600  9.56825E-01  1.00498E+00 -4.81540E-02
    9108.767    114.841   5.640  9.55713E-01  1.00504E+00 -4.93292E-02
    9110.492    116.567   5.680  9.55225E-01  1.00508E+00 -4.98540E-02
    9112.230    118.304   5.720  9.55606E-01  1.00502E+00 -4.94146E-02
    9113.979    120.054   5.760  9.57328E-01  1.00491E+00 -4.75842E-02
    9115.741    121.815   5.800  9.60724E-01  1.00476E+00 -4.40318E-02
    9117.515    123.589   5.840  9.65836E-01  1.00450E+00 -3.86675E-02
    9119.301    125.375   5.880  9.72578E-01  1.00423E+00 -3.16507E-02
    9121.099    127.174   5.920  9.80508E-01  1.00389E+00 -2.33790E-02
    9122.910    128.984   5.960  9.89066E-01  1.00347E+00 -1.44024E-02
    9124.732    130.807   6.000  9.97847E-01  1.00296E+00 -5.11616E-03
