# # comment:                                                     FEFF 9.9.1  
# # Source:
# # Structure
# # Reduced
# # space
# # abc:
# # angles:
# # sites:
# # POT  SCF 100  7.0000   0, screened core-hole, AFOLP (folp(0)= 1.150)
# # Abs   Z=29 Rmt= 1.182 Rnm= 1.300 K  shell
# # Pot 1 Z=29 Rmt= 1.182 Rnm= 1.300
# # Pot 2 Z=16 Rmt= 0.854 Rnm= 1.107
# # Pot 3 Z= 8 Rmt= 1.013 Rnm= 1.121
# # Gam_ch=1.729E+00 H-L exch Vi= 0.000E+00 Vr= 0.000E+00
# # Mu=-7.212E+00eV kf=2.268E+00 Vint=-1.486E+01eV Rs_int= 1.599
# FMS rfms= 9.0000
# # PATH  Rmax=-1.000,  Keep_limit= 0.00, Heap_limit 0.00  Pwcrit= 2.50%
#  S02=0.950  Temp=   0.00  Debye_temp=   0.00  Global_sig2= 0.00000
#  Energy zero shift, vr, vi    0.00000E+00   0.00000E+00
#  Curved wave amplitude ratio filter   4.000%
#     file         sig2 tot  cw amp ratio   deg  nlegs   reff  inp sig2
#     0/   0 paths used
#  xsedge+ 50, used to normalize mu           2.4419E-04
#  -----------------------------------------------------------------------
#  omega    e    k    mu    mu0     chi     @#
    8983.447    -11.022  -1.000  3.21866E-02  5.41256E-02 -2.19389E-02
    8983.746    -10.724  -0.960  3.35847E-02  5.80228E-02 -2.44381E-02
    8984.033    -10.437  -0.920  3.50670E-02  6.23481E-02 -2.72812E-02
    8984.307    -10.163  -0.880  3.66420E-02  6.71638E-02 -3.05217E-02
    8984.569     -9.901  -0.840  3.83198E-02  7.25422E-02 -3.42224E-02
    8984.819     -9.651  -0.800  4.01120E-02  7.85672E-02 -3.84552E-02
    8985.057     -9.413  -0.760  4.20318E-02  8.53349E-02 -4.33031E-02
    8985.282     -9.187  -0.720  4.40946E-02  9.29536E-02 -4.88590E-02
    8985.496     -8.974  -0.680  4.63171E-02  1.01543E-01 -5.52256E-02
    8985.697     -8.773  -0.640  4.87169E-02  1.11228E-01 -6.25108E-02
    8985.886     -8.584  -0.600  5.13110E-02  1.22132E-01 -7.08207E-02
    8986.063     -8.407  -0.560  5.41132E-02  1.34360E-01 -8.02464E-02
    8986.227     -8.243  -0.520  5.71298E-02  1.47973E-01 -9.08434E-02
    8986.380     -8.090  -0.480  6.03536E-02  1.62957E-01 -1.02604E-01
    8986.520     -7.950  -0.440  6.37577E-02  1.79181E-01 -1.15423E-01
    8986.648     -7.822  -0.400  6.72891E-02  1.96363E-01 -1.29074E-01
    8986.764     -7.706  -0.360  7.08676E-02  2.14065E-01 -1.43198E-01
    8986.867     -7.602  -0.320  7.43903E-02  2.31715E-01 -1.57325E-01
    8986.959     -7.511  -0.280  7.77438E-02  2.48678E-01 -1.70935E-01
    8987.038     -7.432  -0.240  8.08194E-02  2.64342E-01 -1.83523E-01
    8987.105     -7.365  -0.200  8.35273E-02  2.78192E-01 -1.94665E-01
    8987.160     -7.310  -0.160  8.58027E-02  2.89850E-01 -2.04048E-01
    8987.203     -7.267  -0.120  8.76045E-02  2.99071E-01 -2.11467E-01
    8987.233     -7.237  -0.080  8.89092E-02  3.05718E-01 -2.16809E-01
    8987.257     -7.212   0.000  8.99732E-02  3.11060E-01 -2.21086E-01
    8987.312     -7.157   0.120  9.23719E-02  3.23122E-01 -2.30750E-01
    8987.355     -7.115   0.160  9.42025E-02  3.32503E-01 -2.38301E-01
    8987.410     -7.060   0.200  9.64892E-02  3.44491E-01 -2.48002E-01
    8987.477     -6.993   0.240  9.91771E-02  3.58939E-01 -2.59762E-01
    8987.556     -6.914   0.280  1.02191E-01  3.75576E-01 -2.73385E-01
    8987.648     -6.822   0.320  1.05387E-01  3.93984E-01 -2.88597E-01
    8987.751     -6.719   0.360  1.08601E-01  4.13666E-01 -3.05066E-01
    8987.867     -6.603   0.400  1.11690E-01  4.34092E-01 -3.22401E-01
    8987.995     -6.475   0.440  1.14576E-01  4.54773E-01 -3.40197E-01
    8988.135     -6.335   0.480  1.17214E-01  4.75294E-01 -3.58080E-01
    8988.288     -6.182   0.520  1.19814E-01  4.95412E-01 -3.75598E-01
    8988.452     -6.018   0.560  1.22624E-01  5.14996E-01 -3.92371E-01
    8988.629     -5.841   0.600  1.26002E-01  5.34051E-01 -4.08050E-01
    8988.818     -5.652   0.640  1.30177E-01  5.52568E-01 -4.22391E-01
    8989.019     -5.451   0.680  1.35438E-01  5.70629E-01 -4.35191E-01
    8989.233     -5.237   0.720  1.42134E-01  5.88310E-01 -4.46175E-01
    8989.458     -5.012   0.760  1.50870E-01  6.05683E-01 -4.54813E-01
    8989.696     -4.774   0.800  1.62383E-01  6.22813E-01 -4.60429E-01
    8989.946     -4.524   0.840  1.77434E-01  6.39749E-01 -4.62315E-01
    8990.208     -4.262   0.880  1.96222E-01  6.56509E-01 -4.60287E-01
    8990.482     -3.988   0.920  2.17888E-01  6.73116E-01 -4.55228E-01
    8990.769     -3.701   0.960  2.40340E-01  6.89564E-01 -4.49224E-01
    8991.067     -3.402   1.000  2.62210E-01  7.05894E-01 -4.43684E-01
    8991.378     -3.091   1.040  2.84638E-01  7.22041E-01 -4.37403E-01
    8991.701     -2.768   1.080  3.10618E-01  7.37991E-01 -4.27373E-01
    8992.037     -2.433   1.120  3.43820E-01  7.53746E-01 -4.09926E-01
    8992.384     -2.086   1.160  3.89082E-01  7.69262E-01 -3.80180E-01
    8992.744     -1.726   1.200  4.52240E-01  7.84492E-01 -3.32253E-01
    8993.116     -1.354   1.240  5.34760E-01  7.99407E-01 -2.64647E-01
    8993.500     -0.970   1.280  6.21877E-01  8.13977E-01 -1.92100E-01
    8993.896     -0.574   1.320  6.84290E-01  8.28170E-01 -1.43880E-01
    8994.304     -0.165   1.360  7.07662E-01  8.41934E-01 -1.34272E-01
    8994.725      0.255   1.400  7.05409E-01  8.55256E-01 -1.49847E-01
    8995.158      0.688   1.440  6.94636E-01  8.68107E-01 -1.73470E-01
    8995.603      1.133   1.480  6.87671E-01  8.80435E-01 -1.92764E-01
    8996.060      1.590   1.520  6.98255E-01  8.92253E-01 -1.93997E-01
    8996.529      2.060   1.560  7.31560E-01  9.03532E-01 -1.71972E-01
    8997.011      2.541   1.600  7.78325E-01  9.14227E-01 -1.35902E-01
    8997.505      3.035   1.640  8.24219E-01  9.24353E-01 -1.00134E-01
    8998.011      3.541   1.680  8.59095E-01  9.33907E-01 -7.48122E-02
    8998.529      4.059   1.720  8.88811E-01  9.42849E-01 -5.40376E-02
    8999.059      4.589   1.760  9.30705E-01  9.51218E-01 -2.05131E-02
    8999.602      5.132   1.800  9.93349E-01  9.59000E-01  3.43484E-02
    9000.157      5.687   1.840  1.07357E+00  9.66219E-01  1.07353E-01
    9000.723      6.254   1.880  1.16285E+00  9.72858E-01  1.89996E-01
    9001.303      6.833   1.920  1.26124E+00  9.78924E-01  2.82313E-01
    9001.894      7.424   1.960  1.37399E+00  9.84466E-01  3.89529E-01
    9002.497      8.028   2.000  1.49056E+00  9.89472E-01  5.01084E-01
    9003.113      8.643   2.040  1.57545E+00  9.93973E-01  5.81472E-01
    9003.741      9.271   2.080  1.59102E+00  9.97980E-01  5.93038E-01
    9004.381      9.911   2.120  1.54152E+00  1.00152E+00  5.39998E-01
    9005.033     10.564   2.160  1.46317E+00  1.00462E+00  4.58551E-01
    9005.698     11.228   2.200  1.38488E+00  1.00731E+00  3.77564E-01
    9006.374     11.905   2.240  1.31404E+00  1.00960E+00  3.04436E-01
    9007.063     12.593   2.280  1.24263E+00  1.01152E+00  2.31110E-01
    9007.764     13.295   2.320  1.17020E+00  1.01307E+00  1.57127E-01
    9008.478     14.008   2.360  1.11125E+00  1.01431E+00  9.69309E-02
    9009.203     14.733   2.400  1.07154E+00  1.01527E+00  5.62785E-02
    9009.941     15.471   2.440  1.04136E+00  1.01593E+00  2.54241E-02
    9010.690     16.221   2.480  1.01465E+00  1.01635E+00 -1.69637E-03
    9011.452     16.983   2.520  9.97668E-01  1.01655E+00 -1.88816E-02
    9012.227     17.757   2.560  1.00093E+00  1.01654E+00 -1.56105E-02
    9013.013     18.543   2.600  1.02564E+00  1.01633E+00  9.30692E-03
    9013.811     19.342   2.640  1.06065E+00  1.01596E+00  4.46977E-02
    9014.622     20.152   2.680  1.07508E+00  1.01545E+00  5.96391E-02
    9015.445     20.975   2.720  1.05800E+00  1.01481E+00  4.31940E-02
    9016.280     21.811   2.760  1.02833E+00  1.01405E+00  1.42791E-02
    9017.128     22.658   2.800  1.00012E+00  1.01320E+00 -1.30890E-02
    9017.987     23.517   2.840  9.79480E-01  1.01228E+00 -3.27977E-02
    9018.859     24.389   2.880  9.67212E-01  1.01128E+00 -4.40655E-02
    9019.743     25.273   2.920  9.61272E-01  1.01025E+00 -4.89796E-02
    9020.639     26.169   2.960  9.58606E-01  1.00919E+00 -5.05800E-02
    9021.547     27.078   3.000  9.56495E-01  1.00809E+00 -5.15930E-02
    9022.468     27.998   3.040  9.53701E-01  1.00698E+00 -5.32808E-02
    9023.400     28.931   3.080  9.50082E-01  1.00587E+00 -5.57911E-02
    9024.345     29.876   3.120  9.45724E-01  1.00477E+00 -5.90445E-02
    9025.302     30.833   3.160  9.40664E-01  1.00369E+00 -6.30275E-02
    9026.272     31.802   3.200  9.34938E-01  1.00263E+00 -6.76877E-02
    9027.253     32.783   3.240  9.28755E-01  1.00162E+00 -7.28619E-02
    9028.247     33.777   3.280  9.22269E-01  1.00063E+00 -7.83575E-02
    9029.253     34.783   3.320  9.15808E-01  9.99677E-01 -8.38692E-02
    9030.271     35.801   3.360  9.09784E-01  9.98793E-01 -8.90091E-02
    9031.301     36.831   3.400  9.04535E-01  9.97955E-01 -9.34201E-02
    9032.343     37.873   3.440  9.00562E-01  9.97166E-01 -9.66032E-02
    9033.398     38.928   3.480  8.98468E-01  9.96447E-01 -9.79791E-02
    9034.465     39.995   3.520  8.98622E-01  9.95801E-01 -9.71790E-02
    9035.544     41.074   3.560  9.00853E-01  9.95209E-01 -9.43562E-02
    9036.635     42.165   3.600  9.04895E-01  9.94691E-01 -8.97964E-02
    9037.738     43.268   3.640  9.10487E-01  9.94249E-01 -8.37614E-02
    9038.854     44.384   3.680  9.17454E-01  9.93860E-01 -7.64061E-02
    9039.982     45.512   3.720  9.25884E-01  9.93569E-01 -6.76855E-02
    9041.121     46.652   3.760  9.35819E-01  9.93333E-01 -5.75138E-02
    9042.274     47.804   3.800  9.47101E-01  9.93151E-01 -4.60496E-02
    9043.438     48.968   3.840  9.59103E-01  9.93065E-01 -3.39622E-02
    9044.614     50.145   3.880  9.70994E-01  9.93034E-01 -2.20399E-02
    9045.803     51.333   3.920  9.82095E-01  9.93078E-01 -1.09834E-02
    9047.004     52.534   3.960  9.92044E-01  9.93196E-01 -1.15260E-03
    9048.217     53.747   4.000  1.00085E+00  9.93366E-01  7.48435E-03
    9049.442     54.973   4.040  1.00868E+00  9.93607E-01  1.50691E-02
    9050.680     56.210   4.080  1.01543E+00  9.93897E-01  2.15303E-02
    9051.930     57.460   4.120  1.02084E+00  9.94255E-01  2.65880E-02
    9053.191     58.722   4.160  1.02460E+00  9.94660E-01  2.99363E-02
    9054.466     59.996   4.200  1.02659E+00  9.95108E-01  3.14853E-02
    9055.752     61.282   4.240  1.02711E+00  9.95598E-01  3.15141E-02
    9057.050     62.580   4.280  1.02686E+00  9.96130E-01  3.07338E-02
    9058.361     63.891   4.320  1.02672E+00  9.96724E-01  2.99949E-02
    9059.684     65.214   4.360  1.02738E+00  9.97334E-01  3.00439E-02
    9061.019     66.549   4.400  1.02933E+00  9.97980E-01  3.13496E-02
    9062.366     67.896   4.440  1.03283E+00  9.98659E-01  3.41676E-02
    9063.725     69.256   4.480  1.03793E+00  9.99349E-01  3.85782E-02
    9065.097     70.627   4.520  1.04450E+00  1.00007E+00  4.44341E-02
    9066.481     72.011   4.560  1.05213E+00  1.00079E+00  5.13368E-02
    9067.877     73.407   4.600  1.06002E+00  1.00152E+00  5.85007E-02
    9069.285     74.815   4.640  1.06715E+00  1.00227E+00  6.48723E-02
    9070.705     76.235   4.680  1.07248E+00  1.00301E+00  6.94767E-02
    9072.138     77.668   4.720  1.07540E+00  1.00376E+00  7.16444E-02
    9073.583     79.113   4.760  1.07559E+00  1.00448E+00  7.11119E-02
    9075.039     80.570   4.800  1.07328E+00  1.00520E+00  6.80782E-02
    9076.509     82.039   4.840  1.06886E+00  1.00592E+00  6.29400E-02
    9077.990     83.520   4.880  1.06289E+00  1.00663E+00  5.62658E-02
    9079.483     85.014   4.920  1.05602E+00  1.00730E+00  4.87205E-02
    9080.989     86.519   4.960  1.04886E+00  1.00794E+00  4.09231E-02
    9082.507     88.037   5.000  1.04188E+00  1.00854E+00  3.33462E-02
    9084.037     89.567   5.040  1.03534E+00  1.00912E+00  2.62213E-02
    9085.579     91.110   5.080  1.02928E+00  1.00967E+00  1.96066E-02
    9087.134     92.664   5.120  1.02368E+00  1.01018E+00  1.34986E-02
    9088.701     94.231   5.160  1.01850E+00  1.01064E+00  7.85583E-03
    9090.279     95.810   5.200  1.01368E+00  1.01107E+00  2.61210E-03
    9091.870     97.401   5.240  1.00918E+00  1.01145E+00 -2.26878E-03
    9093.474     99.004   5.280  1.00504E+00  1.01179E+00 -6.75251E-03
    9095.089    100.619   5.320  1.00124E+00  1.01208E+00 -1.08474E-02
    9096.717    102.247   5.360  9.97493E-01  1.01231E+00 -1.48142E-02
    9098.357    103.887   5.400  9.93253E-01  1.01249E+00 -1.92323E-02
    9100.009    105.539   5.440  9.87892E-01  1.01262E+00 -2.47269E-02
    9101.673    107.203   5.480  9.81007E-01  1.01271E+00 -3.16991E-02
    9103.349    108.879   5.520  9.72582E-01  1.01272E+00 -4.01424E-02
    9105.038    110.568   5.560  9.63163E-01  1.01269E+00 -4.95319E-02
    9106.739    112.269   5.600  9.53800E-01  1.01262E+00 -5.88217E-02
    9108.451    113.982   5.640  9.45781E-01  1.01250E+00 -6.67217E-02
    9110.177    115.707   5.680  9.40219E-01  1.01232E+00 -7.20979E-02
    9111.914    117.444   5.720  9.37788E-01  1.01208E+00 -7.42967E-02
    9113.664    119.194   5.760  9.38630E-01  1.01181E+00 -7.31804E-02
    9115.425    120.956   5.800  9.42428E-01  1.01149E+00 -6.90673E-02
    9117.199    122.729   5.840  9.48466E-01  1.01114E+00 -6.26717E-02
    9118.985    124.516   5.880  9.55630E-01  1.01072E+00 -5.50889E-02
    9120.784    126.314   5.920  9.62733E-01  1.01029E+00 -4.75552E-02
    9122.594    128.124   5.960  9.68819E-01  1.00982E+00 -4.10029E-02
    9124.417    129.947   6.000  9.73792E-01  1.00926E+00 -3.54699E-02
