# # comment:                                                     FEFF 9.9.1  
# # Source:
# # Structure
# # Reduced
# # space
# # abc:
# # angles:106.436465
# # sites:
# # POT  SCF 100  7.0000   0, screened core-hole, AFOLP (folp(0)= 1.150)
# # Abs   Z=29 Rmt= 1.219 Rnm= 1.300 K  shell
# # Pot 1 Z=56 Rmt= 1.928 Rnm= 1.989
# # Pot 2 Z=39 Rmt= 1.633 Rnm= 1.704
# # Pot 3 Z=29 Rmt= 1.219 Rnm= 1.300
# # Pot 4 Z= 8 Rmt= 1.053 Rnm= 1.108
# # Gam_ch=1.729E+00 H-L exch Vi= 0.000E+00 Vr= 0.000E+00
# # Mu=-8.170E+00eV kf=2.003E+00 Vint=-1.718E+01eV Rs_int= 1.811
# FMS rfms= 9.0000
# # PATH  Rmax=-1.000,  Keep_limit= 0.00, Heap_limit 0.00  Pwcrit= 2.50%
#  S02=0.950  Temp=   0.00  Debye_temp=   0.00  Global_sig2= 0.00000
#  Energy zero shift, vr, vi    0.00000E+00   0.00000E+00
#  Curved wave amplitude ratio filter   4.000%
#     file         sig2 tot  cw amp ratio   deg  nlegs   reff  inp sig2
#     0/   0 paths used
#  xsedge+ 50, used to normalize mu           2.4378E-04
#  -----------------------------------------------------------------------
#  omega    e    k    mu    mu0     chi     @#
    8984.901    -11.980  -1.000  4.23957E-02  5.87577E-02 -1.63620E-02
    8985.199    -11.681  -0.960  4.47919E-02  6.31481E-02 -1.83561E-02
    8985.486    -11.395  -0.920  4.73931E-02  6.80355E-02 -2.06424E-02
    8985.760    -11.121  -0.880  5.02246E-02  7.34939E-02 -2.32693E-02
    8986.022    -10.858  -0.840  5.33154E-02  7.96091E-02 -2.62937E-02
    8986.272    -10.608  -0.800  5.66985E-02  8.64809E-02 -2.97824E-02
    8986.510    -10.371  -0.760  6.04113E-02  9.42237E-02 -3.38124E-02
    8986.735    -10.145  -0.720  6.44952E-02  1.02967E-01 -3.84716E-02
    8986.949     -9.932  -0.680  6.89949E-02  1.12853E-01 -4.38578E-02
    8987.150     -9.731  -0.640  7.39567E-02  1.24032E-01 -5.00755E-02
    8987.339     -9.542  -0.600  7.94246E-02  1.36653E-01 -5.72284E-02
    8987.516     -9.365  -0.560  8.54345E-02  1.50842E-01 -6.54075E-02
    8987.680     -9.200  -0.520  9.20048E-02  1.66675E-01 -7.46698E-02
    8987.833     -9.048  -0.480  9.91240E-02  1.84135E-01 -8.50115E-02
    8987.973     -8.908  -0.440  1.06736E-01  2.03071E-01 -9.63349E-02
    8988.101     -8.780  -0.400  1.14728E-01  2.23150E-01 -1.08422E-01
    8988.217     -8.664  -0.360  1.22925E-01  2.43851E-01 -1.20926E-01
    8988.320     -8.560  -0.320  1.31099E-01  2.64497E-01 -1.33398E-01
    8988.412     -8.469  -0.280  1.38990E-01  2.84337E-01 -1.45347E-01
    8988.491     -8.390  -0.240  1.46339E-01  3.02649E-01 -1.56310E-01
    8988.558     -8.322  -0.200  1.52911E-01  3.18828E-01 -1.65918E-01
    8988.613     -8.268  -0.160  1.58515E-01  3.32435E-01 -1.73920E-01
    8988.656     -8.225  -0.120  1.63009E-01  3.43188E-01 -1.80179E-01
    8988.686     -8.194  -0.080  1.66292E-01  3.50933E-01 -1.84641E-01
    8988.711     -8.170   0.000  1.68978E-01  3.57154E-01 -1.88175E-01
    8988.765     -8.115   0.120  1.75071E-01  3.71186E-01 -1.96115E-01
    8988.808     -8.073   0.160  1.79836E-01  3.82068E-01 -2.02232E-01
    8988.863     -8.018   0.200  1.86019E-01  3.95968E-01 -2.09949E-01
    8988.930     -7.951   0.240  1.93651E-01  4.12670E-01 -2.19019E-01
    8989.009     -7.871   0.280  2.02679E-01  4.31831E-01 -2.29151E-01
    8989.101     -7.780   0.320  2.13070E-01  4.52952E-01 -2.39881E-01
    8989.204     -7.676   0.360  2.24617E-01  4.75393E-01 -2.50775E-01
    8989.320     -7.560   0.400  2.37016E-01  4.98474E-01 -2.61458E-01
    8989.448     -7.432   0.440  2.49850E-01  5.21615E-01 -2.71765E-01
    8989.588     -7.292   0.480  2.62465E-01  5.44308E-01 -2.81843E-01
    8989.741     -7.140   0.520  2.74248E-01  5.66256E-01 -2.92009E-01
    8989.905     -6.975   0.560  2.84908E-01  5.87300E-01 -3.02392E-01
    8990.082     -6.798   0.600  2.94786E-01  6.07402E-01 -3.12616E-01
    8990.271     -6.609   0.640  3.04841E-01  6.26605E-01 -3.21764E-01
    8990.472     -6.408   0.680  3.16393E-01  6.45014E-01 -3.28621E-01
    8990.686     -6.195   0.720  3.30844E-01  6.62709E-01 -3.31865E-01
    8990.911     -5.969   0.760  3.49851E-01  6.79790E-01 -3.29940E-01
    8991.149     -5.732   0.800  3.74933E-01  6.96345E-01 -3.21412E-01
    8991.399     -5.482   0.840  4.06026E-01  7.12448E-01 -3.06422E-01
    8991.661     -5.220   0.880  4.39365E-01  7.28177E-01 -2.88812E-01
    8991.935     -4.945   0.920  4.67170E-01  7.43516E-01 -2.76346E-01
    8992.222     -4.659   0.960  4.81698E-01  7.58533E-01 -2.76835E-01
    8992.520     -4.360   1.000  4.81350E-01  7.73248E-01 -2.91898E-01
    8992.831     -4.049   1.040  4.72254E-01  7.87628E-01 -3.15374E-01
    8993.154     -3.726   1.080  4.63212E-01  8.01693E-01 -3.38481E-01
    8993.490     -3.391   1.120  4.60579E-01  8.15416E-01 -3.54836E-01
    8993.837     -3.043   1.160  4.67313E-01  8.28806E-01 -3.61493E-01
    8994.197     -2.684   1.200  4.83720E-01  8.41848E-01 -3.58128E-01
    8994.569     -2.312   1.240  5.07982E-01  8.54481E-01 -3.46499E-01
    8994.953     -1.928   1.280  5.37355E-01  8.66724E-01 -3.29369E-01
    8995.349     -1.532   1.320  5.70643E-01  8.78536E-01 -3.07893E-01
    8995.757     -1.123   1.360  6.11224E-01  8.89893E-01 -2.78669E-01
    8996.178     -0.702   1.400  6.65897E-01  9.00813E-01 -2.34915E-01
    8996.611     -0.270   1.440  7.42007E-01  9.11230E-01 -1.69223E-01
    8997.056      0.175   1.480  8.43839E-01  9.21163E-01 -7.73242E-02
    8997.513      0.633   1.520  9.70402E-01  9.30590E-01  3.98119E-02
    8997.982      1.102   1.560  1.11935E+00  9.39510E-01  1.79844E-01
    8998.464      1.584   1.600  1.26267E+00  9.47922E-01  3.14752E-01
    8998.958      2.077   1.640  1.33878E+00  9.55785E-01  3.82994E-01
    8999.464      2.583   1.680  1.36769E+00  9.63144E-01  4.04550E-01
    8999.982      3.101   1.720  1.44355E+00  9.69980E-01  4.73568E-01
    9000.512      3.632   1.760  1.56533E+00  9.76298E-01  5.89029E-01
    9001.055      4.174   1.800  1.63390E+00  9.82104E-01  6.51798E-01
    9001.610      4.729   1.840  1.58524E+00  9.87402E-01  5.97840E-01
    9002.177      5.296   1.880  1.47058E+00  9.92242E-01  4.78340E-01
    9002.756      5.875   1.920  1.35975E+00  9.96592E-01  3.63157E-01
    9003.347      6.466   1.960  1.27384E+00  1.00048E+00  2.73361E-01
    9003.950      7.070   2.000  1.20509E+00  1.00396E+00  2.01136E-01
    9004.566      7.686   2.040  1.15642E+00  1.00699E+00  1.49429E-01
    9005.194      8.313   2.080  1.13875E+00  1.00963E+00  1.29114E-01
    9005.834      8.954   2.120  1.14437E+00  1.01190E+00  1.32469E-01
    9006.486      9.606   2.160  1.14885E+00  1.01381E+00  1.35041E-01
    9007.151     10.270   2.200  1.12507E+00  1.01537E+00  1.09698E-01
    9007.827     10.947   2.240  1.07249E+00  1.01662E+00  5.58711E-02
    9008.516     11.636   2.280  1.01957E+00  1.01760E+00  1.97104E-03
    9009.217     12.337   2.320  9.91565E-01  1.01827E+00 -2.67090E-02
    9009.931     13.050   2.360  9.94402E-01  1.01872E+00 -2.43151E-02
    9010.656     13.775   2.400  1.01908E+00  1.01894E+00  1.41578E-04
    9011.394     14.513   2.440  1.05866E+00  1.01893E+00  3.97275E-02
    9012.143     15.263   2.480  1.09211E+00  1.01874E+00  7.33664E-02
    9012.905     16.025   2.520  1.11236E+00  1.01839E+00  9.39711E-02
    9013.680     16.799   2.560  1.11543E+00  1.01789E+00  9.75399E-02
    9014.466     17.585   2.600  1.10245E+00  1.01724E+00  8.52086E-02
    9015.265     18.384   2.640  1.07852E+00  1.01650E+00  6.20279E-02
    9016.075     19.195   2.680  1.04988E+00  1.01564E+00  3.42425E-02
    9016.898     20.018   2.720  1.02176E+00  1.01471E+00  7.04595E-03
    9017.733     20.853   2.760  9.96582E-01  1.01371E+00 -1.71242E-02
    9018.581     21.700   2.800  9.74736E-01  1.01263E+00 -3.78973E-02
    9019.440     22.560   2.840  9.56017E-01  1.01154E+00 -5.55208E-02
    9020.312     23.431   2.880  9.39606E-01  1.01041E+00 -7.07986E-02
    9021.196     24.315   2.920  9.24356E-01  1.00926E+00 -8.49056E-02
    9022.092     25.211   2.960  9.09647E-01  1.00809E+00 -9.84456E-02
    9023.000     26.120   3.000  8.95978E-01  1.00694E+00 -1.10965E-01
    9023.921     27.040   3.040  8.84603E-01  1.00580E+00 -1.21198E-01
    9024.854     27.973   3.080  8.76645E-01  1.00469E+00 -1.28040E-01
    9025.798     28.918   3.120  8.72794E-01  1.00358E+00 -1.30789E-01
    9026.755     29.875   3.160  8.72715E-01  1.00252E+00 -1.29802E-01
    9027.725     30.844   3.200  8.75514E-01  1.00151E+00 -1.25999E-01
    9028.706     31.826   3.240  8.79911E-01  1.00053E+00 -1.20619E-01
    9029.700     32.819   3.280  8.84569E-01  9.99612E-01 -1.15043E-01
    9030.706     33.825   3.320  8.88698E-01  9.98742E-01 -1.10044E-01
    9031.724     34.843   3.360  8.92491E-01  9.97943E-01 -1.05452E-01
    9032.754     35.873   3.400  8.97014E-01  9.97195E-01 -1.00181E-01
    9033.796     36.916   3.440  9.03299E-01  9.96521E-01 -9.32220E-02
    9034.851     37.970   3.480  9.12155E-01  9.95923E-01 -8.37674E-02
    9035.918     39.037   3.520  9.23963E-01  9.95400E-01 -7.14369E-02
    9036.997     40.116   3.560  9.38601E-01  9.94931E-01 -5.63305E-02
    9038.088     41.207   3.600  9.55634E-01  9.94540E-01 -3.89063E-02
    9039.191     42.311   3.640  9.74181E-01  9.94226E-01 -2.00446E-02
    9040.307     43.426   3.680  9.92953E-01  9.93989E-01 -1.03618E-03
    9041.435     44.554   3.720  1.01026E+00  9.93830E-01  1.64316E-02
    9042.575     45.694   3.760  1.02447E+00  9.93727E-01  3.07440E-02
    9043.727     46.846   3.800  1.03429E+00  9.93721E-01  4.05701E-02
    9044.891     48.010   3.840  1.03888E+00  9.93768E-01  4.51104E-02
    9046.068     49.187   3.880  1.03855E+00  9.93868E-01  4.46847E-02
    9047.256     50.376   3.920  1.03467E+00  9.94062E-01  4.06069E-02
    9048.457     51.577   3.960  1.02899E+00  9.94288E-01  3.46995E-02
    9049.670     52.790   4.000  1.02332E+00  9.94605E-01  2.87128E-02
    9050.896     54.015   4.040  1.01888E+00  9.94972E-01  2.39038E-02
    9052.133     55.252   4.080  1.01635E+00  9.95387E-01  2.09678E-02
    9053.383     56.502   4.120  1.01606E+00  9.95867E-01  2.01951E-02
    9054.645     57.764   4.160  1.01800E+00  9.96369E-01  2.16339E-02
    9055.919     59.038   4.200  1.02175E+00  9.96936E-01  2.48139E-02
    9057.205     60.324   4.240  1.02655E+00  9.97545E-01  2.90029E-02
    9058.503     61.623   4.280  1.03197E+00  9.98192E-01  3.37817E-02
    9059.814     62.933   4.320  1.03797E+00  9.98875E-01  3.90936E-02
    9061.137     64.256   4.360  1.04438E+00  9.99572E-01  4.48114E-02
    9062.472     65.591   4.400  1.05091E+00  1.00030E+00  5.06070E-02
    9063.819     66.938   4.440  1.05741E+00  1.00106E+00  5.63416E-02
    9065.178     68.298   4.480  1.06400E+00  1.00183E+00  6.21660E-02
    9066.550     69.669   4.520  1.07103E+00  1.00261E+00  6.84241E-02
    9067.934     71.053   4.560  1.07869E+00  1.00340E+00  7.52893E-02
    9069.330     72.449   4.600  1.08643E+00  1.00420E+00  8.22304E-02
    9070.738     73.857   4.640  1.09275E+00  1.00498E+00  8.77672E-02
    9072.158     75.278   4.680  1.09563E+00  1.00578E+00  8.98511E-02
    9073.591     76.710   4.720  1.09322E+00  1.00654E+00  8.66726E-02
    9075.036     78.155   4.760  1.08467E+00  1.00731E+00  7.73649E-02
    9076.493     79.612   4.800  1.07029E+00  1.00806E+00  6.22323E-02
    9077.962     81.081   4.840  1.05135E+00  1.00878E+00  4.25695E-02
    9079.443     82.562   4.880  1.02987E+00  1.00949E+00  2.03805E-02
    9080.937     84.056   4.920  1.00823E+00  1.01017E+00 -1.93482E-03
    9082.442     85.562   4.960  9.88671E-01  1.01080E+00 -2.21327E-02
    9083.960     87.080   5.000  9.72907E-01  1.01140E+00 -3.84934E-02
    9085.490     88.610   5.040  9.61973E-01  1.01196E+00 -4.99830E-02
    9087.032     90.152   5.080  9.56199E-01  1.01249E+00 -5.62949E-02
    9088.587     91.706   5.120  9.54962E-01  1.01297E+00 -5.80041E-02
    9090.154     93.273   5.160  9.56931E-01  1.01339E+00 -5.64630E-02
    9091.732     94.852   5.200  9.60451E-01  1.01378E+00 -5.33280E-02
    9093.324     96.443   5.240  9.64105E-01  1.01412E+00 -5.00142E-02
    9094.927     98.046   5.280  9.67155E-01  1.01441E+00 -4.72575E-02
    9096.542     99.662   5.320  9.69525E-01  1.01464E+00 -4.51119E-02
    9098.170    101.289   5.360  9.71493E-01  1.01481E+00 -4.33205E-02
    9099.810    102.929   5.400  9.73201E-01  1.01494E+00 -4.17419E-02
    9101.462    104.581   5.440  9.74615E-01  1.01500E+00 -4.03877E-02
    9103.126    106.245   5.480  9.75766E-01  1.01502E+00 -3.92499E-02
    9104.802    107.922   5.520  9.76762E-01  1.01498E+00 -3.82202E-02
    9106.491    109.610   5.560  9.77836E-01  1.01490E+00 -3.70678E-02
    9108.192    111.311   5.600  9.79346E-01  1.01475E+00 -3.54086E-02
    9109.905    113.024   5.640  9.81535E-01  1.01456E+00 -3.30216E-02
    9111.630    114.749   5.680  9.84386E-01  1.01429E+00 -2.99036E-02
    9113.367    116.487   5.720  9.87495E-01  1.01398E+00 -2.64854E-02
    9115.117    118.236   5.760  9.90259E-01  1.01365E+00 -2.33932E-02
    9116.878    119.998   5.800  9.91901E-01  1.01326E+00 -2.13582E-02
    9118.652    121.772   5.840  9.91857E-01  1.01283E+00 -2.09698E-02
    9120.438    123.558   5.880  9.90147E-01  1.01236E+00 -2.22087E-02
    9122.237    125.356   5.920  9.87683E-01  1.01185E+00 -2.41668E-02
    9124.047    127.167   5.960  9.86143E-01  1.01131E+00 -2.51662E-02
    9125.870    128.989   6.000  9.87147E-01  1.01070E+00 -2.35567E-02
