# # comment:                                                     FEFF 9.9.1  
# # Source:
# # Structure
# # Reduced
# # space
# # abc:
# # angles:
# # sites:
# # POT  SCF 100  7.0000   0, screened core-hole, AFOLP (folp(0)= 1.150)
# # Abs   Z=29 Rmt= 1.255 Rnm= 1.368 K  shell
# # Pot 1 Z=29 Rmt= 1.296 Rnm= 1.366
# # Pot 2 Z= 1 Rmt= 0.692 Rnm= 0.837
# # Pot 3 Z=17 Rmt= 1.126 Rnm= 1.405
# # Pot 4 Z= 8 Rmt= 1.049 Rnm= 1.144
# # Gam_ch=1.729E+00 H-L exch Vi= 0.000E+00 Vr= 0.000E+00
# # Mu=-5.950E+00eV kf=2.045E+00 Vint=-1.355E+01eV Rs_int= 1.773
# FMS rfms= 9.0000
# # PATH  Rmax=-1.000,  Keep_limit= 0.00, Heap_limit 0.00  Pwcrit= 2.50%
#  S02=0.950  Temp=   0.00  Debye_temp=   0.00  Global_sig2= 0.00000
#  Energy zero shift, vr, vi    0.00000E+00   0.00000E+00
#  Curved wave amplitude ratio filter   4.000%
#     file         sig2 tot  cw amp ratio   deg  nlegs   reff  inp sig2
#     0/   0 paths used
#  xsedge+ 50, used to normalize mu           2.4319E-04
#  -----------------------------------------------------------------------
#  omega    e    k    mu    mu0     chi     @#
    8983.322     -9.760  -1.000  4.18165E-02  5.85039E-02 -1.66874E-02
    8983.621     -9.461  -0.960  4.40175E-02  6.28472E-02 -1.88297E-02
    8983.907     -9.175  -0.920  4.63700E-02  6.76776E-02 -2.13076E-02
    8984.182     -8.900  -0.880  4.88867E-02  7.30667E-02 -2.41799E-02
    8984.444     -8.638  -0.840  5.15811E-02  7.90978E-02 -2.75166E-02
    8984.694     -8.388  -0.800  5.44678E-02  8.58674E-02 -3.13997E-02
    8984.932     -8.151  -0.760  5.75621E-02  9.34863E-02 -3.59242E-02
    8985.157     -7.925  -0.720  6.08800E-02  1.02079E-01 -4.11993E-02
    8985.371     -7.712  -0.680  6.44376E-02  1.11784E-01 -4.73465E-02
    8985.572     -7.511  -0.640  6.82495E-02  1.22746E-01 -5.44961E-02
    8985.761     -7.322  -0.600  7.23275E-02  1.35106E-01 -6.27787E-02
    8985.937     -7.145  -0.560  7.66772E-02  1.48987E-01 -7.23103E-02
    8986.102     -6.980  -0.520  8.12932E-02  1.64461E-01 -8.31681E-02
    8986.254     -6.828  -0.480  8.61537E-02  1.81512E-01 -9.53581E-02
    8986.395     -6.688  -0.440  9.12131E-02  1.99989E-01 -1.08776E-01
    8986.523     -6.560  -0.400  9.63970E-02  2.19573E-01 -1.23176E-01
    8986.638     -6.444  -0.360  1.01601E-01  2.39759E-01 -1.38158E-01
    8986.742     -6.340  -0.320  1.06696E-01  2.59891E-01 -1.53195E-01
    8986.834     -6.249  -0.280  1.11541E-01  2.79241E-01 -1.67701E-01
    8986.913     -6.169  -0.240  1.15999E-01  2.97109E-01 -1.81110E-01
    8986.980     -6.102  -0.200  1.19952E-01  3.12905E-01 -1.92954E-01
    8987.035     -6.047  -0.160  1.23303E-01  3.26198E-01 -2.02895E-01
    8987.077     -6.005  -0.120  1.25982E-01  3.36711E-01 -2.10729E-01
    8987.108     -5.974  -0.080  1.27936E-01  3.44286E-01 -2.16350E-01
    8987.132     -5.950   0.000  1.29541E-01  3.50374E-01 -2.20833E-01
    8987.187     -5.895   0.120  1.33258E-01  3.64106E-01 -2.30847E-01
    8987.230     -5.852   0.160  1.36121E-01  3.74792E-01 -2.38671E-01
    8987.285     -5.798   0.200  1.39809E-01  3.88429E-01 -2.48621E-01
    8987.352     -5.730   0.240  1.44363E-01  4.04843E-01 -2.60480E-01
    8987.431     -5.651   0.280  1.49846E-01  4.23737E-01 -2.73891E-01
    8987.522     -5.560   0.320  1.56272E-01  4.44587E-01 -2.88316E-01
    8987.626     -5.456   0.360  1.63790E-01  4.66855E-01 -3.03065E-01
    8987.742     -5.340   0.400  1.72565E-01  4.89881E-01 -3.17316E-01
    8987.870     -5.212   0.440  1.82883E-01  5.13097E-01 -3.30215E-01
    8988.010     -5.072   0.480  1.95152E-01  5.36043E-01 -3.40891E-01
    8988.162     -4.920   0.520  2.09929E-01  5.58395E-01 -3.48466E-01
    8988.327     -4.755   0.560  2.28019E-01  5.80018E-01 -3.51999E-01
    8988.504     -4.578   0.600  2.50321E-01  6.00872E-01 -3.50551E-01
    8988.693     -4.389   0.640  2.77820E-01  6.20988E-01 -3.43168E-01
    8988.894     -4.188   0.680  3.11130E-01  6.40419E-01 -3.29288E-01
    8989.107     -3.975   0.720  3.49848E-01  6.59249E-01 -3.09401E-01
    8989.333     -3.749   0.760  3.91625E-01  6.77542E-01 -2.85917E-01
    8989.571     -3.512   0.800  4.32527E-01  6.95391E-01 -2.62864E-01
    8989.821     -3.262   0.840  4.69800E-01  7.12814E-01 -2.43014E-01
    8990.083     -2.999   0.880  5.05604E-01  7.29853E-01 -2.24250E-01
    8990.357     -2.725   0.920  5.46385E-01  7.46539E-01 -2.00154E-01
    8990.644     -2.439   0.960  5.96740E-01  7.62846E-01 -1.66106E-01
    8990.942     -2.140   1.000  6.53329E-01  7.78781E-01 -1.25452E-01
    8991.253     -1.829   1.040  7.04524E-01  7.94341E-01 -8.98165E-02
    8991.576     -1.506   1.080  7.38529E-01  8.09495E-01 -7.09656E-02
    8991.911     -1.171   1.120  7.52708E-01  8.24227E-01 -7.15192E-02
    8992.259     -0.823   1.160  7.47602E-01  8.38497E-01 -9.08957E-02
    8992.619     -0.464   1.200  7.21581E-01  8.52264E-01 -1.30683E-01
    8992.990     -0.092   1.240  6.81045E-01  8.65542E-01 -1.84497E-01
    8993.375      0.292   1.280  6.41847E-01  8.78267E-01 -2.36420E-01
    8993.771      0.689   1.320  6.19700E-01  8.90435E-01 -2.70735E-01
    8994.179      1.097   1.360  6.21646E-01  9.01998E-01 -2.80352E-01
    8994.600      1.518   1.400  6.46547E-01  9.12976E-01 -2.66429E-01
    8995.033      1.950   1.440  6.92589E-01  9.23324E-01 -2.30735E-01
    8995.478      2.395   1.480  7.56716E-01  9.33042E-01 -1.76327E-01
    8995.935      2.853   1.520  8.29971E-01  9.42153E-01 -1.12182E-01
    8996.404      3.322   1.560  9.05464E-01  9.50616E-01 -4.51519E-02
    8996.886      3.804   1.600  9.82386E-01  9.58435E-01  2.39502E-02
    8997.380      4.297   1.640  1.05546E+00  9.65639E-01  8.98213E-02
    8997.886      4.803   1.680  1.11785E+00  9.72254E-01  1.45598E-01
    8998.404      5.322   1.720  1.17320E+00  9.78248E-01  1.94948E-01
    8998.934      5.852   1.760  1.23273E+00  9.83673E-01  2.49060E-01
    8999.477      6.394   1.800  1.30597E+00  9.88518E-01  3.17451E-01
    9000.031      6.949   1.840  1.39399E+00  9.92859E-01  4.01133E-01
    9000.598      7.516   1.880  1.48927E+00  9.96667E-01  4.92605E-01
    9001.177      8.095   1.920  1.56449E+00  9.99996E-01  5.64497E-01
    9001.769      8.687   1.960  1.57390E+00  1.00284E+00  5.71064E-01
    9002.372      9.290   2.000  1.50447E+00  1.00528E+00  4.99195E-01
    9002.988      9.906   2.040  1.39648E+00  1.00730E+00  3.89176E-01
    9003.616     10.534   2.080  1.29737E+00  1.00895E+00  2.88420E-01
    9004.256     11.174   2.120  1.22918E+00  1.01025E+00  2.18928E-01
    9004.908     11.826   2.160  1.18766E+00  1.01124E+00  1.76417E-01
    9005.573     12.490   2.200  1.15326E+00  1.01194E+00  1.41315E-01
    9006.249     13.167   2.240  1.11277E+00  1.01237E+00  1.00404E-01
    9006.938     13.856   2.280  1.06998E+00  1.01256E+00  5.74243E-02
    9007.639     14.557   2.320  1.03665E+00  1.01254E+00  2.41061E-02
    9008.352     15.270   2.360  1.02151E+00  1.01232E+00  9.18710E-03
    9009.078     15.996   2.400  1.02284E+00  1.01194E+00  1.08998E-02
    9009.815     16.733   2.440  1.02958E+00  1.01142E+00  1.81656E-02
    9010.565     17.483   2.480  1.03049E+00  1.01079E+00  1.96966E-02
    9011.327     18.245   2.520  1.02359E+00  1.01005E+00  1.35361E-02
    9012.101     19.019   2.560  1.01057E+00  1.00922E+00  1.34139E-03
    9012.888     19.806   2.600  9.94469E-01  1.00832E+00 -1.38533E-02
    9013.686     20.604   2.640  9.78857E-01  1.00739E+00 -2.85375E-02
    9014.497     21.415   2.680  9.65505E-01  1.00641E+00 -4.09008E-02
    9015.320     22.238   2.720  9.54618E-01  1.00543E+00 -5.08096E-02
    9016.155     23.073   2.760  9.45023E-01  1.00442E+00 -5.94002E-02
    9017.003     23.920   2.800  9.35638E-01  1.00342E+00 -6.77818E-02
    9017.862     24.780   2.840  9.25960E-01  1.00244E+00 -7.64839E-02
    9018.734     25.652   2.880  9.15919E-01  1.00150E+00 -8.55806E-02
    9019.618     26.536   2.920  9.05932E-01  1.00057E+00 -9.46399E-02
    9020.514     27.432   2.960  8.96872E-01  9.99706E-01 -1.02834E-01
    9021.422     28.340   3.000  8.89387E-01  9.98884E-01 -1.09496E-01
    9022.343     29.260   3.040  8.84038E-01  9.98108E-01 -1.14071E-01
    9023.275     30.193   3.080  8.81493E-01  9.97404E-01 -1.15912E-01
    9024.220     31.138   3.120  8.81470E-01  9.96753E-01 -1.15283E-01
    9025.177     32.095   3.160  8.83425E-01  9.96196E-01 -1.12772E-01
    9026.146     33.064   3.200  8.86723E-01  9.95696E-01 -1.08973E-01
    9027.128     34.046   3.240  8.90972E-01  9.95273E-01 -1.04302E-01
    9028.122     35.039   3.280  8.96018E-01  9.94907E-01 -9.88888E-02
    9029.127     36.045   3.320  9.02057E-01  9.94642E-01 -9.25847E-02
    9030.145     37.063   3.360  9.09231E-01  9.94458E-01 -8.52273E-02
    9031.176     38.093   3.400  9.17231E-01  9.94355E-01 -7.71242E-02
    9032.218     39.136   3.440  9.25688E-01  9.94331E-01 -6.86427E-02
    9033.273     40.190   3.480  9.34255E-01  9.94365E-01 -6.01101E-02
    9034.339     41.257   3.520  9.42775E-01  9.94500E-01 -5.17250E-02
    9035.418     42.336   3.560  9.51118E-01  9.94692E-01 -4.35741E-02
    9036.510     43.427   3.600  9.59305E-01  9.94983E-01 -3.56778E-02
    9037.613     44.531   3.640  9.67233E-01  9.95330E-01 -2.80972E-02
    9038.729     45.646   3.680  9.74851E-01  9.95751E-01 -2.09000E-02
    9039.856     46.774   3.720  9.82267E-01  9.96223E-01 -1.39563E-02
    9040.996     47.914   3.760  9.89857E-01  9.96768E-01 -6.91083E-03
    9042.148     49.066   3.800  9.98001E-01  9.97384E-01  6.16714E-04
    9043.313     50.231   3.840  1.00703E+00  9.98025E-01  9.00272E-03
    9044.489     51.407   3.880  1.01733E+00  9.98755E-01  1.85719E-02
    9045.678     52.596   3.920  1.02892E+00  9.99507E-01  2.94159E-02
    9046.879     53.797   3.960  1.04165E+00  1.00030E+00  4.13522E-02
    9048.092     55.010   4.000  1.05506E+00  1.00115E+00  5.39102E-02
    9049.317     56.235   4.040  1.06830E+00  1.00202E+00  6.62804E-02
    9050.555     57.473   4.080  1.08034E+00  1.00292E+00  7.74165E-02
    9051.804     58.722   4.120  1.09035E+00  1.00383E+00  8.65180E-02
    9053.066     59.984   4.160  1.09807E+00  1.00477E+00  9.32976E-02
    9054.340     61.258   4.200  1.10361E+00  1.00572E+00  9.78899E-02
    9055.627     62.544   4.240  1.10725E+00  1.00666E+00  1.00590E-01
    9056.925     63.843   4.280  1.10918E+00  1.00763E+00  1.01548E-01
    9058.236     65.154   4.320  1.10913E+00  1.00858E+00  1.00549E-01
    9059.559     66.476   4.360  1.10663E+00  1.00952E+00  9.71070E-02
    9060.894     67.811   4.400  1.10115E+00  1.01046E+00  9.06951E-02
    9062.241     69.159   4.440  1.09249E+00  1.01139E+00  8.11067E-02
    9063.600     70.518   4.480  1.08100E+00  1.01228E+00  6.87166E-02
    9064.972     71.890   4.520  1.06770E+00  1.01314E+00  5.45567E-02
    9066.356     73.273   4.560  1.05402E+00  1.01399E+00  4.00345E-02
    9067.752     74.669   4.600  1.04131E+00  1.01479E+00  2.65119E-02
    9069.160     76.077   4.640  1.03054E+00  1.01556E+00  1.49826E-02
    9070.580     77.498   4.680  1.02216E+00  1.01628E+00  5.87130E-03
    9072.013     78.930   4.720  1.01594E+00  1.01697E+00 -1.02340E-03
    9073.457     80.375   4.760  1.01126E+00  1.01760E+00 -6.34514E-03
    9074.914     81.832   4.800  1.00723E+00  1.01817E+00 -1.09360E-02
    9076.383     83.301   4.840  1.00304E+00  1.01868E+00 -1.56396E-02
    9077.865     84.783   4.880  9.98029E-01  1.01915E+00 -2.11259E-02
    9079.358     86.276   4.920  9.91756E-01  1.01958E+00 -2.78207E-02
    9080.864     87.782   4.960  9.84202E-01  1.01993E+00 -3.57234E-02
    9082.382     89.300   5.000  9.75912E-01  1.02020E+00 -4.42882E-02
    9083.912     90.830   5.040  9.67912E-01  1.02042E+00 -5.25114E-02
    9085.454     92.372   5.080  9.61374E-01  1.02060E+00 -5.92236E-02
    9087.009     93.927   5.120  9.57167E-01  1.02070E+00 -6.35324E-02
    9088.575     95.493   5.160  9.55682E-01  1.02075E+00 -6.50668E-02
    9090.154     97.072   5.200  9.56773E-01  1.02073E+00 -6.39518E-02
    9091.745     98.663   5.240  9.60068E-01  1.02065E+00 -6.05831E-02
    9093.349    100.266   5.280  9.65101E-01  1.02050E+00 -5.54022E-02
    9094.964    101.882   5.320  9.71349E-01  1.02031E+00 -4.89560E-02
    9096.592    103.509   5.360  9.78191E-01  1.02004E+00 -4.18454E-02
    9098.231    105.149   5.400  9.85075E-01  1.01972E+00 -3.46443E-02
    9099.883    106.801   5.440  9.91635E-01  1.01936E+00 -2.77220E-02
    9101.548    108.465   5.480  9.97542E-01  1.01895E+00 -2.14074E-02
    9103.224    110.142   5.520  1.00224E+00  1.01848E+00 -1.62392E-02
    9104.913    111.830   5.560  1.00510E+00  1.01798E+00 -1.28813E-02
    9106.613    113.531   5.600  1.00570E+00  1.01742E+00 -1.17273E-02
    9108.326    115.244   5.640  1.00421E+00  1.01685E+00 -1.26341E-02
    9110.051    116.969   5.680  1.00134E+00  1.01621E+00 -1.48706E-02
    9111.789    118.707   5.720  9.98352E-01  1.01556E+00 -1.72080E-02
    9113.538    120.456   5.760  9.96618E-01  1.01488E+00 -1.82591E-02
    9115.300    122.218   5.800  9.97167E-01  1.01419E+00 -1.70186E-02
    9117.074    123.992   5.840  1.00021E+00  1.01346E+00 -1.32567E-02
    9118.860    125.778   5.880  1.00511E+00  1.01271E+00 -7.60551E-03
    9120.658    127.576   5.920  1.01073E+00  1.01197E+00 -1.23638E-03
    9122.469    129.387   5.960  1.01596E+00  1.01123E+00  4.72358E-03
    9124.292    131.209   6.000  1.02042E+00  1.01046E+00  9.96583E-03
