# # comment:                                                     FEFF 9.9.1  
# # Source:
# # Structure
# # Reduced
# # space
# # abc:
# # angles:
# # sites:
# # POT  SCF 100  7.0000   0, screened core-hole, AFOLP (folp(0)= 1.150)
# # Abs   Z=29 Rmt= 1.345 Rnm= 1.404 K  shell
# # Pot 1 Z= 3 Rmt= 1.253 Rnm= 1.312
# # Pot 2 Z=29 Rmt= 1.350 Rnm= 1.408
# # Pot 3 Z=15 Rmt= 0.945 Rnm= 1.155
# # Pot 4 Z= 8 Rmt= 0.939 Rnm= 1.037
# # Gam_ch=1.729E+00 H-L exch Vi= 0.000E+00 Vr= 0.000E+00
# # Mu=-6.333E+00eV kf=2.375E+00 Vint=-1.746E+01eV Rs_int= 1.527
# FMS rfms= 9.0000
# # PATH  Rmax=-1.000,  Keep_limit= 0.00, Heap_limit 0.00  Pwcrit= 2.50%
#  S02=0.950  Temp=   0.00  Debye_temp=   0.00  Global_sig2= 0.00000
#  Energy zero shift, vr, vi    0.00000E+00   0.00000E+00
#  Curved wave amplitude ratio filter   4.000%
#     file         sig2 tot  cw amp ratio   deg  nlegs   reff  inp sig2
#     0/   0 paths used
#  xsedge+ 50, used to normalize mu           2.4681E-04
#  -----------------------------------------------------------------------
#  omega    e    k    mu    mu0     chi     @#
    8983.741    -10.143  -1.000  4.97723E-02  5.48347E-02 -5.06240E-03
    8984.040     -9.845  -0.960  5.29907E-02  5.88560E-02 -5.86533E-03
    8984.327     -9.558  -0.920  5.65239E-02  6.33297E-02 -6.80574E-03
    8984.601     -9.284  -0.880  6.04142E-02  6.83229E-02 -7.90868E-03
    8984.863     -9.022  -0.840  6.47101E-02  7.39140E-02 -9.20390E-03
    8985.113     -8.772  -0.800  6.94675E-02  8.01940E-02 -1.07265E-02
    8985.351     -8.534  -0.760  7.47495E-02  8.72673E-02 -1.25178E-02
    8985.576     -8.308  -0.720  8.06268E-02  9.52519E-02 -1.46250E-02
    8985.790     -8.095  -0.680  8.71764E-02  1.04278E-01 -1.71018E-02
    8985.991     -7.894  -0.640  9.44781E-02  1.14484E-01 -2.00056E-02
    8986.180     -7.705  -0.600  1.02609E-01  1.26004E-01 -2.33948E-02
    8986.356     -7.528  -0.560  1.11634E-01  1.38955E-01 -2.73210E-02
    8986.521     -7.364  -0.520  1.21587E-01  1.53406E-01 -3.18180E-02
    8986.673     -7.211  -0.480  1.32456E-01  1.69342E-01 -3.68860E-02
    8986.814     -7.071  -0.440  1.44151E-01  1.86624E-01 -4.24730E-02
    8986.942     -6.943  -0.400  1.56487E-01  2.04948E-01 -4.84603E-02
    8987.058     -6.827  -0.360  1.69179E-01  2.23838E-01 -5.46585E-02
    8987.161     -6.724  -0.320  1.81851E-01  2.42674E-01 -6.08236E-02
    8987.253     -6.632  -0.280  1.94078E-01  2.60770E-01 -6.66924E-02
    8987.332     -6.553  -0.240  2.05442E-01  2.77467E-01 -7.20255E-02
    8987.399     -6.486  -0.200  2.15572E-01  2.92215E-01 -7.66426E-02
    8987.454     -6.431  -0.160  2.24175E-01  3.04612E-01 -8.04367E-02
    8987.496     -6.388  -0.120  2.31038E-01  3.14405E-01 -8.33676E-02
    8987.527     -6.358  -0.080  2.36018E-01  3.21456E-01 -8.54383E-02
    8987.551     -6.333   0.000  2.40043E-01  3.27118E-01 -8.70752E-02
    8987.606     -6.279   0.120  2.49342E-01  3.39898E-01 -9.05561E-02
    8987.649     -6.236   0.160  2.56592E-01  3.49790E-01 -9.31977E-02
    8987.704     -6.181   0.200  2.66010E-01  3.62430E-01 -9.64199E-02
    8987.771     -6.114   0.240  2.77575E-01  3.77612E-01 -1.00037E-01
    8987.850     -6.035   0.280  2.91220E-01  3.94992E-01 -1.03773E-01
    8987.941     -5.943   0.320  3.06843E-01  4.14125E-01 -1.07282E-01
    8988.045     -5.840   0.360  3.24292E-01  4.34435E-01 -1.10143E-01
    8988.161     -5.724   0.400  3.43292E-01  4.55268E-01 -1.11976E-01
    8988.289     -5.596   0.440  3.63546E-01  4.76108E-01 -1.12562E-01
    8988.429     -5.456   0.480  3.84522E-01  4.96485E-01 -1.11963E-01
    8988.582     -5.303   0.520  4.05410E-01  5.16126E-01 -1.10716E-01
    8988.746     -5.139   0.560  4.25032E-01  5.34908E-01 -1.09876E-01
    8988.923     -4.962   0.600  4.41963E-01  5.52801E-01 -1.10838E-01
    8989.112     -4.773   0.640  4.54986E-01  5.69869E-01 -1.14883E-01
    8989.313     -4.572   0.680  4.63503E-01  5.86217E-01 -1.22714E-01
    8989.526     -4.358   0.720  4.67741E-01  6.01946E-01 -1.34205E-01
    8989.752     -4.133   0.760  4.68981E-01  6.17155E-01 -1.48174E-01
    8989.990     -3.895   0.800  4.69853E-01  6.31955E-01 -1.62102E-01
    8990.240     -3.645   0.840  4.74178E-01  6.46422E-01 -1.72244E-01
    8990.502     -3.383   0.880  4.86101E-01  6.60617E-01 -1.74516E-01
    8990.776     -3.109   0.920  5.08325E-01  6.74608E-01 -1.66283E-01
    8991.063     -2.822   0.960  5.40482E-01  6.88431E-01 -1.47949E-01
    8991.361     -2.523   1.000  5.78774E-01  7.02110E-01 -1.23336E-01
    8991.672     -2.213   1.040  6.17637E-01  7.15681E-01 -9.80434E-02
    8991.995     -1.889   1.080  6.53056E-01  7.29126E-01 -7.60692E-02
    8992.331     -1.554   1.120  6.84503E-01  7.42465E-01 -5.79624E-02
    8992.678     -1.207   1.160  7.13335E-01  7.55673E-01 -4.23374E-02
    8993.038     -0.847   1.200  7.42195E-01  7.68776E-01 -2.65806E-02
    8993.410     -0.475   1.240  7.76034E-01  7.81739E-01 -5.70426E-03
    8993.794     -0.091   1.280  8.18195E-01  7.94542E-01  2.36528E-02
    8994.190      0.305   1.320  8.66509E-01  8.07163E-01  5.93461E-02
    8994.598      0.714   1.360  9.17867E-01  8.19600E-01  9.82676E-02
    8995.019      1.134   1.400  9.70165E-01  8.31825E-01  1.38340E-01
    8995.452      1.567   1.440  1.01934E+00  8.43793E-01  1.75551E-01
    8995.897      2.012   1.480  1.06370E+00  8.55496E-01  2.08201E-01
    8996.354      2.469   1.520  1.10887E+00  8.66927E-01  2.41942E-01
    8996.823      2.939   1.560  1.16075E+00  8.78056E-01  2.82698E-01
    8997.305      3.420   1.600  1.21634E+00  8.88837E-01  3.27502E-01
    8997.799      3.914   1.640  1.26879E+00  8.99282E-01  3.69509E-01
    8998.305      4.420   1.680  1.30591E+00  9.09361E-01  3.96550E-01
    8998.823      4.938   1.720  1.31452E+00  9.19048E-01  3.95469E-01
    8999.353      5.468   1.760  1.29828E+00  9.28318E-01  3.69960E-01
    8999.896      6.011   1.800  1.26651E+00  9.37184E-01  3.29328E-01
    9000.450      6.566   1.840  1.21727E+00  9.45621E-01  2.71653E-01
    9001.017      7.133   1.880  1.15677E+00  9.53627E-01  2.03142E-01
    9001.596      7.712   1.920  1.10513E+00  9.61178E-01  1.43947E-01
    9002.188      8.303   1.960  1.07423E+00  9.68274E-01  1.05953E-01
    9002.791      8.907   2.000  1.06032E+00  9.74932E-01  8.53910E-02
    9003.407      9.522   2.040  1.05475E+00  9.81133E-01  7.36169E-02
    9004.035     10.150   2.080  1.05174E+00  9.86880E-01  6.48632E-02
    9004.675     10.790   2.120  1.04904E+00  9.92173E-01  5.68666E-02
    9005.327     11.442   2.160  1.04450E+00  9.97037E-01  4.74633E-02
    9005.992     12.107   2.200  1.03579E+00  1.00145E+00  3.43305E-02
    9006.668     12.784   2.240  1.02365E+00  1.00545E+00  1.81969E-02
    9007.357     13.472   2.280  1.01160E+00  1.00904E+00  2.56295E-03
    9008.058     14.173   2.320  1.00306E+00  1.01221E+00 -9.15121E-03
    9008.771     14.887   2.360  9.96671E-01  1.01500E+00 -1.83301E-02
    9009.497     15.612   2.400  9.87086E-01  1.01740E+00 -3.03113E-02
    9010.234     16.350   2.440  9.72495E-01  1.01945E+00 -4.69533E-02
    9010.984     17.100   2.480  9.58033E-01  1.02114E+00 -6.31084E-02
    9011.746     17.862   2.520  9.49858E-01  1.02252E+00 -7.26662E-02
    9012.520     18.636   2.560  9.47909E-01  1.02357E+00 -7.56586E-02
    9013.307     19.422   2.600  9.48229E-01  1.02434E+00 -7.61119E-02
    9014.105     20.221   2.640  9.49014E-01  1.02483E+00 -7.58191E-02
    9014.916     21.031   2.680  9.50590E-01  1.02507E+00 -7.44833E-02
    9015.739     21.854   2.720  9.50473E-01  1.02509E+00 -7.46197E-02
    9016.574     22.690   2.760  9.44340E-01  1.02488E+00 -8.05392E-02
    9017.422     23.537   2.800  9.35181E-01  1.02446E+00 -8.92786E-02
    9018.281     24.396   2.840  9.28891E-01  1.02385E+00 -9.49555E-02
    9019.153     25.268   2.880  9.26761E-01  1.02309E+00 -9.63261E-02
    9020.037     26.152   2.920  9.27868E-01  1.02217E+00 -9.43016E-02
    9020.933     27.048   2.960  9.30247E-01  1.02113E+00 -9.08795E-02
    9021.841     27.956   3.000  9.32745E-01  1.01996E+00 -8.72180E-02
    9022.762     28.877   3.040  9.34939E-01  1.01871E+00 -8.37690E-02
    9023.694     29.810   3.080  9.36907E-01  1.01737E+00 -8.04632E-02
    9024.639     30.755   3.120  9.39141E-01  1.01596E+00 -7.68144E-02
    9025.596     31.712   3.160  9.42141E-01  1.01449E+00 -7.23497E-02
    9026.566     32.681   3.200  9.45910E-01  1.01298E+00 -6.70732E-02
    9027.547     33.662   3.240  9.50498E-01  1.01144E+00 -6.09426E-02
    9028.541     34.656   3.280  9.55948E-01  1.00989E+00 -5.39400E-02
    9029.546     35.662   3.320  9.62216E-01  1.00833E+00 -4.61148E-02
    9030.564     36.680   3.360  9.69303E-01  1.00677E+00 -3.74709E-02
    9031.595     37.710   3.400  9.77251E-01  1.00522E+00 -2.79725E-02
    9032.637     38.752   3.440  9.85987E-01  1.00370E+00 -1.77155E-02
    9033.692     39.807   3.480  9.95396E-01  1.00222E+00 -6.82288E-03
    9034.759     40.874   3.520  1.00534E+00  1.00077E+00  4.56203E-03
    9035.838     41.953   3.560  1.01565E+00  9.99371E-01  1.62777E-02
    9036.929     43.044   3.600  1.02617E+00  9.98014E-01  2.81567E-02
    9038.032     44.147   3.640  1.03678E+00  9.96727E-01  4.00542E-02
    9039.148     45.263   3.680  1.04736E+00  9.95512E-01  5.18501E-02
    9040.275     46.391   3.720  1.05769E+00  9.94349E-01  6.33382E-02
    9041.415     47.531   3.760  1.06753E+00  9.93263E-01  7.42721E-02
    9042.567     48.683   3.800  1.07647E+00  9.92255E-01  8.42107E-02
    9043.732     49.847   3.840  1.08381E+00  9.91325E-01  9.24881E-02
    9044.908     51.024   3.880  1.08893E+00  9.90477E-01  9.84504E-02
    9046.097     52.212   3.920  1.09137E+00  9.89710E-01  1.01663E-01
    9047.298     53.413   3.960  1.09097E+00  9.89025E-01  1.01948E-01
    9048.511     54.626   4.000  1.08779E+00  9.88444E-01  9.93469E-02
    9049.736     55.852   4.040  1.08205E+00  9.87926E-01  9.41193E-02
    9050.974     57.089   4.080  1.07402E+00  9.87511E-01  8.65091E-02
    9052.223     58.339   4.120  1.06393E+00  9.87180E-01  7.67472E-02
    9053.485     59.601   4.160  1.05204E+00  9.86930E-01  6.51120E-02
    9054.759     60.875   4.200  1.03876E+00  9.86761E-01  5.19973E-02
    9056.046     62.161   4.240  1.02452E+00  9.86672E-01  3.78435E-02
    9057.344     63.459   4.280  1.00985E+00  9.86663E-01  2.31822E-02
    9058.655     64.770   4.320  9.95276E-01  9.86734E-01  8.54160E-03
    9059.978     66.093   4.360  9.81276E-01  9.86883E-01 -5.60667E-03
    9061.313     67.428   4.400  9.68312E-01  9.87107E-01 -1.87942E-02
    9062.660     68.775   4.440  9.56826E-01  9.87382E-01 -3.05559E-02
    9064.019     70.135   4.480  9.47170E-01  9.87730E-01 -4.05596E-02
    9065.391     71.506   4.520  9.39479E-01  9.88126E-01 -4.86464E-02
    9066.775     72.890   4.560  9.33708E-01  9.88590E-01 -5.48813E-02
    9068.171     74.286   4.600  9.29574E-01  9.89099E-01 -5.95249E-02
    9069.579     75.694   4.640  9.26806E-01  9.89651E-01 -6.28454E-02
    9070.999     77.114   4.680  9.25268E-01  9.90243E-01 -6.49745E-02
    9072.432     78.547   4.720  9.24963E-01  9.90872E-01 -6.59087E-02
    9073.876     79.992   4.760  9.26046E-01  9.91537E-01 -6.54906E-02
    9075.333     81.449   4.800  9.28714E-01  9.92213E-01 -6.34991E-02
    9076.802     82.918   4.840  9.33134E-01  9.92920E-01 -5.97869E-02
    9078.284     84.399   4.880  9.39335E-01  9.93657E-01 -5.43223E-02
    9079.777     85.893   4.920  9.47142E-01  9.94376E-01 -4.72341E-02
    9081.283     87.398   4.960  9.56254E-01  9.95117E-01 -3.88628E-02
    9082.801     88.916   5.000  9.66190E-01  9.95857E-01 -2.96676E-02
    9084.331     90.446   5.040  9.76406E-01  9.96571E-01 -2.01647E-02
    9085.873     91.989   5.080  9.86493E-01  9.97278E-01 -1.07846E-02
    9087.428     93.543   5.120  9.96198E-01  9.97977E-01 -1.77924E-03
    9088.994     95.110   5.160  1.00537E+00  9.98644E-01  6.72246E-03
    9090.573     96.689   5.200  1.01386E+00  9.99299E-01  1.45618E-02
    9092.164     98.280   5.240  1.02134E+00  9.99916E-01  2.14243E-02
    9093.768     99.883   5.280  1.02737E+00  1.00047E+00  2.68962E-02
    9095.383    101.498   5.320  1.03158E+00  1.00101E+00  3.05791E-02
    9097.011    103.126   5.360  1.03368E+00  1.00150E+00  3.21754E-02
    9098.650    104.766   5.400  1.03343E+00  1.00193E+00  3.15048E-02
    9100.302    106.418   5.440  1.03087E+00  1.00233E+00  2.85347E-02
    9101.967    108.082   5.480  1.02616E+00  1.00267E+00  2.34890E-02
    9103.643    109.758   5.520  1.01981E+00  1.00293E+00  1.68729E-02
    9105.332    111.447   5.560  1.01250E+00  1.00315E+00  9.34866E-03
    9107.032    113.148   5.600  1.00491E+00  1.00331E+00  1.59939E-03
    9108.745    114.861   5.640  9.97742E-01  1.00341E+00 -5.66579E-03
    9110.471    116.586   5.680  9.91760E-01  1.00343E+00 -1.16681E-02
    9112.208    118.323   5.720  9.87738E-01  1.00340E+00 -1.56618E-02
    9113.957    120.073   5.760  9.86161E-01  1.00332E+00 -1.71585E-02
    9115.719    121.834   5.800  9.87061E-01  1.00314E+00 -1.60826E-02
    9117.493    123.608   5.840  9.90192E-01  1.00292E+00 -1.27280E-02
    9119.279    125.395   5.880  9.95021E-01  1.00265E+00 -7.62841E-03
    9121.078    127.193   5.920  1.00091E+00  1.00231E+00 -1.40043E-03
    9122.888    129.003   5.960  1.00725E+00  1.00189E+00  5.35710E-03
    9124.711    130.826   6.000  1.01359E+00  1.00142E+00  1.21661E-02
