# # comment:                                                     FEFF 9.9.1  
# # Source:
# # Structure
# # Reduced
# # space
# # abc:
# # angles:
# # sites:
# # POT  SCF 100  7.0000   0, screened core-hole, AFOLP (folp(0)= 1.150)
# # Abs   Z=29 Rmt= 1.243 Rnm= 1.320 K  shell
# # Pot 1 Z=12 Rmt= 1.376 Rnm= 1.451
# # Pot 2 Z=29 Rmt= 1.231 Rnm= 1.316
# # Pot 3 Z= 8 Rmt= 1.015 Rnm= 1.104
# # Gam_ch=1.729E+00 H-L exch Vi= 0.000E+00 Vr= 0.000E+00
# # Mu=-8.712E+00eV kf=2.120E+00 Vint=-1.723E+01eV Rs_int= 1.711
# FMS rfms= 9.0000
# # PATH  Rmax=-1.000,  Keep_limit= 0.00, Heap_limit 0.00  Pwcrit= 2.50%
#  S02=0.950  Temp=   0.00  Debye_temp=   0.00  Global_sig2= 0.00000
#  Energy zero shift, vr, vi    0.00000E+00   0.00000E+00
#  Curved wave amplitude ratio filter   4.000%
#     file         sig2 tot  cw amp ratio   deg  nlegs   reff  inp sig2
#     0/   0 paths used
#  xsedge+ 50, used to normalize mu           2.4576E-04
#  -----------------------------------------------------------------------
#  omega    e    k    mu    mu0     chi     @#
    8984.452    -12.522  -1.000  3.83382E-02  5.50689E-02 -1.67307E-02
    8984.750    -12.223  -0.960  4.02331E-02  5.90895E-02 -1.88564E-02
    8985.037    -11.936  -0.920  4.22474E-02  6.35579E-02 -2.13105E-02
    8985.311    -11.662  -0.880  4.43897E-02  6.85398E-02 -2.41501E-02
    8985.573    -11.400  -0.840  4.66693E-02  7.41120E-02 -2.74426E-02
    8985.823    -11.150  -0.800  4.90961E-02  8.03632E-02 -3.12670E-02
    8986.061    -10.912  -0.760  5.16804E-02  8.73952E-02 -3.57149E-02
    8986.286    -10.687  -0.720  5.44325E-02  9.53233E-02 -4.08908E-02
    8986.500    -10.473  -0.680  5.73627E-02  1.04274E-01 -4.69112E-02
    8986.701    -10.272  -0.640  6.04802E-02  1.14381E-01 -5.39007E-02
    8986.890    -10.083  -0.600  6.37914E-02  1.25775E-01 -6.19840E-02
    8987.067     -9.906  -0.560  6.72977E-02  1.38570E-01 -7.12718E-02
    8987.231     -9.742  -0.520  7.09919E-02  1.52830E-01 -8.18377E-02
    8987.384     -9.589  -0.480  7.48532E-02  1.68541E-01 -9.36877E-02
    8987.524     -9.449  -0.440  7.88420E-02  1.85565E-01 -1.06723E-01
    8987.652     -9.321  -0.400  8.28962E-02  2.03607E-01 -1.20711E-01
    8987.768     -9.205  -0.360  8.69307E-02  2.22201E-01 -1.35270E-01
    8987.871     -9.102  -0.320  9.08437E-02  2.40742E-01 -1.49898E-01
    8987.963     -9.010  -0.280  9.45281E-02  2.58560E-01 -1.64032E-01
    8988.042     -8.931  -0.240  9.78850E-02  2.75008E-01 -1.77123E-01
    8988.109     -8.864  -0.200  1.00833E-01  2.89545E-01 -1.88712E-01
    8988.164     -8.809  -0.160  1.03313E-01  3.01776E-01 -1.98463E-01
    8988.207     -8.766  -0.120  1.05279E-01  3.11445E-01 -2.06166E-01
    8988.237     -8.736  -0.080  1.06702E-01  3.18412E-01 -2.11710E-01
    8988.262     -8.712   0.000  1.07848E-01  3.24011E-01 -2.16163E-01
    8988.316     -8.657   0.120  1.10611E-01  3.36636E-01 -2.26026E-01
    8988.359     -8.614   0.160  1.12709E-01  3.46432E-01 -2.33723E-01
    8988.414     -8.559   0.200  1.15457E-01  3.58972E-01 -2.43515E-01
    8988.481     -8.492   0.240  1.18827E-01  3.74050E-01 -2.55223E-01
    8988.560     -8.413   0.280  1.22843E-01  3.91368E-01 -2.68525E-01
    8988.652     -8.321   0.320  1.27564E-01  4.10491E-01 -2.82927E-01
    8988.755     -8.218   0.360  1.33080E-01  4.30877E-01 -2.97797E-01
    8988.871     -8.102   0.400  1.39546E-01  4.51930E-01 -3.12384E-01
    8988.999     -7.974   0.440  1.47198E-01  4.73101E-01 -3.25902E-01
    8989.139     -7.834   0.480  1.56445E-01  4.94002E-01 -3.37557E-01
    8989.292     -7.681   0.520  1.67752E-01  5.14333E-01 -3.46581E-01
    8989.456     -7.517   0.560  1.81830E-01  5.33993E-01 -3.52163E-01
    8989.633     -7.340   0.600  1.99467E-01  5.52907E-01 -3.53440E-01
    8989.822     -7.151   0.640  2.21783E-01  5.71152E-01 -3.49369E-01
    8990.023     -6.950   0.680  2.50038E-01  5.88800E-01 -3.38763E-01
    8990.237     -6.736   0.720  2.85549E-01  6.05918E-01 -3.20369E-01
    8990.462     -6.511   0.760  3.29098E-01  6.22609E-01 -2.93511E-01
    8990.700     -6.273   0.800  3.79775E-01  6.38948E-01 -2.59174E-01
    8990.950     -6.023   0.840  4.33333E-01  6.54978E-01 -2.21645E-01
    8991.212     -5.761   0.880  4.82353E-01  6.70765E-01 -1.88412E-01
    8991.486     -5.487   0.920  5.21006E-01  6.86343E-01 -1.65337E-01
    8991.773     -5.200   0.960  5.50005E-01  7.01693E-01 -1.51688E-01
    8992.072     -4.902   1.000  5.73252E-01  7.16868E-01 -1.43616E-01
    8992.382     -4.591   1.040  5.91011E-01  7.31827E-01 -1.40817E-01
    8992.705     -4.268   1.080  5.99137E-01  7.46587E-01 -1.47450E-01
    8993.041     -3.932   1.120  5.93620E-01  7.61115E-01 -1.67495E-01
    8993.388     -3.585   1.160  5.78308E-01  7.75395E-01 -1.97087E-01
    8993.748     -3.225   1.200  5.64734E-01  7.89427E-01 -2.24693E-01
    8994.120     -2.853   1.240  5.61769E-01  8.03147E-01 -2.41377E-01
    8994.504     -2.469   1.280  5.69028E-01  8.16550E-01 -2.47522E-01
    8994.900     -2.073   1.320  5.80804E-01  8.29610E-01 -2.48807E-01
    8995.308     -1.665   1.360  5.96815E-01  8.42301E-01 -2.45485E-01
    8995.729     -1.244   1.400  6.23715E-01  8.54593E-01 -2.30878E-01
    8996.162     -0.811   1.440  6.66126E-01  8.66459E-01 -2.00333E-01
    8996.607     -0.366   1.480  7.22602E-01  8.77893E-01 -1.55290E-01
    8997.064      0.091   1.520  7.87191E-01  8.88847E-01 -1.01656E-01
    8997.533      0.560   1.560  8.54818E-01  8.99316E-01 -4.44974E-02
    8998.015      1.042   1.600  9.23357E-01  9.09316E-01  1.40410E-02
    8998.509      1.536   1.640  9.94147E-01  9.18803E-01  7.53443E-02
    8999.015      2.042   1.680  1.07704E+00  9.27775E-01  1.49261E-01
    8999.533      2.560   1.720  1.17917E+00  9.36233E-01  2.42932E-01
    9000.063      3.090   1.760  1.28746E+00  9.44177E-01  3.43287E-01
    9000.606      3.633   1.800  1.37619E+00  9.51608E-01  4.24580E-01
    9001.161      4.188   1.840  1.43809E+00  9.58531E-01  4.79560E-01
    9001.728      4.754   1.880  1.47882E+00  9.64949E-01  5.13867E-01
    9002.307      5.334   1.920  1.48623E+00  9.70869E-01  5.15366E-01
    9002.898      5.925   1.960  1.45805E+00  9.76315E-01  4.81739E-01
    9003.501      6.528   2.000  1.40897E+00  9.81295E-01  4.27671E-01
    9004.117      7.144   2.040  1.34527E+00  9.85797E-01  3.59472E-01
    9004.745      7.772   2.080  1.26732E+00  9.89871E-01  2.77451E-01
    9005.385      8.412   2.120  1.18341E+00  9.93525E-01  1.89889E-01
    9006.037      9.064   2.160  1.10544E+00  9.96791E-01  1.08650E-01
    9006.702      9.729   2.200  1.04188E+00  9.99656E-01  4.22284E-02
    9007.378     10.405   2.240  1.00097E+00  1.00215E+00 -1.18145E-03
    9008.067     11.094   2.280  9.85832E-01  1.00431E+00 -1.84765E-02
    9008.768     11.795   2.320  9.91519E-01  1.00614E+00 -1.46182E-02
    9009.482     12.509   2.360  1.00801E+00  1.00767E+00  3.42024E-04
    9010.207     13.234   2.400  1.02423E+00  1.00892E+00  1.53167E-02
    9010.945     13.972   2.440  1.03557E+00  1.00991E+00  2.56646E-02
    9011.694     14.721   2.480  1.04700E+00  1.01065E+00  3.63527E-02
    9012.456     15.483   2.520  1.06277E+00  1.01118E+00  5.15892E-02
    9013.231     16.258   2.560  1.07490E+00  1.01151E+00  6.33865E-02
    9014.017     17.044   2.600  1.07743E+00  1.01166E+00  6.57710E-02
    9014.816     17.843   2.640  1.07121E+00  1.01162E+00  5.95882E-02
    9015.626     18.653   2.680  1.05687E+00  1.01145E+00  4.54292E-02
    9016.449     19.476   2.720  1.03603E+00  1.01114E+00  2.48941E-02
    9017.284     20.311   2.760  1.01141E+00  1.01072E+00  6.90262E-04
    9018.132     21.159   2.800  9.85289E-01  1.01018E+00 -2.48876E-02
    9018.991     22.018   2.840  9.59594E-01  1.00957E+00 -4.99773E-02
    9019.863     22.890   2.880  9.36016E-01  1.00889E+00 -7.28718E-02
    9020.747     23.774   2.920  9.15377E-01  1.00813E+00 -9.27545E-02
    9021.643     24.670   2.960  8.98203E-01  1.00733E+00 -1.09125E-01
    9022.551     25.578   3.000  8.84829E-01  1.00648E+00 -1.21655E-01
    9023.472     26.499   3.040  8.75206E-01  1.00563E+00 -1.30421E-01
    9024.405     27.431   3.080  8.69043E-01  1.00476E+00 -1.35717E-01
    9025.349     28.376   3.120  8.66228E-01  1.00387E+00 -1.37641E-01
    9026.306     29.333   3.160  8.66209E-01  1.00297E+00 -1.36766E-01
    9027.276     30.303   3.200  8.68674E-01  1.00210E+00 -1.33430E-01
    9028.257     31.284   3.240  8.73191E-01  1.00124E+00 -1.28049E-01
    9029.251     32.278   3.280  8.79287E-01  1.00038E+00 -1.21097E-01
    9030.257     33.284   3.320  8.86479E-01  9.99583E-01 -1.13104E-01
    9031.275     34.302   3.360  8.94364E-01  9.98796E-01 -1.04432E-01
    9032.305     35.332   3.400  9.03025E-01  9.98046E-01 -9.50217E-02
    9033.347     36.374   3.440  9.12506E-01  9.97335E-01 -8.48295E-02
    9034.402     37.429   3.480  9.23201E-01  9.96665E-01 -7.34641E-02
    9035.469     38.496   3.520  9.35544E-01  9.96038E-01 -6.04933E-02
    9036.548     39.575   3.560  9.49627E-01  9.95476E-01 -4.58486E-02
    9037.639     40.666   3.600  9.64774E-01  9.94959E-01 -3.01846E-02
    9038.742     41.769   3.640  9.79786E-01  9.94487E-01 -1.47016E-02
    9039.858     42.885   3.680  9.93194E-01  9.94061E-01 -8.67085E-04
    9040.986     44.013   3.720  1.00373E+00  9.93703E-01  1.00238E-02
    9042.126     45.152   3.760  1.01089E+00  9.93413E-01  1.74796E-02
    9043.278     46.305   3.800  1.01517E+00  9.93151E-01  2.20156E-02
    9044.442     47.469   3.840  1.01783E+00  9.92977E-01  2.48531E-02
    9045.619     48.645   3.880  1.02050E+00  9.92827E-01  2.76748E-02
    9046.807     49.834   3.920  1.02455E+00  9.92745E-01  3.18050E-02
    9048.008     51.035   3.960  1.03033E+00  9.92708E-01  3.76244E-02
    9049.221     52.248   4.000  1.03729E+00  9.92716E-01  4.45707E-02
    9050.447     53.473   4.040  1.04434E+00  9.92790E-01  5.15511E-02
    9051.684     54.711   4.080  1.05044E+00  9.92907E-01  5.75346E-02
    9052.934     55.961   4.120  1.05500E+00  9.93067E-01  6.19322E-02
    9054.196     57.223   4.160  1.05805E+00  9.93267E-01  6.47874E-02
    9055.470     58.497   4.200  1.05998E+00  9.93506E-01  6.64705E-02
    9056.756     59.783   4.240  1.06121E+00  9.93785E-01  6.74289E-02
    9058.054     61.081   4.280  1.06207E+00  9.94102E-01  6.79702E-02
    9059.365     62.392   4.320  1.06259E+00  9.94453E-01  6.81343E-02
    9060.688     63.715   4.360  1.06253E+00  9.94817E-01  6.77123E-02
    9062.023     65.050   4.400  1.06158E+00  9.95215E-01  6.63632E-02
    9063.370     66.397   4.440  1.05953E+00  9.95645E-01  6.38889E-02
    9064.729     67.756   4.480  1.05644E+00  9.96084E-01  6.03553E-02
    9066.101     69.128   4.520  1.05271E+00  9.96553E-01  5.61606E-02
    9067.485     70.512   4.560  1.04882E+00  9.97026E-01  5.17938E-02
    9068.881     71.908   4.600  1.04508E+00  9.97504E-01  4.75764E-02
    9070.289     73.316   4.640  1.04151E+00  9.98005E-01  4.35074E-02
    9071.709     74.736   4.680  1.03789E+00  9.98486E-01  3.93987E-02
    9073.142     76.169   4.720  1.03393E+00  9.98989E-01  3.49438E-02
    9074.587     77.614   4.760  1.02919E+00  9.99468E-01  2.97224E-02
    9076.044     79.070   4.800  1.02323E+00  9.99964E-01  2.32637E-02
    9077.513     80.540   4.840  1.01567E+00  1.00043E+00  1.52354E-02
    9078.994     82.021   4.880  1.00659E+00  1.00090E+00  5.69350E-03
    9080.488     83.514   4.920  9.96411E-01  1.00133E+00 -4.91960E-03
    9081.993     85.020   4.960  9.85678E-01  1.00176E+00 -1.60769E-02
    9083.511     86.538   5.000  9.74822E-01  1.00217E+00 -2.73489E-02
    9085.041     88.068   5.040  9.64134E-01  1.00255E+00 -3.84193E-02
    9086.583     89.610   5.080  9.53884E-01  1.00290E+00 -4.90165E-02
    9088.138     91.165   5.120  9.44408E-01  1.00323E+00 -5.88270E-02
    9089.705     92.732   5.160  9.36074E-01  1.00353E+00 -6.74593E-02
    9091.283     94.310   5.200  9.29443E-01  1.00379E+00 -7.43516E-02
    9092.875     95.901   5.240  9.25100E-01  1.00404E+00 -7.89417E-02
    9094.478     97.505   5.280  9.23374E-01  1.00423E+00 -8.08545E-02
    9096.093     99.120   5.320  9.24458E-01  1.00440E+00 -7.99398E-02
    9097.721    100.748   5.360  9.28443E-01  1.00453E+00 -7.60855E-02
    9099.361    102.388   5.400  9.35510E-01  1.00462E+00 -6.91116E-02
    9101.013    104.040   5.440  9.45683E-01  1.00468E+00 -5.89928E-02
    9102.677    105.704   5.480  9.58450E-01  1.00471E+00 -4.62619E-02
    9104.353    107.380   5.520  9.72560E-01  1.00469E+00 -3.21256E-02
    9106.042    109.069   5.560  9.86573E-01  1.00462E+00 -1.80431E-02
    9107.743    110.770   5.600  9.99419E-01  1.00451E+00 -5.09001E-03
    9109.456    112.483   5.640  1.01056E+00  1.00438E+00  6.17830E-03
    9111.181    114.208   5.680  1.01954E+00  1.00420E+00  1.53406E-02
    9112.918    115.945   5.720  1.02580E+00  1.00400E+00  2.18063E-02
    9114.668    117.695   5.760  1.02880E+00  1.00373E+00  2.50660E-02
    9116.429    119.456   5.800  1.02866E+00  1.00345E+00  2.52013E-02
    9118.203    121.230   5.840  1.02641E+00  1.00314E+00  2.32667E-02
    9119.989    123.016   5.880  1.02379E+00  1.00280E+00  2.09932E-02
    9121.788    124.815   5.920  1.02222E+00  1.00244E+00  1.97751E-02
    9123.598    126.625   5.960  1.02188E+00  1.00203E+00  1.98537E-02
    9125.421    128.448   6.000  1.02217E+00  1.00159E+00  2.05804E-02
