# # comment:                                                     FEFF 9.9.1  
# # Source:
# # Structure
# # Reduced
# # space
# # abc:
# # angles:
# # sites:
# # POT  SCF 100  7.0000   0, screened core-hole, AFOLP (folp(0)= 1.150)
# # Abs   Z=29 Rmt= 1.266 Rnm= 1.360 K  shell
# # Pot 1 Z=29 Rmt= 1.250 Rnm= 1.345
# # Pot 2 Z=15 Rmt= 0.912 Rnm= 1.156
# # Pot 3 Z= 8 Rmt= 1.017 Rnm= 1.111
# # Gam_ch=1.729E+00 H-L exch Vi= 0.000E+00 Vr= 0.000E+00
# # Mu=-7.172E+00eV kf=2.279E+00 Vint=-1.575E+01eV Rs_int= 1.591
# FMS rfms= 9.0000
# # PATH  Rmax=-1.000,  Keep_limit= 0.00, Heap_limit 0.00  Pwcrit= 2.50%
#  S02=0.950  Temp=   0.00  Debye_temp=   0.00  Global_sig2= 0.00000
#  Energy zero shift, vr, vi    0.00000E+00   0.00000E+00
#  Curved wave amplitude ratio filter   4.000%
#     file         sig2 tot  cw amp ratio   deg  nlegs   reff  inp sig2
#     0/   0 paths used
#  xsedge+ 50, used to normalize mu           2.4676E-04
#  -----------------------------------------------------------------------
#  omega    e    k    mu    mu0     chi     @#
    8983.423    -10.982  -1.000  3.98187E-02  5.24047E-02 -1.25859E-02
    8983.722    -10.683  -0.960  4.20952E-02  5.61692E-02 -1.40740E-02
    8984.008    -10.397  -0.920  4.45700E-02  6.03488E-02 -1.57788E-02
    8984.282    -10.123  -0.880  4.72668E-02  6.50042E-02 -1.77374E-02
    8984.545     -9.860  -0.840  5.02126E-02  7.02063E-02 -1.99938E-02
    8984.795     -9.610  -0.800  5.34373E-02  7.60369E-02 -2.25996E-02
    8985.032     -9.373  -0.760  5.69743E-02  8.25901E-02 -2.56158E-02
    8985.258     -9.147  -0.720  6.08599E-02  8.99719E-02 -2.91121E-02
    8985.471     -8.934  -0.680  6.51320E-02  9.82992E-02 -3.31672E-02
    8985.672     -8.733  -0.640  6.98290E-02  1.07695E-01 -3.78662E-02
    8985.861     -8.544  -0.600  7.49859E-02  1.18281E-01 -4.32948E-02
    8986.038     -8.367  -0.560  8.06294E-02  1.30159E-01 -4.95297E-02
    8986.203     -8.202  -0.520  8.67696E-02  1.43391E-01 -5.66214E-02
    8986.355     -8.050  -0.480  9.33903E-02  1.57963E-01 -6.45722E-02
    8986.495     -7.910  -0.440  1.00437E-01  1.73746E-01 -7.33091E-02
    8986.623     -7.782  -0.400  1.07806E-01  1.90467E-01 -8.26611E-02
    8986.739     -7.666  -0.360  1.15344E-01  2.07696E-01 -9.23523E-02
    8986.843     -7.562  -0.320  1.22852E-01  2.24874E-01 -1.02022E-01
    8986.934     -7.471  -0.280  1.30107E-01  2.41380E-01 -1.11273E-01
    8987.013     -7.392  -0.240  1.36884E-01  2.56618E-01 -1.19734E-01
    8987.081     -7.324  -0.200  1.42976E-01  2.70086E-01 -1.27111E-01
    8987.135     -7.270  -0.160  1.48205E-01  2.81418E-01 -1.33213E-01
    8987.178     -7.227  -0.120  1.52427E-01  2.90377E-01 -1.37951E-01
    8987.209     -7.196  -0.080  1.55531E-01  2.96833E-01 -1.41302E-01
    8987.233     -7.172   0.000  1.58093E-01  3.02021E-01 -1.43928E-01
    8987.288     -7.117   0.120  1.64049E-01  3.13728E-01 -1.49679E-01
    8987.330     -7.075   0.160  1.68724E-01  3.22814E-01 -1.54090E-01
    8987.385     -7.020   0.200  1.74910E-01  3.34447E-01 -1.59537E-01
    8987.452     -6.953   0.240  1.82669E-01  3.48413E-01 -1.65744E-01
    8987.532     -6.873   0.280  1.92217E-01  3.64500E-01 -1.72283E-01
    8987.623     -6.782   0.320  2.03678E-01  3.82249E-01 -1.78571E-01
    8987.727     -6.678   0.360  2.17308E-01  4.01201E-01 -1.83893E-01
    8987.843     -6.562   0.400  2.33256E-01  4.20785E-01 -1.87528E-01
    8987.971     -6.434   0.440  2.51607E-01  4.40536E-01 -1.88929E-01
    8988.111     -6.294   0.480  2.72188E-01  4.60041E-01 -1.87853E-01
    8988.263     -6.142   0.520  2.94613E-01  4.79081E-01 -1.84468E-01
    8988.428     -5.977   0.560  3.18180E-01  4.97503E-01 -1.79323E-01
    8988.605     -5.800   0.600  3.42084E-01  5.15320E-01 -1.73236E-01
    8988.793     -5.612   0.640  3.65166E-01  5.32566E-01 -1.67400E-01
    8988.995     -5.410   0.680  3.85445E-01  5.49284E-01 -1.63839E-01
    8989.208     -5.197   0.720  3.99692E-01  5.65596E-01 -1.65904E-01
    8989.434     -4.971   0.760  4.03938E-01  5.81562E-01 -1.77625E-01
    8989.671     -4.734   0.800  3.96314E-01  5.97269E-01 -2.00955E-01
    8989.921     -4.484   0.840  3.79897E-01  6.12776E-01 -2.32879E-01
    8990.183     -4.222   0.880  3.61589E-01  6.28104E-01 -2.66515E-01
    8990.458     -3.947   0.920  3.47908E-01  6.43306E-01 -2.95398E-01
    8990.744     -3.661   0.960  3.41991E-01  6.58402E-01 -3.16411E-01
    8991.043     -3.362   1.000  3.43857E-01  6.73401E-01 -3.29544E-01
    8991.354     -3.051   1.040  3.51953E-01  6.88284E-01 -3.36331E-01
    8991.677     -2.728   1.080  3.64892E-01  7.03065E-01 -3.38173E-01
    8992.012     -2.393   1.120  3.82914E-01  7.17714E-01 -3.34800E-01
    8992.360     -2.045   1.160  4.07785E-01  7.32211E-01 -3.24426E-01
    8992.719     -1.686   1.200  4.40666E-01  7.46557E-01 -3.05891E-01
    8993.091     -1.314   1.240  4.82212E-01  7.60687E-01 -2.78475E-01
    8993.475     -0.930   1.280  5.34802E-01  7.74615E-01 -2.39813E-01
    8993.871     -0.534   1.320  5.99978E-01  7.88297E-01 -1.88319E-01
    8994.280     -0.125   1.360  6.71917E-01  8.01699E-01 -1.29782E-01
    8994.700      0.295   1.400  7.35081E-01  8.14794E-01 -7.97122E-02
    8995.133      0.728   1.440  7.75096E-01  8.27552E-01 -5.24553E-02
    8995.578      1.173   1.480  7.94854E-01  8.39942E-01 -4.50880E-02
    8996.036      1.630   1.520  8.09938E-01  8.51956E-01 -4.20181E-02
    8996.505      2.100   1.560  8.30937E-01  8.63586E-01 -3.26495E-02
    8996.986      2.581   1.600  8.64767E-01  8.74763E-01 -9.99678E-03
    8997.480      3.075   1.640  9.21994E-01  8.85521E-01  3.64733E-02
    8997.986      3.581   1.680  1.00085E+00  8.95791E-01  1.05056E-01
    8998.504      4.099   1.720  1.07837E+00  9.05612E-01  1.72762E-01
    8999.035      4.630   1.760  1.13354E+00  9.14960E-01  2.18582E-01
    8999.577      5.172   1.800  1.16805E+00  9.23812E-01  2.44240E-01
    9000.132      5.727   1.840  1.20212E+00  9.32165E-01  2.69955E-01
    9000.699      6.294   1.880  1.24968E+00  9.40042E-01  3.09642E-01
    9001.278      6.873   1.920  1.29627E+00  9.47423E-01  3.48849E-01
    9001.869      7.464   1.960  1.30317E+00  9.54309E-01  3.48861E-01
    9002.473      8.068   2.000  1.25862E+00  9.60708E-01  2.97916E-01
    9003.089      8.684   2.040  1.20338E+00  9.66662E-01  2.36722E-01
    9003.716      9.311   2.080  1.17492E+00  9.72135E-01  2.02785E-01
    9004.357      9.951   2.120  1.17456E+00  9.77156E-01  1.97405E-01
    9005.009     10.604   2.160  1.18515E+00  9.81751E-01  2.03397E-01
    9005.673     11.268   2.200  1.18857E+00  9.85907E-01  2.02660E-01
    9006.350     11.945   2.240  1.17915E+00  9.89674E-01  1.89477E-01
    9007.039     12.634   2.280  1.16820E+00  9.93039E-01  1.75158E-01
    9007.740     13.335   2.320  1.16390E+00  9.96031E-01  1.67873E-01
    9008.453     14.048   2.360  1.16649E+00  9.98659E-01  1.67828E-01
    9009.178     14.773   2.400  1.16942E+00  1.00095E+00  1.68462E-01
    9009.916     15.511   2.440  1.16191E+00  1.00295E+00  1.58967E-01
    9010.666     16.261   2.480  1.14023E+00  1.00462E+00  1.35604E-01
    9011.428     17.023   2.520  1.10629E+00  1.00601E+00  1.00282E-01
    9012.202     17.797   2.560  1.06499E+00  1.00715E+00  5.78431E-02
    9012.988     18.583   2.600  1.02293E+00  1.00804E+00  1.48854E-02
    9013.787     19.382   2.640  9.84454E-01  1.00872E+00 -2.42630E-02
    9014.598     20.193   2.680  9.51916E-01  1.00919E+00 -5.72693E-02
    9015.421     21.016   2.720  9.27246E-01  1.00945E+00 -8.22086E-02
    9016.256     21.851   2.760  9.08777E-01  1.00953E+00 -1.00758E-01
    9017.103     22.698   2.800  8.94854E-01  1.00947E+00 -1.14618E-01
    9017.963     23.558   2.840  8.85233E-01  1.00928E+00 -1.24045E-01
    9018.834     24.429   2.880  8.79985E-01  1.00894E+00 -1.28952E-01
    9019.718     25.313   2.920  8.79029E-01  1.00850E+00 -1.29471E-01
    9020.614     26.209   2.960  8.81456E-01  1.00797E+00 -1.26516E-01
    9021.523     27.118   3.000  8.85481E-01  1.00734E+00 -1.21858E-01
    9022.443     28.038   3.040  8.89593E-01  1.00665E+00 -1.17056E-01
    9023.376     28.971   3.080  8.92895E-01  1.00589E+00 -1.12992E-01
    9024.321     29.916   3.120  8.95093E-01  1.00510E+00 -1.10007E-01
    9025.278     30.873   3.160  8.96409E-01  1.00425E+00 -1.07844E-01
    9026.247     31.842   3.200  8.97579E-01  1.00339E+00 -1.05811E-01
    9027.229     32.824   3.240  8.99232E-01  1.00249E+00 -1.03262E-01
    9028.222     33.817   3.280  9.01878E-01  1.00159E+00 -9.97143E-02
    9029.228     34.823   3.320  9.05875E-01  1.00069E+00 -9.48126E-02
    9030.246     35.841   3.360  9.11268E-01  9.99785E-01 -8.85164E-02
    9031.276     36.871   3.400  9.17753E-01  9.98908E-01 -8.11551E-02
    9032.319     37.914   3.440  9.24831E-01  9.98039E-01 -7.32075E-02
    9033.373     38.968   3.480  9.32243E-01  9.97178E-01 -6.49358E-02
    9034.440     40.035   3.520  9.40025E-01  9.96372E-01 -5.63475E-02
    9035.519     41.114   3.560  9.48481E-01  9.95581E-01 -4.71000E-02
    9036.610     42.205   3.600  9.58197E-01  9.94826E-01 -3.66292E-02
    9037.714     43.309   3.640  9.69626E-01  9.94111E-01 -2.44843E-02
    9038.829     44.424   3.680  9.82925E-01  9.93437E-01 -1.05118E-02
    9039.957     45.552   3.720  9.97893E-01  9.92805E-01  5.08816E-03
    9041.097     46.692   3.760  1.01400E+00  9.92237E-01  2.17667E-02
    9042.249     47.844   3.800  1.03020E+00  9.91714E-01  3.84894E-02
    9043.413     49.008   3.840  1.04509E+00  9.91236E-01  5.38567E-02
    9044.590     50.185   3.880  1.05725E+00  9.90801E-01  6.64440E-02
    9045.779     51.374   3.920  1.06553E+00  9.90434E-01  7.50948E-02
    9046.980     52.575   3.960  1.06930E+00  9.90113E-01  7.91820E-02
    9048.193     53.788   4.000  1.06874E+00  9.89859E-01  7.88821E-02
    9049.418     55.013   4.040  1.06464E+00  9.89628E-01  7.50099E-02
    9050.655     56.250   4.080  1.05824E+00  9.89464E-01  6.87778E-02
    9051.905     57.500   4.120  1.05087E+00  9.89366E-01  6.15081E-02
    9053.167     58.762   4.160  1.04365E+00  9.89292E-01  5.43538E-02
    9054.441     60.036   4.200  1.03745E+00  9.89281E-01  4.81687E-02
    9055.727     61.322   4.240  1.03281E+00  9.89313E-01  4.35000E-02
    9057.026     62.621   4.280  1.02992E+00  9.89387E-01  4.05314E-02
    9058.336     63.931   4.320  1.02853E+00  9.89501E-01  3.90296E-02
    9059.659     65.254   4.360  1.02803E+00  9.89657E-01  3.83773E-02
    9060.994     66.589   4.400  1.02763E+00  9.89852E-01  3.77804E-02
    9062.341     67.936   4.440  1.02656E+00  9.90108E-01  3.64472E-02
    9063.701     69.296   4.480  1.02408E+00  9.90378E-01  3.37058E-02
    9065.072     70.667   4.520  1.01992E+00  9.90660E-01  2.92578E-02
    9066.456     72.051   4.560  1.01440E+00  9.90998E-01  2.34042E-02
    9067.852     73.447   4.600  1.00831E+00  9.91346E-01  1.69602E-02
    9069.260     74.855   4.640  1.00262E+00  9.91704E-01  1.09187E-02
    9070.681     76.276   4.680  9.98117E-01  9.92093E-01  6.02358E-03
    9072.113     77.708   4.720  9.94993E-01  9.92511E-01  2.48149E-03
    9073.558     79.153   4.760  9.92983E-01  9.92935E-01  4.83210E-05
    9075.015     80.610   4.800  9.91596E-01  9.93361E-01 -1.76507E-03
    9076.484     82.079   4.840  9.90343E-01  9.93789E-01 -3.44521E-03
    9077.965     83.560   4.880  9.89012E-01  9.94218E-01 -5.20633E-03
    9079.459     85.054   4.920  9.87698E-01  9.94670E-01 -6.97230E-03
    9080.965     86.560   4.960  9.86644E-01  9.95098E-01 -8.45421E-03
    9082.483     88.078   5.000  9.86130E-01  9.95521E-01 -9.39158E-03
    9084.013     89.608   5.040  9.86171E-01  9.95941E-01 -9.77060E-03
    9085.555     91.150   5.080  9.86596E-01  9.96356E-01 -9.76038E-03
    9087.109     92.704   5.120  9.87158E-01  9.96742E-01 -9.58422E-03
    9088.676     94.271   5.160  9.87637E-01  9.97120E-01 -9.48254E-03
    9090.255     95.850   5.200  9.87642E-01  9.97488E-01 -9.84664E-03
    9091.846     97.441   5.240  9.86517E-01  9.97824E-01 -1.13069E-02
    9093.449     99.044   5.280  9.83619E-01  9.98126E-01 -1.45076E-02
    9095.065    100.660   5.320  9.78622E-01  9.98416E-01 -1.97940E-02
    9096.692    102.287   5.360  9.71710E-01  9.98669E-01 -2.69599E-02
    9098.332    103.927   5.400  9.63507E-01  9.98885E-01 -3.53781E-02
    9099.984    105.579   5.440  9.54847E-01  9.99064E-01 -4.42170E-02
    9101.648    107.243   5.480  9.46622E-01  9.99230E-01 -5.26079E-02
    9103.325    108.920   5.520  9.39672E-01  9.99358E-01 -5.96860E-02
    9105.013    110.608   5.560  9.34716E-01  9.99448E-01 -6.47322E-02
    9106.714    112.309   5.600  9.32251E-01  9.99498E-01 -6.72474E-02
    9108.427    114.022   5.640  9.32601E-01  9.99509E-01 -6.69081E-02
    9110.152    115.747   5.680  9.36068E-01  9.99482E-01 -6.34140E-02
    9111.890    117.484   5.720  9.42998E-01  9.99440E-01 -5.64416E-02
    9113.639    119.234   5.760  9.53500E-01  9.99336E-01 -4.58363E-02
    9115.401    120.996   5.800  9.67246E-01  9.99215E-01 -3.19684E-02
    9117.175    122.770   5.840  9.83065E-01  9.99035E-01 -1.59699E-02
    9118.961    124.556   5.880  9.99206E-01  9.98841E-01  3.65431E-04
    9120.759    126.354   5.920  1.01368E+00  9.98610E-01  1.50675E-02
    9122.570    128.165   5.960  1.02486E+00  9.98315E-01  2.65482E-02
    9124.392    129.987   6.000  1.03211E+00  9.97985E-01  3.41276E-02
