# # comment:                                                     FEFF 9.9.1  
# # Source:
# # Structure
# # Reduced
# # space
# # abc:
# # angles:
# # sites:
# # POT  SCF 100  7.0000   0, screened core-hole, AFOLP (folp(0)= 1.150)
# # Abs   Z=29 Rmt= 1.261 Rnm= 1.331 K  shell
# # Pot 1 Z= 3 Rmt= 1.235 Rnm= 1.300
# # Pot 2 Z=29 Rmt= 1.261 Rnm= 1.331
# # Pot 3 Z=14 Rmt= 1.011 Rnm= 1.220
# # Pot 4 Z= 8 Rmt= 0.965 Rnm= 1.074
# # Gam_ch=1.729E+00 H-L exch Vi= 0.000E+00 Vr= 0.000E+00
# # Mu=-7.992E+00eV kf=2.249E+00 Vint=-1.719E+01eV Rs_int= 1.612
# FMS rfms= 9.0000
# # PATH  Rmax=-1.000,  Keep_limit= 0.00, Heap_limit 0.00  Pwcrit= 2.50%
#  S02=0.950  Temp=   0.00  Debye_temp=   0.00  Global_sig2= 0.00000
#  Energy zero shift, vr, vi    0.00000E+00   0.00000E+00
#  Curved wave amplitude ratio filter   4.000%
#     file         sig2 tot  cw amp ratio   deg  nlegs   reff  inp sig2
#     0/   0 paths used
#  xsedge+ 50, used to normalize mu           2.4667E-04
#  -----------------------------------------------------------------------
#  omega    e    k    mu    mu0     chi     @#
    8983.959    -11.802  -1.000  3.94808E-02  5.40979E-02 -1.46171E-02
    8984.258    -11.503  -0.960  4.16255E-02  5.80384E-02 -1.64129E-02
    8984.544    -11.216  -0.920  4.39407E-02  6.24183E-02 -1.84777E-02
    8984.819    -10.942  -0.880  4.64452E-02  6.73025E-02 -2.08573E-02
    8985.081    -10.680  -0.840  4.91604E-02  7.27664E-02 -2.36060E-02
    8985.331    -10.430  -0.800  5.21098E-02  7.88974E-02 -2.67875E-02
    8985.568    -10.192  -0.760  5.53198E-02  8.57959E-02 -3.04761E-02
    8985.794     -9.967  -0.720  5.88187E-02  9.35754E-02 -3.47567E-02
    8986.007     -9.753  -0.680  6.26366E-02  1.02361E-01 -3.97243E-02
    8986.208     -9.552  -0.640  6.68033E-02  1.12284E-01 -4.54810E-02
    8986.397     -9.363  -0.600  7.13463E-02  1.23475E-01 -5.21288E-02
    8986.574     -9.186  -0.560  7.62861E-02  1.36044E-01 -5.97579E-02
    8986.739     -9.022  -0.520  8.16301E-02  1.50057E-01 -6.84269E-02
    8986.891     -8.869  -0.480  8.73643E-02  1.65500E-01 -7.81352E-02
    8987.031     -8.729  -0.440  9.34436E-02  1.82236E-01 -8.87924E-02
    8987.159     -8.601  -0.400  9.97834E-02  1.99975E-01 -1.00191E-01
    8987.275     -8.485  -0.360  1.06257E-01  2.18257E-01 -1.12000E-01
    8987.379     -8.382  -0.320  1.12698E-01  2.36487E-01 -1.23789E-01
    8987.470     -8.290  -0.280  1.18919E-01  2.54003E-01 -1.35085E-01
    8987.550     -8.211  -0.240  1.24726E-01  2.70171E-01 -1.45445E-01
    8987.617     -8.144  -0.200  1.29941E-01  2.84457E-01 -1.54516E-01
    8987.671     -8.089  -0.160  1.34412E-01  2.96473E-01 -1.62061E-01
    8987.714     -8.046  -0.120  1.38020E-01  3.05970E-01 -1.67950E-01
    8987.745     -8.016  -0.080  1.40676E-01  3.12811E-01 -1.72135E-01
    8987.769     -7.992   0.000  1.42881E-01  3.18307E-01 -1.75426E-01
    8987.824     -7.937   0.120  1.47801E-01  3.30717E-01 -1.82916E-01
    8987.867     -7.894   0.160  1.51631E-01  3.40333E-01 -1.88703E-01
    8987.921     -7.839   0.200  1.56664E-01  3.52628E-01 -1.95964E-01
    8987.988     -7.772   0.240  1.62947E-01  3.67411E-01 -2.04464E-01
    8988.068     -7.693   0.280  1.70526E-01  3.84365E-01 -2.13839E-01
    8988.159     -7.601   0.320  1.79489E-01  4.03074E-01 -2.23585E-01
    8988.263     -7.498   0.360  1.89904E-01  4.22998E-01 -2.33093E-01
    8988.379     -7.382   0.400  2.01838E-01  4.43541E-01 -2.41703E-01
    8988.507     -7.254   0.440  2.15296E-01  4.64158E-01 -2.48862E-01
    8988.647     -7.114   0.480  2.30285E-01  4.84443E-01 -2.54158E-01
    8988.799     -6.961   0.520  2.46724E-01  5.04141E-01 -2.57417E-01
    8988.964     -6.797   0.560  2.64434E-01  5.23109E-01 -2.58675E-01
    8989.141     -6.620   0.600  2.83110E-01  5.41316E-01 -2.58206E-01
    8989.330     -6.431   0.640  3.02379E-01  5.58841E-01 -2.56462E-01
    8989.531     -6.230   0.680  3.21720E-01  5.75720E-01 -2.54000E-01
    8989.744     -6.016   0.720  3.40608E-01  5.92081E-01 -2.51473E-01
    8989.970     -5.791   0.760  3.58322E-01  6.08010E-01 -2.49688E-01
    8990.207     -5.553   0.800  3.73903E-01  6.23586E-01 -2.49683E-01
    8990.457     -5.303   0.840  3.86105E-01  6.38856E-01 -2.52751E-01
    8990.719     -5.041   0.880  3.93874E-01  6.53909E-01 -2.60035E-01
    8990.994     -4.767   0.920  3.97105E-01  6.68763E-01 -2.71658E-01
    8991.280     -4.480   0.960  3.97629E-01  6.83424E-01 -2.85794E-01
    8991.579     -4.182   1.000  3.98271E-01  6.97947E-01 -2.99676E-01
    8991.890     -3.871   1.040  4.01133E-01  7.12319E-01 -3.11186E-01
    8992.213     -3.548   1.080  4.08084E-01  7.26536E-01 -3.18452E-01
    8992.548     -3.212   1.120  4.21084E-01  7.40571E-01 -3.19487E-01
    8992.896     -2.865   1.160  4.42183E-01  7.54451E-01 -3.12268E-01
    8993.255     -2.505   1.200  4.72693E-01  7.68118E-01 -2.95425E-01
    8993.627     -2.133   1.240  5.12254E-01  7.81572E-01 -2.69318E-01
    8994.011     -1.749   1.280  5.59599E-01  7.94790E-01 -2.35191E-01
    8994.408     -1.353   1.320  6.14610E-01  8.07746E-01 -1.93136E-01
    8994.816     -0.945   1.360  6.77585E-01  8.20416E-01 -1.42831E-01
    8995.237     -0.524   1.400  7.46771E-01  8.32770E-01 -8.59994E-02
    8995.669     -0.091   1.440  8.16028E-01  8.44803E-01 -2.87751E-02
    8996.114      0.354   1.480  8.79551E-01  8.56466E-01  2.30848E-02
    8996.572      0.811   1.520  9.41344E-01  8.67731E-01  7.36135E-02
    8997.041      1.280   1.560  1.01645E+00  8.78612E-01  1.37840E-01
    8997.523      1.762   1.600  1.11798E+00  8.89084E-01  2.28893E-01
    8998.016      2.256   1.640  1.22896E+00  8.99119E-01  3.29840E-01
    8998.522      2.762   1.680  1.29762E+00  9.08715E-01  3.88902E-01
    8999.040      3.280   1.720  1.29066E+00  9.17846E-01  3.72810E-01
    8999.571      3.810   1.760  1.23929E+00  9.26532E-01  3.12760E-01
    9000.113      4.353   1.800  1.18292E+00  9.34730E-01  2.48190E-01
    9000.668      4.908   1.840  1.13720E+00  9.42480E-01  1.94719E-01
    9001.235      5.474   1.880  1.10759E+00  9.49741E-01  1.57851E-01
    9001.814      6.054   1.920  1.09655E+00  9.56539E-01  1.40012E-01
    9002.405      6.645   1.960  1.10350E+00  9.62874E-01  1.40622E-01
    9003.009      7.248   2.000  1.12042E+00  9.68751E-01  1.51667E-01
    9003.625      7.864   2.040  1.13720E+00  9.74196E-01  1.63005E-01
    9004.253      8.492   2.080  1.15068E+00  9.79192E-01  1.71485E-01
    9004.893      9.132   2.120  1.16215E+00  9.83745E-01  1.78406E-01
    9005.545      9.784   2.160  1.17080E+00  9.87904E-01  1.82900E-01
    9006.209     10.449   2.200  1.17557E+00  9.91656E-01  1.83910E-01
    9006.886     11.125   2.240  1.17876E+00  9.95029E-01  1.83732E-01
    9007.575     11.814   2.280  1.18401E+00  9.98010E-01  1.86004E-01
    9008.276     12.515   2.320  1.19321E+00  1.00067E+00  1.92539E-01
    9008.989     13.229   2.360  1.20310E+00  1.00298E+00  2.00124E-01
    9009.715     13.954   2.400  1.20562E+00  1.00496E+00  2.00665E-01
    9010.452     14.692   2.440  1.19512E+00  1.00664E+00  1.88481E-01
    9011.202     15.441   2.480  1.17277E+00  1.00806E+00  1.64704E-01
    9011.964     16.203   2.520  1.14161E+00  1.00921E+00  1.32402E-01
    9012.738     16.978   2.560  1.10293E+00  1.01011E+00  9.28200E-02
    9013.524     17.764   2.600  1.05586E+00  1.01076E+00  4.51021E-02
    9014.323     18.563   2.640  1.00141E+00  1.01121E+00 -9.80009E-03
    9015.134     19.373   2.680  9.56819E-01  1.01148E+00 -5.46612E-02
    9015.957     20.196   2.720  9.29880E-01  1.01156E+00 -8.16765E-02
    9016.792     21.031   2.760  9.14079E-01  1.01149E+00 -9.74124E-02
    9017.639     21.879   2.800  9.05058E-01  1.01127E+00 -1.06212E-01
    9018.499     22.738   2.840  9.00768E-01  1.01092E+00 -1.10152E-01
    9019.371     23.610   2.880  8.99690E-01  1.01045E+00 -1.10758E-01
    9020.254     24.494   2.920  8.99909E-01  1.00986E+00 -1.09954E-01
    9021.151     25.390   2.960  9.00058E-01  1.00921E+00 -1.09154E-01
    9022.059     26.298   3.000  8.99582E-01  1.00846E+00 -1.08878E-01
    9022.979     27.219   3.040  8.98109E-01  1.00765E+00 -1.09545E-01
    9023.912     28.151   3.080  8.95815E-01  1.00680E+00 -1.10985E-01
    9024.857     29.096   3.120  8.93345E-01  1.00590E+00 -1.12560E-01
    9025.814     30.053   3.160  8.91325E-01  1.00497E+00 -1.13647E-01
    9026.783     31.023   3.200  8.90247E-01  1.00403E+00 -1.13780E-01
    9027.765     32.004   3.240  8.90372E-01  1.00305E+00 -1.12682E-01
    9028.758     32.998   3.280  8.91851E-01  1.00210E+00 -1.10247E-01
    9029.764     34.004   3.320  8.94443E-01  1.00112E+00 -1.06677E-01
    9030.782     35.022   3.360  8.98162E-01  1.00017E+00 -1.02005E-01
    9031.812     36.052   3.400  9.02884E-01  9.99220E-01 -9.63368E-02
    9032.855     37.094   3.440  9.08405E-01  9.98303E-01 -8.98979E-02
    9033.909     38.149   3.480  9.14579E-01  9.97398E-01 -8.28188E-02
    9034.976     39.216   3.520  9.21491E-01  9.96526E-01 -7.50353E-02
    9036.055     40.295   3.560  9.29335E-01  9.95692E-01 -6.63567E-02
    9037.146     41.386   3.600  9.38129E-01  9.94899E-01 -5.67696E-02
    9038.250     42.489   3.640  9.47995E-01  9.94169E-01 -4.61743E-02
    9039.365     43.605   3.680  9.58824E-01  9.93459E-01 -3.46351E-02
    9040.493     44.733   3.720  9.70358E-01  9.92813E-01 -2.24551E-02
    9041.633     45.872   3.760  9.82162E-01  9.92212E-01 -1.00495E-02
    9042.785     47.025   3.800  9.93850E-01  9.91655E-01  2.19497E-03
    9043.949     48.189   3.840  1.00515E+00  9.91143E-01  1.40070E-02
    9045.126     49.365   3.880  1.01606E+00  9.90700E-01  2.53588E-02
    9046.315     50.554   3.920  1.02671E+00  9.90327E-01  3.63788E-02
    9047.516     51.755   3.960  1.03709E+00  9.90000E-01  4.70921E-02
    9048.729     52.968   4.000  1.04703E+00  9.89718E-01  5.73094E-02
    9049.954     54.193   4.040  1.05631E+00  9.89481E-01  6.68277E-02
    9051.192     55.431   4.080  1.06477E+00  9.89314E-01  7.54596E-02
    9052.441     56.681   4.120  1.07222E+00  9.89193E-01  8.30245E-02
    9053.703     57.943   4.160  1.07851E+00  9.89139E-01  8.93738E-02
    9054.977     59.217   4.200  1.08349E+00  9.89130E-01  9.43601E-02
    9056.263     60.503   4.240  1.08695E+00  9.89164E-01  9.77823E-02
    9057.562     61.801   4.280  1.08856E+00  9.89240E-01  9.93183E-02
    9058.872     63.112   4.320  1.08796E+00  9.89358E-01  9.86014E-02
    9060.195     64.435   4.360  1.08473E+00  9.89540E-01  9.51884E-02
    9061.530     65.770   4.400  1.07861E+00  9.89741E-01  8.88656E-02
    9062.877     67.117   4.440  1.06989E+00  9.90000E-01  7.98914E-02
    9064.237     68.476   4.480  1.05922E+00  9.90276E-01  6.89435E-02
    9065.608     69.848   4.520  1.04748E+00  9.90588E-01  5.68960E-02
    9066.992     71.232   4.560  1.03551E+00  9.90936E-01  4.45787E-02
    9068.388     72.628   4.600  1.02386E+00  9.91317E-01  3.25391E-02
    9069.796     74.036   4.640  1.01266E+00  9.91706E-01  2.09575E-02
    9071.217     75.456   4.680  1.00191E+00  9.92105E-01  9.80440E-03
    9072.649     76.889   4.720  9.91593E-01  9.92533E-01 -9.39590E-04
    9074.094     78.334   4.760  9.81890E-01  9.92990E-01 -1.11004E-02
    9075.551     79.790   4.800  9.73190E-01  9.93454E-01 -2.02639E-02
    9077.020     81.260   4.840  9.65928E-01  9.93918E-01 -2.79903E-02
    9078.501     82.741   4.880  9.60405E-01  9.94383E-01 -3.39783E-02
    9079.995     84.234   4.920  9.56765E-01  9.94849E-01 -3.80839E-02
    9081.501     85.740   4.960  9.55082E-01  9.95312E-01 -4.02298E-02
    9083.019     87.258   5.000  9.55457E-01  9.95772E-01 -4.03150E-02
    9084.549     88.788   5.040  9.57857E-01  9.96228E-01 -3.83712E-02
    9086.091     90.330   5.080  9.61918E-01  9.96656E-01 -3.47375E-02
    9087.645     91.885   5.120  9.66970E-01  9.97076E-01 -3.01067E-02
    9089.212     93.452   5.160  9.72042E-01  9.97490E-01 -2.54481E-02
    9090.791     95.030   5.200  9.76151E-01  9.97872E-01 -2.17208E-02
    9092.382     96.621   5.240  9.78577E-01  9.98243E-01 -1.96660E-02
    9093.985     98.225   5.280  9.78913E-01  9.98580E-01 -1.96666E-02
    9095.601     99.840   5.320  9.77124E-01  9.98882E-01 -2.17581E-02
    9097.228    101.468   5.360  9.73490E-01  9.99171E-01 -2.56807E-02
    9098.868    103.108   5.400  9.68535E-01  9.99424E-01 -3.08890E-02
    9100.520    104.760   5.440  9.63087E-01  9.99641E-01 -3.65538E-02
    9102.184    106.424   5.480  9.58235E-01  9.99842E-01 -4.16068E-02
    9103.861    108.100   5.520  9.55045E-01  9.99982E-01 -4.49369E-02
    9105.549    109.789   5.560  9.54390E-01  1.00010E+00 -4.57145E-02
    9107.250    111.490   5.600  9.56571E-01  1.00016E+00 -4.35937E-02
    9108.963    113.203   5.640  9.61482E-01  1.00021E+00 -3.87253E-02
    9110.688    114.928   5.680  9.68565E-01  1.00021E+00 -3.16454E-02
    9112.426    116.665   5.720  9.76986E-01  1.00015E+00 -2.31645E-02
    9114.175    118.415   5.760  9.85772E-01  1.00007E+00 -1.43025E-02
    9115.937    120.176   5.800  9.93823E-01  9.99960E-01 -6.13703E-03
    9117.711    121.950   5.840  1.00027E+00  9.99806E-01  4.62049E-04
    9119.497    123.736   5.880  1.00458E+00  9.99589E-01  4.98669E-03
    9121.295    125.535   5.920  1.00660E+00  9.99358E-01  7.24165E-03
    9123.106    127.345   5.960  1.00639E+00  9.99090E-01  7.30366E-03
    9124.928    129.168   6.000  1.00440E+00  9.98760E-01  5.63639E-03
