# # comment:                                                     FEFF 9.9.1  
# # Source:
# # Structure
# # Reduced
# # space
# # abc:
# # angles:
# # sites:
# # POT  SCF 100  7.0000   0, screened core-hole, AFOLP (folp(0)= 1.150)
# # Abs   Z=29 Rmt= 1.266 Rnm= 1.336 K  shell
# # Pot 1 Z= 3 Rmt= 1.552 Rnm= 1.595
# # Pot 2 Z=29 Rmt= 1.266 Rnm= 1.336
# # Pot 3 Z=15 Rmt= 0.946 Rnm= 1.159
# # Pot 4 Z= 8 Rmt= 0.926 Rnm= 1.041
# # Gam_ch=1.729E+00 H-L exch Vi= 0.000E+00 Vr= 0.000E+00
# # Mu=-6.190E+00eV kf=2.442E+00 Vint=-1.711E+01eV Rs_int= 1.485
# FMS rfms= 9.0000
# # PATH  Rmax=-1.000,  Keep_limit= 0.00, Heap_limit 0.00  Pwcrit= 2.50%
#  S02=0.950  Temp=   0.00  Debye_temp=   0.00  Global_sig2= 0.00000
#  Energy zero shift, vr, vi    0.00000E+00   0.00000E+00
#  Curved wave amplitude ratio filter   4.000%
#     file         sig2 tot  cw amp ratio   deg  nlegs   reff  inp sig2
#     0/   0 paths used
#  xsedge+ 50, used to normalize mu           2.4817E-04
#  -----------------------------------------------------------------------
#  omega    e    k    mu    mu0     chi     @#
    8983.374    -10.000  -1.000  4.12039E-02  5.31451E-02 -1.19412E-02
    8983.673     -9.702  -0.960  4.34450E-02  5.70293E-02 -1.35843E-02
    8983.959     -9.415  -0.920  4.58516E-02  6.13501E-02 -1.54985E-02
    8984.233     -9.141  -0.880  4.84390E-02  6.61726E-02 -1.77336E-02
    8984.496     -8.879  -0.840  5.12235E-02  7.15723E-02 -2.03487E-02
    8984.746     -8.629  -0.800  5.42231E-02  7.76370E-02 -2.34140E-02
    8984.983     -8.391  -0.760  5.74565E-02  8.44677E-02 -2.70112E-02
    8985.209     -8.166  -0.720  6.09436E-02  9.21785E-02 -3.12350E-02
    8985.422     -7.952  -0.680  6.47039E-02  1.00895E-01 -3.61913E-02
    8985.623     -7.751  -0.640  6.87559E-02  1.10751E-01 -4.19947E-02
    8985.812     -7.562  -0.600  7.31147E-02  1.21876E-01 -4.87611E-02
    8985.989     -7.385  -0.560  7.77888E-02  1.34383E-01 -5.65938E-02
    8986.154     -7.221  -0.520  8.27754E-02  1.48338E-01 -6.55626E-02
    8986.306     -7.068  -0.480  8.80548E-02  1.63728E-01 -7.56736E-02
    8986.446     -6.928  -0.440  9.35835E-02  1.80418E-01 -8.68346E-02
    8986.574     -6.800  -0.400  9.92885E-02  1.98115E-01 -9.88261E-02
    8986.690     -6.684  -0.360  1.05065E-01  2.16358E-01 -1.11293E-01
    8986.794     -6.581  -0.320  1.10780E-01  2.34549E-01 -1.23769E-01
    8986.885     -6.489  -0.280  1.16283E-01  2.52025E-01 -1.35743E-01
    8986.964     -6.410  -0.240  1.21417E-01  2.68150E-01 -1.46734E-01
    8987.032     -6.343  -0.200  1.26034E-01  2.82392E-01 -1.56358E-01
    8987.086     -6.288  -0.160  1.30003E-01  2.94365E-01 -1.64361E-01
    8987.129     -6.245  -0.120  1.33216E-01  3.03823E-01 -1.70607E-01
    8987.160     -6.215  -0.080  1.35585E-01  3.10632E-01 -1.75047E-01
    8987.184     -6.190   0.000  1.37551E-01  3.16101E-01 -1.78549E-01
    8987.239     -6.136   0.120  1.42062E-01  3.28424E-01 -1.86362E-01
    8987.281     -6.093   0.160  1.45602E-01  3.37987E-01 -1.92385E-01
    8987.336     -6.038   0.200  1.50261E-01  3.50192E-01 -1.99931E-01
    8987.403     -5.971   0.240  1.56114E-01  3.64841E-01 -2.08727E-01
    8987.483     -5.892   0.280  1.63319E-01  3.81642E-01 -2.18323E-01
    8987.574     -5.800   0.320  1.71946E-01  4.00101E-01 -2.28155E-01
    8987.678     -5.697   0.360  1.82228E-01  4.19702E-01 -2.37474E-01
    8987.794     -5.581   0.400  1.94300E-01  4.39814E-01 -2.45514E-01
    8987.922     -5.453   0.440  2.08343E-01  4.59919E-01 -2.51576E-01
    8988.062     -5.313   0.480  2.24463E-01  4.79561E-01 -2.55099E-01
    8988.214     -5.160   0.520  2.42727E-01  4.98517E-01 -2.55790E-01
    8988.379     -4.996   0.560  2.63082E-01  5.16627E-01 -2.53544E-01
    8988.556     -4.819   0.600  2.85440E-01  5.33860E-01 -2.48420E-01
    8988.745     -4.630   0.640  3.09843E-01  5.50299E-01 -2.40457E-01
    8988.946     -4.429   0.680  3.36267E-01  5.66047E-01 -2.29780E-01
    8989.159     -4.215   0.720  3.64541E-01  5.81160E-01 -2.16619E-01
    8989.385     -3.990   0.760  3.94233E-01  5.95792E-01 -2.01560E-01
    8989.622     -3.752   0.800  4.24863E-01  6.10011E-01 -1.85149E-01
    8989.872     -3.502   0.840  4.56626E-01  6.23890E-01 -1.67264E-01
    8990.134     -3.240   0.880  4.89925E-01  6.37528E-01 -1.47603E-01
    8990.409     -2.966   0.920  5.23724E-01  6.50952E-01 -1.27228E-01
    8990.695     -2.679   0.960  5.55229E-01  6.64216E-01 -1.08987E-01
    8990.994     -2.380   1.000  5.80757E-01  6.77343E-01 -9.65851E-02
    8991.305     -2.070   1.040  5.96946E-01  6.90346E-01 -9.33997E-02
    8991.628     -1.746   1.080  6.03826E-01  7.03232E-01 -9.94056E-02
    8991.963     -1.411   1.120  6.07186E-01  7.16038E-01 -1.08852E-01
    8992.311     -1.064   1.160  6.14511E-01  7.28719E-01 -1.14209E-01
    8992.670     -0.704   1.200  6.29573E-01  7.41285E-01 -1.11712E-01
    8993.042     -0.332   1.240  6.52432E-01  7.53741E-01 -1.01309E-01
    8993.426      0.052   1.280  6.80563E-01  7.66048E-01 -8.54857E-02
    8993.822      0.448   1.320  7.10070E-01  7.78205E-01 -6.81359E-02
    8994.231      0.857   1.360  7.38904E-01  7.90190E-01 -5.12864E-02
    8994.652      1.277   1.400  7.66397E-01  8.01981E-01 -3.55848E-02
    8995.084      1.710   1.440  7.92477E-01  8.13552E-01 -2.10754E-02
    8995.529      2.155   1.480  8.18954E-01  8.24917E-01 -5.96290E-03
    8995.987      2.612   1.520  8.51611E-01  8.36030E-01  1.55807E-02
    8996.456      3.082   1.560  9.00508E-01  8.46865E-01  5.36431E-02
    8996.938      3.563   1.600  9.70054E-01  8.57434E-01  1.12620E-01
    8997.431      4.057   1.640  1.05019E+00  8.67673E-01  1.82521E-01
    8997.937      4.563   1.680  1.12163E+00  8.77614E-01  2.44016E-01
    8998.455      5.081   1.720  1.17182E+00  8.87211E-01  2.84605E-01
    8998.986      5.611   1.760  1.20518E+00  8.96480E-01  3.08696E-01
    8999.528      6.154   1.800  1.22823E+00  9.05376E-01  3.22851E-01
    9000.083      6.709   1.840  1.23632E+00  9.13894E-01  3.22426E-01
    9000.650      7.276   1.880  1.22575E+00  9.22031E-01  3.03721E-01
    9001.229      7.855   1.920  1.20844E+00  9.29806E-01  2.78637E-01
    9001.820      8.446   1.960  1.19759E+00  9.37174E-01  2.60416E-01
    9002.424      9.050   2.000  1.19056E+00  9.44136E-01  2.46427E-01
    9003.040      9.665   2.040  1.17865E+00  9.50734E-01  2.27920E-01
    9003.667     10.293   2.080  1.16033E+00  9.56905E-01  2.03429E-01
    9004.308     10.933   2.120  1.13597E+00  9.62692E-01  1.73275E-01
    9004.960     11.585   2.160  1.10704E+00  9.68099E-01  1.38942E-01
    9005.624     12.250   2.200  1.08114E+00  9.73126E-01  1.08017E-01
    9006.301     12.927   2.240  1.06558E+00  9.77756E-01  8.78196E-02
    9006.990     13.615   2.280  1.05939E+00  9.82015E-01  7.73735E-02
    9007.691     14.316   2.320  1.05616E+00  9.85927E-01  7.02347E-02
    9008.404     15.030   2.360  1.05342E+00  9.89458E-01  6.39653E-02
    9009.129     15.755   2.400  1.05288E+00  9.92671E-01  6.02101E-02
    9009.867     16.493   2.440  1.05424E+00  9.95534E-01  5.87085E-02
    9010.617     17.242   2.480  1.05613E+00  9.98093E-01  5.80332E-02
    9011.379     18.004   2.520  1.05868E+00  1.00034E+00  5.83464E-02
    9012.153     18.779   2.560  1.06400E+00  1.00229E+00  6.17130E-02
    9012.939     19.565   2.600  1.07121E+00  1.00395E+00  6.72526E-02
    9013.738     20.364   2.640  1.07544E+00  1.00536E+00  7.00779E-02
    9014.549     21.174   2.680  1.07367E+00  1.00651E+00  6.71674E-02
    9015.372     21.997   2.720  1.06401E+00  1.00743E+00  5.65793E-02
    9016.207     22.833   2.760  1.04361E+00  1.00813E+00  3.54785E-02
    9017.054     23.680   2.800  1.01320E+00  1.00861E+00  4.58482E-03
    9017.914     24.539   2.840  9.79103E-01  1.00889E+00 -2.97899E-02
    9018.785     25.411   2.880  9.49635E-01  1.00902E+00 -5.93856E-02
    9019.669     26.295   2.920  9.25374E-01  1.00896E+00 -8.35885E-02
    9020.566     27.191   2.960  9.06071E-01  1.00875E+00 -1.02677E-01
    9021.474     28.099   3.000  8.91686E-01  1.00842E+00 -1.16736E-01
    9022.394     29.020   3.040  8.81710E-01  1.00795E+00 -1.26241E-01
    9023.327     29.953   3.080  8.75396E-01  1.00736E+00 -1.31966E-01
    9024.272     30.897   3.120  8.71961E-01  1.00668E+00 -1.34720E-01
    9025.229     31.855   3.160  8.70843E-01  1.00592E+00 -1.35074E-01
    9026.198     32.824   3.200  8.71343E-01  1.00509E+00 -1.33751E-01
    9027.180     33.805   3.240  8.73203E-01  1.00418E+00 -1.30974E-01
    9028.173     34.799   3.280  8.76537E-01  1.00323E+00 -1.26692E-01
    9029.179     35.805   3.320  8.81158E-01  1.00222E+00 -1.21061E-01
    9030.197     36.823   3.360  8.86905E-01  1.00117E+00 -1.14263E-01
    9031.227     37.853   3.400  8.93658E-01  1.00010E+00 -1.06446E-01
    9032.270     38.895   3.440  9.01323E-01  9.99032E-01 -9.77088E-02
    9033.324     39.950   3.480  9.09832E-01  9.97934E-01 -8.81016E-02
    9034.391     41.017   3.520  9.19336E-01  9.96854E-01 -7.75188E-02
    9035.470     42.096   3.560  9.29815E-01  9.95756E-01 -6.59406E-02
    9036.561     43.187   3.600  9.41203E-01  9.94684E-01 -5.34805E-02
    9037.665     44.290   3.640  9.53392E-01  9.93642E-01 -4.02495E-02
    9038.780     45.406   3.680  9.66186E-01  9.92609E-01 -2.64225E-02
    9039.908     46.534   3.720  9.79272E-01  9.91609E-01 -1.23371E-02
    9041.048     47.674   3.760  9.92250E-01  9.90624E-01  1.62553E-03
    9042.200     48.826   3.800  1.00485E+00  9.89700E-01  1.51518E-02
    9043.364     49.990   3.840  1.01662E+00  9.88817E-01  2.78011E-02
    9044.541     51.167   3.880  1.02707E+00  9.87975E-01  3.90987E-02
    9045.730     52.355   3.920  1.03583E+00  9.87177E-01  4.86568E-02
    9046.931     53.556   3.960  1.04269E+00  9.86445E-01  5.62412E-02
    9048.144     54.769   4.000  1.04751E+00  9.85760E-01  6.17466E-02
    9049.369     55.995   4.040  1.05042E+00  9.85120E-01  6.52966E-02
    9050.606     57.232   4.080  1.05163E+00  9.84548E-01  6.70828E-02
    9051.856     58.482   4.120  1.05135E+00  9.84025E-01  6.73295E-02
    9053.118     59.744   4.160  1.04989E+00  9.83572E-01  6.63201E-02
    9054.392     61.018   4.200  1.04758E+00  9.83168E-01  6.44164E-02
    9055.678     62.304   4.240  1.04480E+00  9.82831E-01  6.19730E-02
    9056.977     63.602   4.280  1.04189E+00  9.82546E-01  5.93487E-02
    9058.287     64.913   4.320  1.03923E+00  9.82329E-01  5.68982E-02
    9059.610     66.236   4.360  1.03697E+00  9.82161E-01  5.48079E-02
    9060.945     67.571   4.400  1.03508E+00  9.82062E-01  5.30173E-02
    9062.292     68.918   4.440  1.03327E+00  9.82009E-01  5.12614E-02
    9063.652     70.277   4.480  1.03120E+00  9.82000E-01  4.92019E-02
    9065.023     71.649   4.520  1.02870E+00  9.82059E-01  4.66380E-02
    9066.407     73.033   4.560  1.02576E+00  9.82163E-01  4.36008E-02
    9067.803     74.429   4.600  1.02252E+00  9.82309E-01  4.02066E-02
    9069.211     75.837   4.640  1.01898E+00  9.82495E-01  3.64829E-02
    9070.632     77.257   4.680  1.01510E+00  9.82725E-01  3.23772E-02
    9072.064     78.690   4.720  1.01082E+00  9.83016E-01  2.78024E-02
    9073.509     80.135   4.760  1.00592E+00  9.83322E-01  2.25930E-02
    9074.966     81.592   4.800  1.00025E+00  9.83665E-01  1.65844E-02
    9076.435     83.061   4.840  9.93747E-01  9.84045E-01  9.70197E-03
    9077.916     84.542   4.880  9.86542E-01  9.84459E-01  2.08265E-03
    9079.410     86.036   4.920  9.78986E-01  9.84883E-01 -5.89637E-03
    9080.916     87.541   4.960  9.71552E-01  9.85337E-01 -1.37855E-02
    9082.434     89.059   5.000  9.64649E-01  9.85798E-01 -2.11487E-02
    9083.964     90.589   5.040  9.58724E-01  9.86264E-01 -2.75396E-02
    9085.506     92.132   5.080  9.54228E-01  9.86757E-01 -3.25289E-02
    9087.060     93.686   5.120  9.51444E-01  9.87253E-01 -3.58092E-02
    9088.627     95.253   5.160  9.50339E-01  9.87749E-01 -3.74100E-02
    9090.206     96.832   5.200  9.50577E-01  9.88245E-01 -3.76687E-02
    9091.797     98.423   5.240  9.51612E-01  9.88740E-01 -3.71278E-02
    9093.400    100.026   5.280  9.52875E-01  9.89229E-01 -3.63544E-02
    9095.016    101.641   5.320  9.53943E-01  9.89691E-01 -3.57476E-02
    9096.643    103.269   5.360  9.54719E-01  9.90146E-01 -3.54262E-02
    9098.283    104.909   5.400  9.55351E-01  9.90592E-01 -3.52414E-02
    9099.935    106.561   5.440  9.56027E-01  9.91008E-01 -3.49805E-02
    9101.599    108.225   5.480  9.56896E-01  9.91411E-01 -3.45144E-02
    9103.276    109.901   5.520  9.57941E-01  9.91757E-01 -3.38157E-02
    9104.964    111.590   5.560  9.59277E-01  9.92112E-01 -3.28352E-02
    9106.665    113.291   5.600  9.60992E-01  9.92409E-01 -3.14161E-02
    9108.378    115.004   5.640  9.63353E-01  9.92666E-01 -2.93137E-02
    9110.103    116.729   5.680  9.66542E-01  9.92909E-01 -2.63666E-02
    9111.841    118.466   5.720  9.70369E-01  9.93112E-01 -2.27434E-02
    9113.590    120.216   5.760  9.74310E-01  9.93253E-01 -1.89427E-02
    9115.352    121.977   5.800  9.77893E-01  9.93373E-01 -1.54797E-02
    9117.126    123.751   5.840  9.80879E-01  9.93432E-01 -1.25524E-02
    9118.912    125.537   5.880  9.83481E-01  9.93472E-01 -9.99097E-03
    9120.710    127.336   5.920  9.85925E-01  9.93445E-01 -7.51984E-03
    9122.521    129.146   5.960  9.88321E-01  9.93371E-01 -5.05000E-03
    9124.343    130.969   6.000  9.90445E-01  9.93227E-01 -2.78196E-03
