# # comment:                                                     FEFF 9.9.1  
# # Source:
# # Structure
# # Reduced
# # space
# # abc:
# # angles:
# # sites:
# # POT  SCF 100  7.0000   0, screened core-hole, AFOLP (folp(0)= 1.150)
# # Abs   Z=29 Rmt= 1.121 Rnm= 1.247 K  shell
# # Pot 1 Z= 3 Rmt= 1.338 Rnm= 1.394
# # Pot 2 Z=29 Rmt= 1.121 Rnm= 1.247
# # Pot 3 Z= 8 Rmt= 1.035 Rnm= 1.110
# # Gam_ch=1.729E+00 H-L exch Vi= 0.000E+00 Vr= 0.000E+00
# # Mu=-7.523E+00eV kf=2.115E+00 Vint=-1.567E+01eV Rs_int= 1.715
# FMS rfms= 9.0000
# # PATH  Rmax=-1.000,  Keep_limit= 0.00, Heap_limit 0.00  Pwcrit= 2.50%
#  S02=0.950  Temp=   0.00  Debye_temp=   0.00  Global_sig2= 0.00000
#  Energy zero shift, vr, vi    0.00000E+00   0.00000E+00
#  Curved wave amplitude ratio filter   4.000%
#     file         sig2 tot  cw amp ratio   deg  nlegs   reff  inp sig2
#     0/   0 paths used
#  xsedge+ 50, used to normalize mu           2.4327E-04
#  -----------------------------------------------------------------------
#  omega    e    k    mu    mu0     chi     @#
    8984.098    -11.333  -1.000  3.67248E-02  5.71777E-02 -2.04529E-02
    8984.396    -11.034  -0.960  3.87133E-02  6.13660E-02 -2.26527E-02
    8984.683    -10.747  -0.920  4.08654E-02  6.60200E-02 -2.51546E-02
    8984.957    -10.473  -0.880  4.31987E-02  7.12080E-02 -2.80093E-02
    8985.219    -10.211  -0.840  4.57322E-02  7.70093E-02 -3.12771E-02
    8985.469     -9.961  -0.800  4.84867E-02  8.35160E-02 -3.50293E-02
    8985.707     -9.723  -0.760  5.14843E-02  9.08335E-02 -3.93493E-02
    8985.933     -9.498  -0.720  5.47473E-02  9.90809E-02 -4.43336E-02
    8986.146     -9.284  -0.680  5.82984E-02  1.08389E-01 -5.00910E-02
    8986.347     -9.083  -0.640  6.21580E-02  1.18897E-01 -5.67391E-02
    8986.536     -8.894  -0.600  6.63429E-02  1.30740E-01 -6.43967E-02
    8986.713     -8.717  -0.560  7.08628E-02  1.44033E-01 -7.31698E-02
    8986.878     -8.553  -0.520  7.57164E-02  1.58845E-01 -8.31283E-02
    8987.030     -8.400  -0.480  8.08858E-02  1.75160E-01 -9.42742E-02
    8987.170     -8.260  -0.440  8.63312E-02  1.92836E-01 -1.06504E-01
    8987.298     -8.132  -0.400  9.19858E-02  2.11565E-01 -1.19579E-01
    8987.414     -8.016  -0.360  9.77535E-02  2.30865E-01 -1.33112E-01
    8987.518     -7.913  -0.320  1.03510E-01  2.50112E-01 -1.46602E-01
    8987.609     -7.821  -0.280  1.09112E-01  2.68609E-01 -1.59497E-01
    8987.688     -7.742  -0.240  1.14401E-01  2.85686E-01 -1.71286E-01
    8987.755     -7.675  -0.200  1.19219E-01  3.00783E-01 -1.81564E-01
    8987.810     -7.620  -0.160  1.23417E-01  3.13486E-01 -1.90069E-01
    8987.853     -7.577  -0.120  1.26858E-01  3.23531E-01 -1.96673E-01
    8987.883     -7.547  -0.080  1.29427E-01  3.30770E-01 -2.01342E-01
    8987.908     -7.523   0.000  1.31598E-01  3.36586E-01 -2.04988E-01
    8987.963     -7.468   0.120  1.36565E-01  3.49702E-01 -2.13136E-01
    8988.005     -7.425   0.160  1.40518E-01  3.59917E-01 -2.19399E-01
    8988.060     -7.370   0.200  1.45770E-01  3.72937E-01 -2.27168E-01
    8988.127     -7.303   0.240  1.52556E-01  3.88636E-01 -2.36080E-01
    8988.206     -7.224   0.280  1.61098E-01  4.06670E-01 -2.45572E-01
    8988.298     -7.132   0.320  1.71789E-01  4.26614E-01 -2.54825E-01
    8988.402     -7.029   0.360  1.85101E-01  4.47893E-01 -2.62792E-01
    8988.517     -6.913   0.400  2.01693E-01  4.69916E-01 -2.68223E-01
    8988.645     -6.785   0.440  2.22345E-01  4.92100E-01 -2.69755E-01
    8988.786     -6.645   0.480  2.47975E-01  5.14066E-01 -2.66091E-01
    8988.938     -6.492   0.520  2.79173E-01  5.35486E-01 -2.56313E-01
    8989.103     -6.328   0.560  3.15644E-01  5.56235E-01 -2.40591E-01
    8989.279     -6.151   0.600  3.54849E-01  5.76276E-01 -2.21427E-01
    8989.468     -5.962   0.640  3.90928E-01  5.95665E-01 -2.04738E-01
    8989.670     -5.761   0.680  4.15235E-01  6.14455E-01 -1.99220E-01
    8989.883     -5.547   0.720  4.20605E-01  6.32732E-01 -2.12127E-01
    8990.108     -5.322   0.760  4.06682E-01  6.50600E-01 -2.43918E-01
    8990.346     -5.084   0.800  3.80372E-01  6.68113E-01 -2.87741E-01
    8990.596     -4.834   0.840  3.50580E-01  6.85331E-01 -3.34751E-01
    8990.858     -4.572   0.880  3.23815E-01  7.02279E-01 -3.78464E-01
    8991.133     -4.298   0.920  3.04321E-01  7.19009E-01 -4.14688E-01
    8991.419     -4.011   0.960  2.94973E-01  7.35498E-01 -4.40525E-01
    8991.718     -3.713   1.000  2.96172E-01  7.51775E-01 -4.55603E-01
    8992.029     -3.402   1.040  3.03311E-01  7.67796E-01 -4.64485E-01
    8992.352     -3.079   1.080  3.07028E-01  7.83594E-01 -4.76566E-01
    8992.687     -2.743   1.120  3.00708E-01  7.99091E-01 -4.98383E-01
    8993.034     -2.396   1.160  2.88579E-01  8.14309E-01 -5.25731E-01
    8993.394     -2.036   1.200  2.80555E-01  8.29162E-01 -5.48607E-01
    8993.766     -1.664   1.240  2.83465E-01  8.43664E-01 -5.60198E-01
    8994.150     -1.280   1.280  2.99579E-01  8.57766E-01 -5.58187E-01
    8994.546     -0.884   1.320  3.29277E-01  8.71439E-01 -5.42162E-01
    8994.955     -0.476   1.360  3.72055E-01  8.84632E-01 -5.12578E-01
    8995.375     -0.055   1.400  4.25168E-01  8.97337E-01 -4.72169E-01
    8995.808      0.378   1.440  4.82653E-01  9.09524E-01 -4.26870E-01
    8996.253      0.823   1.480  5.42132E-01  9.21184E-01 -3.79053E-01
    8996.710      1.280   1.520  6.12047E-01  9.32248E-01 -3.20202E-01
    8997.180      1.749   1.560  7.06617E-01  9.42755E-01 -2.36137E-01
    8997.661      2.231   1.600  8.26517E-01  9.52657E-01 -1.26140E-01
    8998.155      2.725   1.640  9.45716E-01  9.61953E-01 -1.62368E-02
    8998.661      3.231   1.680  1.02166E+00  9.70640E-01  5.10178E-02
    8999.179      3.749   1.720  1.02147E+00  9.78721E-01  4.27529E-02
    8999.710      4.279   1.760  9.79707E-01  9.86199E-01 -6.49237E-03
    9000.252      4.822   1.800  9.55886E-01  9.93078E-01 -3.71916E-02
    9000.807      5.377   1.840  9.76796E-01  9.99341E-01 -2.25456E-02
    9001.374      5.943   1.880  1.04782E+00  1.00504E+00  4.27846E-02
    9001.953      6.523   1.920  1.16738E+00  1.01018E+00  1.57201E-01
    9002.544      7.114   1.960  1.31735E+00  1.01477E+00  3.02588E-01
    9003.148      7.717   2.000  1.45278E+00  1.01882E+00  4.33966E-01
    9003.763      8.333   2.040  1.53835E+00  1.02236E+00  5.15997E-01
    9004.391      8.961   2.080  1.56983E+00  1.02540E+00  5.44424E-01
    9005.031      9.601   2.120  1.53392E+00  1.02798E+00  5.05937E-01
    9005.684     10.253   2.160  1.43746E+00  1.03014E+00  4.07320E-01
    9006.348     10.918   2.200  1.33379E+00  1.03187E+00  3.01921E-01
    9007.025     11.594   2.240  1.26593E+00  1.03322E+00  2.32704E-01
    9007.714     12.283   2.280  1.23962E+00  1.03420E+00  2.05415E-01
    9008.415     12.984   2.320  1.23975E+00  1.03485E+00  2.04901E-01
    9009.128     13.698   2.360  1.24865E+00  1.03517E+00  2.13481E-01
    9009.853     14.423   2.400  1.25591E+00  1.03521E+00  2.20699E-01
    9010.591     15.161   2.440  1.25753E+00  1.03499E+00  2.22544E-01
    9011.341     15.910   2.480  1.25414E+00  1.03453E+00  2.19608E-01
    9012.103     16.672   2.520  1.24476E+00  1.03384E+00  2.10914E-01
    9012.877     17.447   2.560  1.22185E+00  1.03298E+00  1.88874E-01
    9013.663     18.233   2.600  1.18983E+00  1.03194E+00  1.57896E-01
    9014.462     19.031   2.640  1.15694E+00  1.03076E+00  1.26172E-01
    9015.273     19.842   2.680  1.12765E+00  1.02944E+00  9.82089E-02
    9016.096     20.665   2.720  1.10319E+00  1.02802E+00  7.51772E-02
    9016.931     21.500   2.760  1.08297E+00  1.02648E+00  5.64829E-02
    9017.778     22.348   2.800  1.06609E+00  1.02489E+00  4.11986E-02
    9018.638     23.207   2.840  1.05192E+00  1.02325E+00  2.86708E-02
    9019.509     24.079   2.880  1.03950E+00  1.02154E+00  1.79681E-02
    9020.393     24.963   2.920  1.02762E+00  1.01981E+00  7.80671E-03
    9021.289     25.859   2.960  1.01510E+00  1.01805E+00 -2.95347E-03
    9022.198     26.767   3.000  1.00131E+00  1.01631E+00 -1.50038E-02
    9023.118     27.688   3.040  9.86044E-01  1.01456E+00 -2.85109E-02
    9024.051     28.620   3.080  9.69286E-01  1.01282E+00 -4.35382E-02
    9024.996     29.565   3.120  9.51399E-01  1.01113E+00 -5.97290E-02
    9025.953     30.522   3.160  9.33287E-01  1.00947E+00 -7.61829E-02
    9026.922     31.492   3.200  9.15932E-01  1.00785E+00 -9.19225E-02
    9027.903     32.473   3.240  9.00325E-01  1.00628E+00 -1.05958E-01
    9028.897     33.467   3.280  8.86904E-01  1.00478E+00 -1.17876E-01
    9029.903     34.473   3.320  8.75798E-01  1.00333E+00 -1.27531E-01
    9030.921     35.491   3.360  8.67214E-01  1.00195E+00 -1.34740E-01
    9031.951     36.521   3.400  8.61422E-01  1.00066E+00 -1.39235E-01
    9032.994     37.563   3.440  8.58424E-01  9.99439E-01 -1.41015E-01
    9034.048     38.618   3.480  8.58337E-01  9.98303E-01 -1.39966E-01
    9035.115     39.685   3.520  8.61195E-01  9.97249E-01 -1.36054E-01
    9036.194     40.764   3.560  8.66561E-01  9.96278E-01 -1.29717E-01
    9037.285     41.855   3.600  8.73681E-01  9.95394E-01 -1.21713E-01
    9038.389     42.958   3.640  8.81855E-01  9.94616E-01 -1.12761E-01
    9039.504     44.074   3.680  8.90565E-01  9.93926E-01 -1.03361E-01
    9040.632     45.202   3.720  8.99291E-01  9.93323E-01 -9.40321E-02
    9041.772     46.341   3.760  9.07745E-01  9.92829E-01 -8.50833E-02
    9042.924     47.494   3.800  9.15586E-01  9.92422E-01 -7.68362E-02
    9044.088     48.658   3.840  9.22530E-01  9.92103E-01 -6.95727E-02
    9045.265     49.834   3.880  9.28578E-01  9.91892E-01 -6.33146E-02
    9046.454     51.023   3.920  9.33992E-01  9.91767E-01 -5.77746E-02
    9047.654     52.224   3.960  9.39049E-01  9.91725E-01 -5.26765E-02
    9048.868     53.437   4.000  9.43840E-01  9.91767E-01 -4.79273E-02
    9050.093     54.662   4.040  9.48347E-01  9.91892E-01 -4.35449E-02
    9051.330     55.900   4.080  9.52607E-01  9.92099E-01 -3.94924E-02
    9052.580     57.150   4.120  9.56893E-01  9.92410E-01 -3.55178E-02
    9053.842     58.411   4.160  9.61873E-01  9.92779E-01 -3.09061E-02
    9055.116     59.686   4.200  9.68553E-01  9.93225E-01 -2.46714E-02
    9056.402     60.972   4.240  9.77863E-01  9.93747E-01 -1.58834E-02
    9057.701     62.270   4.280  9.90298E-01  9.94320E-01 -4.02206E-03
    9059.011     63.581   4.320  1.00577E+00  9.94964E-01  1.08082E-02
    9060.334     64.904   4.360  1.02346E+00  9.95659E-01  2.78026E-02
    9061.669     66.239   4.400  1.04197E+00  9.96423E-01  4.55485E-02
    9063.016     67.586   4.440  1.05970E+00  9.97231E-01  6.24659E-02
    9064.376     68.945   4.480  1.07530E+00  9.98083E-01  7.72191E-02
    9065.747     70.317   4.520  1.08812E+00  9.98974E-01  8.91506E-02
    9067.131     71.701   4.560  1.09831E+00  9.99903E-01  9.84043E-02
    9068.527     73.097   4.600  1.10628E+00  1.00087E+00  1.05411E-01
    9069.935     74.505   4.640  1.11206E+00  1.00184E+00  1.10218E-01
    9071.356     75.925   4.680  1.11525E+00  1.00285E+00  1.12402E-01
    9072.788     77.358   4.720  1.11540E+00  1.00386E+00  1.11536E-01
    9074.233     78.803   4.760  1.11270E+00  1.00488E+00  1.07821E-01
    9075.690     80.259   4.800  1.10826E+00  1.00592E+00  1.02342E-01
    9077.159     81.729   4.840  1.10349E+00  1.00693E+00  9.65523E-02
    9078.640     83.210   4.880  1.09940E+00  1.00797E+00  9.14283E-02
    9080.134     84.703   4.920  1.09594E+00  1.00898E+00  8.69544E-02
    9081.639     86.209   4.960  1.09201E+00  1.00998E+00  8.20265E-02
    9083.157     87.727   5.000  1.08594E+00  1.01095E+00  7.49861E-02
    9084.687     89.257   5.040  1.07642E+00  1.01191E+00  6.45115E-02
    9086.230     90.799   5.080  1.06317E+00  1.01283E+00  5.03329E-02
    9087.784     92.354   5.120  1.04717E+00  1.01372E+00  3.34545E-02
    9089.351     93.921   5.160  1.03020E+00  1.01456E+00  1.56369E-02
    9090.930     95.499   5.200  1.01394E+00  1.01538E+00 -1.44276E-03
    9092.521     97.090   5.240  9.99463E-01  1.01614E+00 -1.66780E-02
    9094.124     98.694   5.280  9.87296E-01  1.01685E+00 -2.95554E-02
    9095.739    100.309   5.320  9.77549E-01  1.01749E+00 -3.99422E-02
    9097.367    101.937   5.360  9.70136E-01  1.01808E+00 -4.79470E-02
    9099.007    103.577   5.400  9.64803E-01  1.01863E+00 -5.38250E-02
    9100.659    105.229   5.440  9.61320E-01  1.01912E+00 -5.78027E-02
    9102.323    106.893   5.480  9.59638E-01  1.01952E+00 -5.98836E-02
    9104.000    108.569   5.520  9.60091E-01  1.01989E+00 -5.97982E-02
    9105.688    110.258   5.560  9.62896E-01  1.02016E+00 -5.72630E-02
    9107.389    111.959   5.600  9.68067E-01  1.02037E+00 -5.23076E-02
    9109.102    113.672   5.640  9.75133E-01  1.02052E+00 -4.53825E-02
    9110.827    115.397   5.680  9.83515E-01  1.02060E+00 -3.70899E-02
    9112.564    117.134   5.720  9.92680E-01  1.02062E+00 -2.79376E-02
    9114.314    118.884   5.760  1.00226E+00  1.02055E+00 -1.82944E-02
    9116.076    120.645   5.800  1.01182E+00  1.02044E+00 -8.61845E-03
    9117.850    122.419   5.840  1.02048E+00  1.02022E+00  2.58344E-04
    9119.636    124.205   5.880  1.02707E+00  1.01998E+00  7.09149E-03
    9121.434    126.004   5.920  1.03028E+00  1.01964E+00  1.06305E-02
    9123.245    127.814   5.960  1.02943E+00  1.01925E+00  1.01843E-02
    9125.067    129.637   6.000  1.02434E+00  1.01876E+00  5.58261E-03
