# # comment:                                                     FEFF 9.9.1  
# # Source:
# # Structure
# # Reduced
# # space
# # abc:
# # angles:
# # sites:
# # POT  SCF 100  7.0000   0, screened core-hole, AFOLP (folp(0)= 1.150)
# # Abs   Z=29 Rmt= 1.202 Rnm= 1.263 K  shell
# # Pot 1 Z= 3 Rmt= 1.230 Rnm= 1.285
# # Pot 2 Z=27 Rmt= 1.309 Rnm= 1.391
# # Pot 3 Z=29 Rmt= 1.202 Rnm= 1.263
# # Pot 4 Z= 8 Rmt= 1.042 Rnm= 1.098
# # Gam_ch=1.729E+00 H-L exch Vi= 0.000E+00 Vr= 0.000E+00
# # Mu=-1.062E+01eV kf=2.103E+00 Vint=-1.829E+01eV Rs_int= 1.725
# FMS rfms= 9.0000
# # PATH  Rmax=-1.000,  Keep_limit= 0.00, Heap_limit 0.00  Pwcrit= 2.50%
#  S02=0.950  Temp=   0.00  Debye_temp=   0.00  Global_sig2= 0.00000
#  Energy zero shift, vr, vi    0.00000E+00   0.00000E+00
#  Curved wave amplitude ratio filter   4.000%
#     file         sig2 tot  cw amp ratio   deg  nlegs   reff  inp sig2
#     0/   0 paths used
#  xsedge+ 50, used to normalize mu           2.4527E-04
#  -----------------------------------------------------------------------
#  omega    e    k    mu    mu0     chi     @#
    8985.083    -14.427  -1.000  2.98384E-02  5.51235E-02 -2.52852E-02
    8985.382    -14.129  -0.960  3.09715E-02  5.91077E-02 -2.81362E-02
    8985.668    -13.842  -0.920  3.21601E-02  6.35302E-02 -3.13702E-02
    8985.942    -13.568  -0.880  3.34095E-02  6.84548E-02 -3.50453E-02
    8986.204    -13.306  -0.840  3.47265E-02  7.39558E-02 -3.92293E-02
    8986.454    -13.056  -0.800  3.61189E-02  8.01189E-02 -4.40000E-02
    8986.692    -12.818  -0.760  3.75962E-02  8.70426E-02 -4.94464E-02
    8986.918    -12.592  -0.720  3.91693E-02  9.48380E-02 -5.56687E-02
    8987.131    -12.379  -0.680  4.08505E-02  1.03627E-01 -6.27767E-02
    8987.332    -12.178  -0.640  4.26531E-02  1.13539E-01 -7.08857E-02
    8987.521    -11.989  -0.600  4.45901E-02  1.24699E-01 -8.01091E-02
    8987.698    -11.812  -0.560  4.66719E-02  1.37216E-01 -9.05438E-02
    8987.863    -11.648  -0.520  4.89027E-02  1.51151E-01 -1.02249E-01
    8988.015    -11.495  -0.480  5.12758E-02  1.66491E-01 -1.15215E-01
    8988.155    -11.355  -0.440  5.37676E-02  1.83100E-01 -1.29333E-01
    8988.283    -11.227  -0.400  5.63332E-02  2.00692E-01 -1.44359E-01
    8988.399    -11.111  -0.360  5.89063E-02  2.18817E-01 -1.59910E-01
    8988.503    -11.007  -0.320  6.14045E-02  2.36888E-01 -1.75484E-01
    8988.594    -10.916  -0.280  6.37421E-02  2.54257E-01 -1.90515E-01
    8988.673    -10.837  -0.240  6.58438E-02  2.70295E-01 -2.04451E-01
    8988.740    -10.770  -0.200  6.76553E-02  2.84477E-01 -2.16822E-01
    8988.795    -10.715  -0.160  6.91451E-02  2.96415E-01 -2.27270E-01
    8988.838    -10.672  -0.120  7.02981E-02  3.05858E-01 -2.35560E-01
    8988.868    -10.642  -0.080  7.11093E-02  3.12665E-01 -2.41556E-01
    8988.893    -10.617   0.000  7.17335E-02  3.18138E-01 -2.46404E-01
    8988.948    -10.562   0.120  7.34071E-02  3.30485E-01 -2.57078E-01
    8988.990    -10.520   0.160  7.46170E-02  3.40074E-01 -2.65457E-01
    8989.045    -10.465   0.200  7.61589E-02  3.52361E-01 -2.76203E-01
    8989.112    -10.398   0.240  7.79028E-02  3.67155E-01 -2.89253E-01
    8989.192    -10.319   0.280  7.98094E-02  3.84180E-01 -3.04370E-01
    8989.283    -10.227   0.320  8.18164E-02  4.03027E-01 -3.21211E-01
    8989.387    -10.124   0.360  8.38369E-02  4.23188E-01 -3.39351E-01
    8989.502    -10.008   0.400  8.58144E-02  4.44098E-01 -3.58283E-01
    8989.630     -9.880   0.440  8.77365E-02  4.65238E-01 -3.77502E-01
    8989.771     -9.739   0.480  8.96665E-02  4.86243E-01 -3.96577E-01
    8989.923     -9.587   0.520  9.16162E-02  5.06825E-01 -4.15209E-01
    8990.088     -9.423   0.560  9.36103E-02  5.26868E-01 -4.33258E-01
    8990.264     -9.246   0.600  9.56556E-02  5.46338E-01 -4.50683E-01
    8990.453     -9.057   0.640  9.78220E-02  5.65287E-01 -4.67465E-01
    8990.655     -8.856   0.680  1.00139E-01  5.83738E-01 -4.83599E-01
    8990.868     -8.642   0.720  1.02820E-01  6.01810E-01 -4.98990E-01
    8991.093     -8.417   0.760  1.06053E-01  6.19557E-01 -5.13504E-01
    8991.331     -8.179   0.800  1.10034E-01  6.37024E-01 -5.26989E-01
    8991.581     -7.929   0.840  1.15048E-01  6.54303E-01 -5.39255E-01
    8991.843     -7.667   0.880  1.21263E-01  6.71372E-01 -5.50109E-01
    8992.118     -7.393   0.920  1.29068E-01  6.88297E-01 -5.59229E-01
    8992.404     -7.106   0.960  1.38944E-01  7.05050E-01 -5.66105E-01
    8992.703     -6.807   1.000  1.51684E-01  7.21654E-01 -5.69969E-01
    8993.014     -6.496   1.040  1.68399E-01  7.38062E-01 -5.69662E-01
    8993.337     -6.173   1.080  1.90592E-01  7.54261E-01 -5.63669E-01
    8993.672     -5.838   1.120  2.19854E-01  7.70253E-01 -5.50398E-01
    8994.020     -5.491   1.160  2.57332E-01  7.85952E-01 -5.28620E-01
    8994.379     -5.131   1.200  3.03322E-01  8.01374E-01 -4.98052E-01
    8994.751     -4.759   1.240  3.53715E-01  8.16448E-01 -4.62733E-01
    8995.135     -4.375   1.280  3.98245E-01  8.31142E-01 -4.32898E-01
    8995.531     -3.979   1.320  4.31414E-01  8.45445E-01 -4.14030E-01
    8995.940     -3.570   1.360  4.58810E-01  8.59285E-01 -4.00475E-01
    8996.360     -3.150   1.400  4.86538E-01  8.72671E-01 -3.86133E-01
    8996.793     -2.717   1.440  5.16299E-01  8.85531E-01 -3.69231E-01
    8997.238     -2.272   1.480  5.46994E-01  8.97873E-01 -3.50879E-01
    8997.695     -1.815   1.520  5.80039E-01  9.09649E-01 -3.29611E-01
    8998.165     -1.345   1.560  6.28540E-01  9.20833E-01 -2.92294E-01
    8998.646     -0.864   1.600  7.14779E-01  9.31459E-01 -2.16680E-01
    8999.140     -0.370   1.640  8.49768E-01  9.41462E-01 -9.16936E-02
    8999.646      0.136   1.680  9.99085E-01  9.50860E-01  4.82252E-02
    9000.164      0.654   1.720  1.10213E+00  9.59633E-01  1.42496E-01
    9000.695      1.184   1.760  1.19809E+00  9.67803E-01  2.30291E-01
    9001.237      1.727   1.800  1.38326E+00  9.75352E-01  4.07903E-01
    9001.792      2.282   1.840  1.67139E+00  9.82307E-01  6.89082E-01
    9002.359      2.849   1.880  1.98654E+00  9.88673E-01  9.97867E-01
    9002.938      3.428   1.920  2.19105E+00  9.94457E-01  1.19659E+00
    9003.529      4.019   1.960  2.19083E+00  9.99689E-01  1.19114E+00
    9004.133      4.623   2.000  2.03514E+00  1.00436E+00  1.03078E+00
    9004.748      5.238   2.040  1.83447E+00  1.00854E+00  8.25938E-01
    9005.376      5.866   2.080  1.64623E+00  1.01219E+00  6.34032E-01
    9006.016      6.506   2.120  1.47015E+00  1.01536E+00  4.54786E-01
    9006.669      7.159   2.160  1.30674E+00  1.01810E+00  2.88646E-01
    9007.333      7.823   2.200  1.17031E+00  1.02039E+00  1.49922E-01
    9008.010      8.500   2.240  1.06479E+00  1.02229E+00  4.24975E-02
    9008.699      9.189   2.280  9.83524E-01  1.02379E+00 -4.02689E-02
    9009.400      9.890   2.320  9.23866E-01  1.02496E+00 -1.01090E-01
    9010.113     10.603   2.360  8.88454E-01  1.02579E+00 -1.37336E-01
    9010.838     11.328   2.400  8.80007E-01  1.02633E+00 -1.46320E-01
    9011.576     12.066   2.440  8.94238E-01  1.02658E+00 -1.32344E-01
    9012.326     12.816   2.480  9.22289E-01  1.02658E+00 -1.04295E-01
    9013.088     13.578   2.520  9.62196E-01  1.02637E+00 -6.41726E-02
    9013.862     14.352   2.560  1.00304E+00  1.02593E+00 -2.28846E-02
    9014.648     15.138   2.600  1.03736E+00  1.02533E+00  1.20320E-02
    9015.447     15.937   2.640  1.06395E+00  1.02454E+00  3.94087E-02
    9016.258     16.748   2.680  1.08271E+00  1.02363E+00  5.90861E-02
    9017.081     17.570   2.720  1.09235E+00  1.02258E+00  6.97666E-02
    9017.916     18.406   2.760  1.09086E+00  1.02142E+00  6.94412E-02
    9018.763     19.253   2.800  1.07565E+00  1.02017E+00  5.54811E-02
    9019.623     20.112   2.840  1.04584E+00  1.01887E+00  2.69738E-02
    9020.494     20.984   2.880  1.00483E+00  1.01749E+00 -1.26576E-02
    9021.378     21.868   2.920  9.57356E-01  1.01607E+00 -5.87149E-02
    9022.274     22.764   2.960  9.09559E-01  1.01461E+00 -1.05055E-01
    9023.183     23.673   3.000  8.67158E-01  1.01317E+00 -1.46010E-01
    9024.103     24.593   3.040  8.33925E-01  1.01170E+00 -1.77773E-01
    9025.036     25.526   3.080  8.11428E-01  1.01023E+00 -1.98801E-01
    9025.981     26.471   3.120  7.99301E-01  1.00876E+00 -2.09463E-01
    9026.938     27.428   3.160  7.95017E-01  1.00735E+00 -2.12335E-01
    9027.907     28.397   3.200  7.96043E-01  1.00595E+00 -2.09912E-01
    9028.889     29.378   3.240  8.00451E-01  1.00460E+00 -2.04144E-01
    9029.882     30.372   3.280  8.06833E-01  1.00328E+00 -1.96443E-01
    9030.888     31.378   3.320  8.14621E-01  1.00200E+00 -1.87381E-01
    9031.906     32.396   3.360  8.23989E-01  1.00079E+00 -1.76805E-01
    9032.936     33.426   3.400  8.35539E-01  9.99637E-01 -1.64098E-01
    9033.979     34.469   3.440  8.49683E-01  9.98553E-01 -1.48870E-01
    9035.033     35.523   3.480  8.66786E-01  9.97544E-01 -1.30758E-01
    9036.100     36.590   3.520  8.86569E-01  9.96589E-01 -1.10021E-01
    9037.179     37.669   3.560  9.08103E-01  9.95733E-01 -8.76300E-02
    9038.270     38.760   3.600  9.30217E-01  9.94933E-01 -6.47161E-02
    9039.374     39.863   3.640  9.52086E-01  9.94212E-01 -4.21256E-02
    9040.489     40.979   3.680  9.73054E-01  9.93568E-01 -2.05147E-02
    9041.617     42.107   3.720  9.92693E-01  9.93004E-01 -3.10684E-04
    9042.757     43.247   3.760  1.01113E+00  9.92519E-01  1.86114E-02
    9043.909     44.399   3.800  1.02900E+00  9.92112E-01  3.68915E-02
    9045.073     45.563   3.840  1.04700E+00  9.91763E-01  5.52386E-02
    9046.250     46.740   3.880  1.06530E+00  9.91514E-01  7.37851E-02
    9047.439     47.928   3.920  1.08281E+00  9.91342E-01  9.14681E-02
    9048.639     49.129   3.960  1.09797E+00  9.91225E-01  1.06742E-01
    9049.853     50.342   4.000  1.11008E+00  9.91185E-01  1.18891E-01
    9051.078     51.568   4.040  1.11947E+00  9.91218E-01  1.28249E-01
    9052.315     52.805   4.080  1.12658E+00  9.91304E-01  1.35274E-01
    9053.565     54.055   4.120  1.13113E+00  9.91462E-01  1.39667E-01
    9054.827     55.317   4.160  1.13219E+00  9.91692E-01  1.40496E-01
    9056.101     56.591   4.200  1.12840E+00  9.91970E-01  1.36427E-01
    9057.387     57.877   4.240  1.11901E+00  9.92291E-01  1.26722E-01
    9058.686     59.175   4.280  1.10469E+00  9.92659E-01  1.12030E-01
    9059.996     60.486   4.320  1.08724E+00  9.93091E-01  9.41445E-02
    9061.319     61.809   4.360  1.06864E+00  9.93565E-01  7.50751E-02
    9062.654     63.144   4.400  1.05049E+00  9.94079E-01  5.64137E-02
    9064.001     64.491   4.440  1.03383E+00  9.94608E-01  3.92216E-02
    9065.361     65.851   4.480  1.01928E+00  9.95193E-01  2.40839E-02
    9066.732     67.222   4.520  1.00709E+00  9.95791E-01  1.13027E-02
    9068.116     68.606   4.560  9.97331E-01  9.96398E-01  9.33642E-04
    9069.512     70.002   4.600  9.89913E-01  9.97034E-01 -7.12071E-03
    9070.920     71.410   4.640  9.84794E-01  9.97698E-01 -1.29034E-02
    9072.341     72.830   4.680  9.82056E-01  9.98345E-01 -1.62896E-02
    9073.773     74.263   4.720  9.81935E-01  9.99016E-01 -1.70801E-02
    9075.218     75.708   4.760  9.84747E-01  9.99687E-01 -1.49406E-02
    9076.675     77.165   4.800  9.90798E-01  1.00036E+00 -9.55988E-03
    9078.144     78.634   4.840  9.99757E-01  1.00102E+00 -1.26697E-03
    9079.625     80.115   4.880  1.01010E+00  1.00166E+00  8.44032E-03
    9081.119     81.609   4.920  1.01919E+00  1.00229E+00  1.69016E-02
    9082.625     83.114   4.960  1.02400E+00  1.00291E+00  2.10832E-02
    9084.142     84.632   5.000  1.02237E+00  1.00350E+00  1.88676E-02
    9085.673     86.162   5.040  1.01421E+00  1.00406E+00  1.01562E-02
    9087.215     87.705   5.080  1.00151E+00  1.00460E+00 -3.09193E-03
    9088.769     89.259   5.120  9.87059E-01  1.00510E+00 -1.80438E-02
    9090.336     90.826   5.160  9.73248E-01  1.00557E+00 -3.23215E-02
    9091.915     92.405   5.200  9.61649E-01  1.00602E+00 -4.43706E-02
    9093.506     93.996   5.240  9.53040E-01  1.00641E+00 -5.33664E-02
    9095.109     95.599   5.280  9.47643E-01  1.00675E+00 -5.91088E-02
    9096.725     97.214   5.320  9.45190E-01  1.00708E+00 -6.18877E-02
    9098.352     98.842   5.360  9.45318E-01  1.00734E+00 -6.20206E-02
    9099.992    100.482   5.400  9.47873E-01  1.00755E+00 -5.96808E-02
    9101.644    102.134   5.440  9.52498E-01  1.00773E+00 -5.52281E-02
    9103.308    103.798   5.480  9.58149E-01  1.00785E+00 -4.97051E-02
    9104.985    105.474   5.520  9.63299E-01  1.00791E+00 -4.46138E-02
    9106.673    107.163   5.560  9.66919E-01  1.00793E+00 -4.10092E-02
    9108.374    108.864   5.600  9.69040E-01  1.00792E+00 -3.88821E-02
    9110.087    110.577   5.640  9.70136E-01  1.00783E+00 -3.76906E-02
    9111.812    112.302   5.680  9.70511E-01  1.00771E+00 -3.71981E-02
    9113.549    114.039   5.720  9.70097E-01  1.00755E+00 -3.74517E-02
    9115.299    115.789   5.760  9.69449E-01  1.00732E+00 -3.78724E-02
    9117.061    117.551   5.800  9.70282E-01  1.00705E+00 -3.67685E-02
    9118.835    119.324   5.840  9.74636E-01  1.00674E+00 -3.21040E-02
    9120.621    121.111   5.880  9.83346E-01  1.00639E+00 -2.30459E-02
    9122.419    122.909   5.920  9.95011E-01  1.00601E+00 -1.09948E-02
    9124.230    124.719   5.960  1.00646E+00  1.00558E+00  8.79720E-04
    9126.052    126.542   6.000  1.01482E+00  1.00509E+00  9.72537E-03
