# # comment:                                                     FEFF 9.9.1  
# # Source:
# # Structure
# # Reduced
# # space
# # abc:
# # angles:113.526185
# # sites:
# # POT  SCF 100  7.0000   0, screened core-hole, AFOLP (folp(0)= 1.150)
# # Abs   Z=29 Rmt= 1.283 Rnm= 1.369 K  shell
# # Pot 1 Z=29 Rmt= 1.278 Rnm= 1.352
# # Pot 2 Z=34 Rmt= 1.106 Rnm= 1.334
# # Pot 3 Z= 8 Rmt= 0.952 Rnm= 1.082
# # Gam_ch=1.729E+00 H-L exch Vi= 0.000E+00 Vr= 0.000E+00
# # Mu=-4.793E+00eV kf=2.289E+00 Vint=-1.521E+01eV Rs_int= 1.584
# FMS rfms= 9.0000
# # PATH  Rmax=-1.000,  Keep_limit= 0.00, Heap_limit 0.00  Pwcrit= 2.50%
#  S02=0.950  Temp=   0.00  Debye_temp=   0.00  Global_sig2= 0.00000
#  Energy zero shift, vr, vi    0.00000E+00   0.00000E+00
#  Curved wave amplitude ratio filter   4.000%
#     file         sig2 tot  cw amp ratio   deg  nlegs   reff  inp sig2
#     0/   0 paths used
#  xsedge+ 50, used to normalize mu           2.4579E-04
#  -----------------------------------------------------------------------
#  omega    e    k    mu    mu0     chi     @#
    8983.262     -8.602  -1.000  5.32333E-02  5.83541E-02 -5.12085E-03
    8983.561     -8.304  -0.960  5.70422E-02  6.27480E-02 -5.70576E-03
    8983.848     -8.017  -0.920  6.12782E-02  6.76445E-02 -6.36629E-03
    8984.122     -7.743  -0.880  6.60057E-02  7.31190E-02 -7.11333E-03
    8984.384     -7.481  -0.840  7.12997E-02  7.92593E-02 -7.95959E-03
    8984.634     -7.231  -0.800  7.72473E-02  8.61672E-02 -8.91985E-03
    8984.872     -6.993  -0.760  8.39486E-02  9.39598E-02 -1.00112E-02
    8985.097     -6.768  -0.720  9.15165E-02  1.02770E-01 -1.12533E-02
    8985.311     -6.554  -0.680  1.00075E-01  1.12743E-01 -1.26678E-02
    8985.512     -6.353  -0.640  1.09756E-01  1.24034E-01 -1.42778E-02
    8985.701     -6.164  -0.600  1.20690E-01  1.36796E-01 -1.61059E-02
    8985.878     -5.987  -0.560  1.32987E-01  1.51158E-01 -1.81704E-02
    8986.042     -5.823  -0.520  1.46719E-01  1.67198E-01 -2.04793E-02
    8986.195     -5.670  -0.480  1.61881E-01  1.84903E-01 -2.30222E-02
    8986.335     -5.530  -0.440  1.78355E-01  2.04116E-01 -2.57608E-02
    8986.463     -5.402  -0.400  1.95877E-01  2.24499E-01 -2.86217E-02
    8986.579     -5.286  -0.360  2.14021E-01  2.45519E-01 -3.14976E-02
    8986.682     -5.183  -0.320  2.32225E-01  2.66484E-01 -3.42593E-02
    8986.774     -5.091  -0.280  2.49848E-01  2.86627E-01 -3.67794E-02
    8986.853     -5.012  -0.240  2.66255E-01  3.05213E-01 -3.89578E-02
    8986.920     -4.945  -0.200  2.80887E-01  3.21626E-01 -4.07390E-02
    8986.975     -4.890  -0.160  2.93310E-01  3.35422E-01 -4.21125E-02
    8987.018     -4.847  -0.120  3.03218E-01  3.46319E-01 -4.31002E-02
    8987.048     -4.817  -0.080  3.10421E-01  3.54163E-01 -4.37421E-02
    8987.072     -4.793   0.000  3.16274E-01  3.60461E-01 -4.41864E-02
    8987.127     -4.738   0.120  3.29084E-01  3.74666E-01 -4.55823E-02
    8987.170     -4.695   0.160  3.39171E-01  3.85679E-01 -4.65077E-02
    8987.225     -4.640   0.200  3.52167E-01  3.99702E-01 -4.75351E-02
    8987.292     -4.573   0.240  3.68018E-01  4.16566E-01 -4.85485E-02
    8987.371     -4.494   0.280  3.86434E-01  4.35845E-01 -4.94110E-02
    8987.463     -4.402   0.320  4.07005E-01  4.57052E-01 -5.00475E-02
    8987.566     -4.299   0.360  4.28987E-01  4.79518E-01 -5.05306E-02
    8987.682     -4.183   0.400  4.51291E-01  5.02510E-01 -5.12196E-02
    8987.810     -4.055   0.440  4.72613E-01  5.25442E-01 -5.28289E-02
    8987.950     -3.915   0.480  4.91439E-01  5.47764E-01 -5.63249E-02
    8988.103     -3.762   0.520  5.06641E-01  5.69210E-01 -6.25697E-02
    8988.267     -3.598   0.560  5.17807E-01  5.89577E-01 -7.17699E-02
    8988.444     -3.421   0.600  5.25651E-01  6.08868E-01 -8.32169E-02
    8988.633     -3.232   0.640  5.31593E-01  6.27111E-01 -9.55179E-02
    8988.834     -3.031   0.680  5.37166E-01  6.44443E-01 -1.07277E-01
    8989.047     -2.817   0.720  5.43355E-01  6.60933E-01 -1.17578E-01
    8989.273     -2.592   0.760  5.50704E-01  6.76733E-01 -1.26030E-01
    8989.511     -2.354   0.800  5.59102E-01  6.91922E-01 -1.32820E-01
    8989.761     -2.104   0.840  5.67539E-01  7.06605E-01 -1.39065E-01
    8990.023     -1.842   0.880  5.73944E-01  7.20849E-01 -1.46905E-01
    8990.297     -1.568   0.920  5.76006E-01  7.34691E-01 -1.58685E-01
    8990.584     -1.281   0.960  5.72194E-01  7.48189E-01 -1.75994E-01
    8990.882     -0.983   1.000  5.62419E-01  7.61349E-01 -1.98930E-01
    8991.193     -0.672   1.040  5.49702E-01  7.74231E-01 -2.24529E-01
    8991.516     -0.349   1.080  5.40306E-01  7.86803E-01 -2.46497E-01
    8991.852     -0.013   1.120  5.40206E-01  7.99106E-01 -2.58900E-01
    8992.199      0.334   1.160  5.50803E-01  8.11095E-01 -2.60292E-01
    8992.559      0.694   1.200  5.69298E-01  8.22803E-01 -2.53505E-01
    8992.931      1.066   1.240  5.93472E-01  8.34195E-01 -2.40723E-01
    8993.315      1.450   1.280  6.24233E-01  8.45256E-01 -2.21023E-01
    8993.711      1.846   1.320  6.63617E-01  8.56011E-01 -1.92394E-01
    8994.119      2.254   1.360  7.14714E-01  8.66419E-01 -1.51705E-01
    8994.540      2.675   1.400  7.77924E-01  8.76460E-01 -9.85359E-02
    8994.973      3.108   1.440  8.46363E-01  8.86133E-01 -3.97696E-02
    8995.418      3.553   1.480  9.11265E-01  8.95417E-01  1.58489E-02
    8995.875      4.010   1.520  9.68148E-01  9.04333E-01  6.38153E-02
    8996.344      4.479   1.560  1.01927E+00  9.12839E-01  1.06435E-01
    8996.826      4.961   1.600  1.06888E+00  9.20955E-01  1.47930E-01
    8997.320      5.455   1.640  1.11115E+00  9.28641E-01  1.82505E-01
    8997.826      5.961   1.680  1.14271E+00  9.35917E-01  2.06789E-01
    8998.344      6.479   1.720  1.17826E+00  9.42785E-01  2.35479E-01
    8998.874      7.009   1.760  1.22847E+00  9.49249E-01  2.79218E-01
    8999.417      7.552   1.800  1.28076E+00  9.55291E-01  3.25465E-01
    8999.971      8.107   1.840  1.32030E+00  9.60933E-01  3.59365E-01
    9000.538      8.673   1.880  1.34644E+00  9.66180E-01  3.80262E-01
    9001.118      9.253   1.920  1.35699E+00  9.71018E-01  3.85971E-01
    9001.709      9.844   1.960  1.34623E+00  9.75493E-01  3.70739E-01
    9002.312     10.447   2.000  1.31731E+00  9.79589E-01  3.37725E-01
    9002.928     11.063   2.040  1.27791E+00  9.83314E-01  2.94596E-01
    9003.556     11.691   2.080  1.23778E+00  9.86693E-01  2.51084E-01
    9004.196     12.331   2.120  1.20766E+00  9.89758E-01  2.17900E-01
    9004.848     12.983   2.160  1.18954E+00  9.92474E-01  1.97065E-01
    9005.513     13.648   2.200  1.17756E+00  9.94910E-01  1.82655E-01
    9006.189     14.324   2.240  1.16368E+00  9.97031E-01  1.66647E-01
    9006.878     15.013   2.280  1.14473E+00  9.98910E-01  1.45822E-01
    9007.579     15.714   2.320  1.12291E+00  1.00051E+00  1.22395E-01
    9008.292     16.428   2.360  1.09759E+00  1.00187E+00  9.57274E-02
    9009.018     17.153   2.400  1.06777E+00  1.00300E+00  6.47673E-02
    9009.756     17.891   2.440  1.03616E+00  1.00391E+00  3.22512E-02
    9010.505     18.640   2.480  1.00674E+00  1.00463E+00  2.11512E-03
    9011.267     19.402   2.520  9.84921E-01  1.00518E+00 -2.02547E-02
    9012.041     20.177   2.560  9.77145E-01  1.00556E+00 -2.84127E-02
    9012.828     20.963   2.600  9.84880E-01  1.00580E+00 -2.09203E-02
    9013.626     21.762   2.640  9.99597E-01  1.00589E+00 -6.29457E-03
    9014.437     22.572   2.680  1.00367E+00  1.00586E+00 -2.19048E-03
    9015.260     23.395   2.720  9.88001E-01  1.00573E+00 -1.77256E-02
    9016.095     24.230   2.760  9.65369E-01  1.00551E+00 -4.01365E-02
    9016.943     25.078   2.800  9.42676E-01  1.00518E+00 -6.25022E-02
    9017.802     25.937   2.840  9.22625E-01  1.00479E+00 -8.21683E-02
    9018.674     26.809   2.880  9.05993E-01  1.00433E+00 -9.83413E-02
    9019.558     27.693   2.920  8.92584E-01  1.00385E+00 -1.11265E-01
    9020.454     28.589   2.960  8.81909E-01  1.00330E+00 -1.21393E-01
    9021.362     29.497   3.000  8.73551E-01  1.00274E+00 -1.29185E-01
    9022.283     30.418   3.040  8.67027E-01  1.00214E+00 -1.35109E-01
    9023.215     31.351   3.080  8.62321E-01  1.00153E+00 -1.39204E-01
    9024.160     32.295   3.120  8.59633E-01  1.00089E+00 -1.41256E-01
    9025.117     33.252   3.160  8.58828E-01  1.00027E+00 -1.41445E-01
    9026.087     34.222   3.200  8.59852E-01  9.99658E-01 -1.39806E-01
    9027.068     35.203   3.240  8.62589E-01  9.99047E-01 -1.36458E-01
    9028.062     36.197   3.280  8.66685E-01  9.98465E-01 -1.31780E-01
    9029.068     37.203   3.320  8.72028E-01  9.97892E-01 -1.25864E-01
    9030.086     38.221   3.360  8.78901E-01  9.97351E-01 -1.18450E-01
    9031.116     39.251   3.400  8.87739E-01  9.96844E-01 -1.09105E-01
    9032.158     40.293   3.440  8.98808E-01  9.96374E-01 -9.75657E-02
    9033.213     41.348   3.480  9.12319E-01  9.95921E-01 -8.36015E-02
    9034.280     42.415   3.520  9.28233E-01  9.95526E-01 -6.72934E-02
    9035.359     43.494   3.560  9.46057E-01  9.95172E-01 -4.91152E-02
    9036.450     44.585   3.600  9.65083E-01  9.94836E-01 -2.97524E-02
    9037.553     45.688   3.640  9.84513E-01  9.94561E-01 -1.00475E-02
    9038.669     46.804   3.680  1.00340E+00  9.94330E-01  9.07503E-03
    9039.796     47.932   3.720  1.02102E+00  9.94139E-01  2.68829E-02
    9040.936     49.072   3.760  1.03708E+00  9.93991E-01  4.30843E-02
    9042.089     50.224   3.800  1.05154E+00  9.93906E-01  5.76341E-02
    9043.253     51.388   3.840  1.06446E+00  9.93842E-01  7.06189E-02
    9044.429     52.565   3.880  1.07599E+00  9.93841E-01  8.21454E-02
    9045.618     53.753   3.920  1.08596E+00  9.93881E-01  9.20795E-02
    9046.819     54.954   3.960  1.09391E+00  9.93939E-01  9.99663E-02
    9048.032     56.167   4.000  1.09934E+00  9.94059E-01  1.05277E-01
    9049.257     57.393   4.040  1.10173E+00  9.94219E-01  1.07515E-01
    9050.495     58.630   4.080  1.10081E+00  9.94419E-01  1.06391E-01
    9051.745     59.880   4.120  1.09664E+00  9.94653E-01  1.01990E-01
    9053.006     61.142   4.160  1.08976E+00  9.94902E-01  9.48551E-02
    9054.281     62.416   4.200  1.08081E+00  9.95187E-01  8.56207E-02
    9055.567     63.702   4.240  1.07038E+00  9.95505E-01  7.48731E-02
    9056.865     65.000   4.280  1.05903E+00  9.95859E-01  6.31744E-02
    9058.176     66.311   4.320  1.04733E+00  9.96223E-01  5.11060E-02
    9059.499     67.634   4.360  1.03595E+00  9.96618E-01  3.93294E-02
    9060.834     68.969   4.400  1.02555E+00  9.97042E-01  2.85084E-02
    9062.181     70.316   4.440  1.01657E+00  9.97451E-01  1.91239E-02
    9063.540     71.675   4.480  1.00918E+00  9.97886E-01  1.12976E-02
    9064.912     73.047   4.520  1.00325E+00  9.98347E-01  4.90163E-03
    9066.296     74.431   4.560  9.98475E-01  9.98787E-01 -3.11701E-04
    9067.692     75.827   4.600  9.94669E-01  9.99227E-01 -4.55860E-03
    9069.100     77.235   4.640  9.91753E-01  9.99689E-01 -7.93637E-03
    9070.520     78.655   4.680  9.89613E-01  1.00013E+00 -1.05156E-02
    9071.953     80.088   4.720  9.88124E-01  1.00059E+00 -1.24632E-02
    9073.397     81.533   4.760  9.87000E-01  1.00102E+00 -1.40206E-02
    9074.854     82.990   4.800  9.86010E-01  1.00145E+00 -1.54383E-02
    9076.324     84.459   4.840  9.84984E-01  1.00187E+00 -1.68831E-02
    9077.805     85.940   4.880  9.83955E-01  1.00226E+00 -1.83013E-02
    9079.298     87.433   4.920  9.83210E-01  1.00264E+00 -1.94255E-02
    9080.804     88.939   4.960  9.83041E-01  1.00298E+00 -1.99402E-02
    9082.322     90.457   5.000  9.83576E-01  1.00329E+00 -1.97191E-02
    9083.852     91.987   5.040  9.84635E-01  1.00362E+00 -1.89827E-02
    9085.394     93.529   5.080  9.85675E-01  1.00389E+00 -1.82107E-02
    9086.949     95.084   5.120  9.86168E-01  1.00414E+00 -1.79718E-02
    9088.515     96.651   5.160  9.85556E-01  1.00436E+00 -1.87998E-02
    9090.094     98.229   5.200  9.83492E-01  1.00453E+00 -2.10426E-02
    9091.685     99.821   5.240  9.79875E-01  1.00468E+00 -2.48012E-02
    9093.289    101.424   5.280  9.74973E-01  1.00480E+00 -2.98298E-02
    9094.904    103.039   5.320  9.69366E-01  1.00489E+00 -3.55255E-02
    9096.532    104.667   5.360  9.63892E-01  1.00494E+00 -4.10491E-02
    9098.172    106.307   5.400  9.59314E-01  1.00495E+00 -4.56361E-02
    9099.824    107.959   5.440  9.56099E-01  1.00492E+00 -4.88218E-02
    9101.488    109.623   5.480  9.54416E-01  1.00485E+00 -5.04336E-02
    9103.164    111.299   5.520  9.54363E-01  1.00474E+00 -5.03786E-02
    9104.853    112.988   5.560  9.56140E-01  1.00462E+00 -4.84773E-02
    9106.553    114.689   5.600  9.60017E-01  1.00443E+00 -4.44139E-02
    9108.266    116.402   5.640  9.66367E-01  1.00423E+00 -3.78610E-02
    9109.992    118.127   5.680  9.75221E-01  1.00396E+00 -2.87428E-02
    9111.729    119.864   5.720  9.86199E-01  1.00368E+00 -1.74856E-02
    9113.479    121.614   5.760  9.98371E-01  1.00337E+00 -4.99951E-03
    9115.240    123.375   5.800  1.01055E+00  1.00305E+00  7.49915E-03
    9117.014    125.149   5.840  1.02137E+00  1.00266E+00  1.87104E-02
    9118.800    126.935   5.880  1.02972E+00  1.00227E+00  2.74534E-02
    9120.599    128.734   5.920  1.03478E+00  1.00185E+00  3.29275E-02
    9122.409    130.544   5.960  1.03636E+00  1.00142E+00  3.49373E-02
    9124.232    132.367   6.000  1.03476E+00  1.00092E+00  3.38404E-02
