# # comment:                                                     FEFF 9.9.1  
# # Source:
# # Structure
# # Reduced
# # space
# # abc:
# # angles:
# # sites:
# # POT  SCF 100  7.0000   0, screened core-hole, AFOLP (folp(0)= 1.150)
# # Abs   Z=29 Rmt= 1.237 Rnm= 1.308 K  shell
# # Pot 1 Z=27 Rmt= 1.219 Rnm= 1.313
# # Pot 2 Z=29 Rmt= 1.237 Rnm= 1.307
# # Pot 3 Z= 8 Rmt= 0.996 Rnm= 1.067
# # Gam_ch=1.729E+00 H-L exch Vi= 0.000E+00 Vr= 0.000E+00
# # Mu=-1.128E+01eV kf=2.300E+00 Vint=-1.975E+01eV Rs_int= 1.577
# FMS rfms= 9.0000
# # PATH  Rmax=-1.000,  Keep_limit= 0.00, Heap_limit 0.00  Pwcrit= 2.50%
#  S02=0.950  Temp=   0.00  Debye_temp=   0.00  Global_sig2= 0.00000
#  Energy zero shift, vr, vi    0.00000E+00   0.00000E+00
#  Curved wave amplitude ratio filter   4.000%
#     file         sig2 tot  cw amp ratio   deg  nlegs   reff  inp sig2
#     0/   0 paths used
#  xsedge+ 50, used to normalize mu           2.5337E-04
#  -----------------------------------------------------------------------
#  omega    e    k    mu    mu0     chi     @#
    8984.354    -15.086  -1.000  2.84767E-02  4.25212E-02 -1.40444E-02
    8984.652    -14.788  -0.960  2.97690E-02  4.53782E-02 -1.56092E-02
    8984.939    -14.501  -0.920  3.11506E-02  4.85379E-02 -1.73873E-02
    8985.213    -14.227  -0.880  3.26313E-02  5.20441E-02 -1.94129E-02
    8985.475    -13.965  -0.840  3.42216E-02  5.59475E-02 -2.17259E-02
    8985.725    -13.715  -0.800  3.59338E-02  6.03069E-02 -2.43731E-02
    8985.963    -13.477  -0.760  3.77812E-02  6.51896E-02 -2.74084E-02
    8986.188    -13.252  -0.720  3.97780E-02  7.06714E-02 -3.08934E-02
    8986.402    -13.038  -0.680  4.19393E-02  7.68361E-02 -3.48968E-02
    8986.603    -12.837  -0.640  4.42800E-02  8.37716E-02 -3.94916E-02
    8986.792    -12.648  -0.600  4.68136E-02  9.15642E-02 -4.47506E-02
    8986.969    -12.471  -0.560  4.95502E-02  1.00287E-01 -5.07369E-02
    8987.133    -12.307  -0.520  5.24940E-02  1.09983E-01 -5.74890E-02
    8987.286    -12.154  -0.480  5.56397E-02  1.20641E-01 -6.50010E-02
    8987.426    -12.014  -0.440  5.89682E-02  1.32167E-01 -7.31989E-02
    8987.554    -11.886  -0.400  6.24431E-02  1.44364E-01 -8.19207E-02
    8987.670    -11.770  -0.360  6.60079E-02  1.56920E-01 -9.09122E-02
    8987.773    -11.667  -0.320  6.95872E-02  1.69433E-01 -9.98456E-02
    8987.865    -11.575  -0.280  7.30892E-02  1.81453E-01 -1.08364E-01
    8987.944    -11.496  -0.240  7.64127E-02  1.92550E-01 -1.16138E-01
    8988.011    -11.429  -0.200  7.94531E-02  2.02361E-01 -1.22908E-01
    8988.066    -11.374  -0.160  8.21094E-02  2.10617E-01 -1.28508E-01
    8988.109    -11.331  -0.120  8.42905E-02  2.17148E-01 -1.32858E-01
    8988.139    -11.301  -0.080  8.59238E-02  2.21856E-01 -1.35932E-01
    8988.164    -11.276   0.000  8.73275E-02  2.25640E-01 -1.38313E-01
    8988.218    -11.222   0.120  9.06874E-02  2.34180E-01 -1.43493E-01
    8988.261    -11.179   0.160  9.32641E-02  2.40822E-01 -1.47558E-01
    8988.316    -11.124   0.200  9.66564E-02  2.49314E-01 -1.52657E-01
    8988.383    -11.057   0.240  1.00945E-01  2.59547E-01 -1.58602E-01
    8988.462    -10.978   0.280  1.06232E-01  2.71331E-01 -1.65100E-01
    8988.554    -10.886   0.320  1.12617E-01  2.84381E-01 -1.71764E-01
    8988.657    -10.783   0.360  1.20179E-01  2.98345E-01 -1.78166E-01
    8988.773    -10.667   0.400  1.28890E-01  3.12839E-01 -1.83949E-01
    8988.901    -10.539   0.440  1.38501E-01  3.27541E-01 -1.89040E-01
    8989.041    -10.399   0.480  1.48305E-01  3.42170E-01 -1.93865E-01
    8989.194    -10.246   0.520  1.57068E-01  3.56536E-01 -1.99468E-01
    8989.358    -10.082   0.560  1.63153E-01  3.70607E-01 -2.07454E-01
    8989.535     -9.905   0.600  1.64947E-01  3.84341E-01 -2.19393E-01
    8989.724     -9.716   0.640  1.61969E-01  3.97777E-01 -2.35809E-01
    8989.925     -9.515   0.680  1.55537E-01  4.10986E-01 -2.55449E-01
    8990.139     -9.301   0.720  1.48263E-01  4.24041E-01 -2.75778E-01
    8990.364     -9.076   0.760  1.42719E-01  4.37016E-01 -2.94297E-01
    8990.602     -8.838   0.800  1.40494E-01  4.49944E-01 -3.09450E-01
    8990.852     -8.588   0.840  1.42332E-01  4.62902E-01 -3.20570E-01
    8991.114     -8.326   0.880  1.48572E-01  4.75921E-01 -3.27349E-01
    8991.388     -8.052   0.920  1.59516E-01  4.89042E-01 -3.29527E-01
    8991.675     -7.765   0.960  1.75947E-01  5.02279E-01 -3.26332E-01
    8991.974     -7.467   1.000  1.99683E-01  5.15658E-01 -3.15975E-01
    8992.284     -7.156   1.040  2.33894E-01  5.29176E-01 -2.95283E-01
    8992.608     -6.833   1.080  2.82235E-01  5.42830E-01 -2.60595E-01
    8992.943     -6.497   1.120  3.45979E-01  5.56608E-01 -2.10629E-01
    8993.290     -6.150   1.160  4.19290E-01  5.70533E-01 -1.51243E-01
    8993.650     -5.790   1.200  4.82431E-01  5.84588E-01 -1.02157E-01
    8994.022     -5.418   1.240  5.02358E-01  5.98733E-01 -9.63744E-02
    8994.406     -5.034   1.280  4.67911E-01  6.12942E-01 -1.45031E-01
    8994.802     -4.638   1.320  4.17800E-01  6.27230E-01 -2.09430E-01
    8995.211     -4.230   1.360  3.90986E-01  6.41551E-01 -2.50564E-01
    8995.631     -3.809   1.400  3.92711E-01  6.55893E-01 -2.63181E-01
    8996.064     -3.376   1.440  4.14928E-01  6.70207E-01 -2.55280E-01
    8996.509     -2.931   1.480  4.52503E-01  6.84484E-01 -2.31981E-01
    8996.966     -2.474   1.520  4.99636E-01  6.98691E-01 -1.99055E-01
    8997.436     -2.005   1.560  5.47347E-01  7.12795E-01 -1.65448E-01
    8997.917     -1.523   1.600  5.97877E-01  7.26784E-01 -1.28907E-01
    8998.411     -1.029   1.640  6.60831E-01  7.40606E-01 -7.97753E-02
    8998.917     -0.523   1.680  7.15987E-01  7.54249E-01 -3.82617E-02
    8999.435     -0.005   1.720  7.24337E-01  7.67699E-01 -4.33619E-02
    8999.965      0.525   1.760  6.94179E-01  7.80884E-01 -8.67053E-02
    9000.508      1.068   1.800  6.68684E-01  7.93813E-01 -1.25129E-01
    9001.063      1.623   1.840  6.75965E-01  8.06472E-01 -1.30507E-01
    9001.630      2.190   1.880  7.25610E-01  8.18793E-01 -9.31833E-02
    9002.209      2.769   1.920  8.23783E-01  8.30806E-01 -7.02354E-03
    9002.800      3.360   1.960  9.76848E-01  8.42461E-01  1.34388E-01
    9003.403      3.963   2.000  1.17320E+00  8.53748E-01  3.19452E-01
    9004.019      4.579   2.040  1.34837E+00  8.64639E-01  4.83730E-01
    9004.647      5.207   2.080  1.39190E+00  8.75128E-01  5.16775E-01
    9005.287      5.847   2.120  1.29359E+00  8.85189E-01  4.08403E-01
    9005.939      6.499   2.160  1.18904E+00  8.94857E-01  2.94184E-01
    9006.604      7.164   2.200  1.14967E+00  9.04068E-01  2.45603E-01
    9007.281      7.840   2.240  1.15072E+00  9.12839E-01  2.37878E-01
    9007.969      8.529   2.280  1.17132E+00  9.21167E-01  2.50153E-01
    9008.670      9.230   2.320  1.22707E+00  9.29051E-01  2.98024E-01
    9009.384      9.944   2.360  1.29166E+00  9.36491E-01  3.55168E-01
    9010.109     10.669   2.400  1.30281E+00  9.43466E-01  3.59348E-01
    9010.847     11.407   2.440  1.25971E+00  9.49998E-01  3.09709E-01
    9011.596     12.156   2.480  1.19339E+00  9.56089E-01  2.37303E-01
    9012.358     12.918   2.520  1.09779E+00  9.61742E-01  1.36045E-01
    9013.133     13.693   2.560  9.82737E-01  9.66959E-01  1.57780E-02
    9013.919     14.479   2.600  8.96017E-01  9.71747E-01 -7.57303E-02
    9014.718     15.278   2.640  8.66472E-01  9.76130E-01 -1.09658E-01
    9015.528     16.088   2.680  8.77793E-01  9.80111E-01 -1.02318E-01
    9016.351     16.911   2.720  8.99368E-01  9.83700E-01 -8.43321E-02
    9017.186     17.746   2.760  9.10588E-01  9.86922E-01 -7.63337E-02
    9018.034     18.594   2.800  9.22666E-01  9.89782E-01 -6.71163E-02
    9018.893     19.453   2.840  9.37163E-01  9.92289E-01 -5.51254E-02
    9019.765     20.325   2.880  9.48570E-01  9.94447E-01 -4.58763E-02
    9020.649     21.209   2.920  9.54471E-01  9.96285E-01 -4.18135E-02
    9021.545     22.105   2.960  9.56724E-01  9.97832E-01 -4.11078E-02
    9022.453     23.013   3.000  9.57911E-01  9.99074E-01 -4.11627E-02
    9023.374     23.934   3.040  9.59039E-01  1.00006E+00 -4.10210E-02
    9024.307     24.867   3.080  9.60158E-01  1.00078E+00 -4.06198E-02
    9025.251     25.811   3.120  9.60348E-01  1.00125E+00 -4.09071E-02
    9026.209     26.768   3.160  9.57975E-01  1.00150E+00 -4.35233E-02
    9027.178     27.738   3.200  9.51908E-01  1.00154E+00 -4.96305E-02
    9028.159     28.719   3.240  9.42707E-01  1.00140E+00 -5.86941E-02
    9029.153     29.713   3.280  9.32133E-01  1.00105E+00 -6.89205E-02
    9030.159     30.719   3.320  9.22218E-01  1.00056E+00 -7.83466E-02
    9031.177     31.737   3.360  9.14178E-01  9.99920E-01 -8.57427E-02
    9032.207     32.767   3.400  9.08303E-01  9.99129E-01 -9.08263E-02
    9033.249     33.809   3.440  9.04257E-01  9.98236E-01 -9.39787E-02
    9034.304     34.864   3.480  9.01466E-01  9.97228E-01 -9.57620E-02
    9035.371     35.931   3.520  8.99586E-01  9.96112E-01 -9.65261E-02
    9036.450     37.010   3.560  8.98336E-01  9.94936E-01 -9.66002E-02
    9037.541     38.101   3.600  8.97604E-01  9.93663E-01 -9.60598E-02
    9038.644     39.204   3.640  8.97692E-01  9.92359E-01 -9.46671E-02
    9039.760     40.320   3.680  8.99007E-01  9.90991E-01 -9.19839E-02
    9040.888     41.448   3.720  9.01935E-01  9.89583E-01 -8.76477E-02
    9042.028     42.588   3.760  9.06684E-01  9.88138E-01 -8.14537E-02
    9043.180     43.740   3.800  9.13205E-01  9.86683E-01 -7.34780E-02
    9044.344     44.904   3.840  9.21216E-01  9.85221E-01 -6.40052E-02
    9045.521     46.081   3.880  9.30397E-01  9.83738E-01 -5.33412E-02
    9046.709     47.269   3.920  9.40669E-01  9.82278E-01 -4.16094E-02
    9047.910     48.470   3.960  9.51875E-01  9.80844E-01 -2.89690E-02
    9049.123     49.683   4.000  9.63981E-01  9.79397E-01 -1.54155E-02
    9050.349     50.909   4.040  9.77411E-01  9.78002E-01 -5.90632E-04
    9051.586     52.146   4.080  9.92414E-01  9.76622E-01  1.57923E-02
    9052.836     53.396   4.120  1.00874E+00  9.75280E-01  3.34579E-02
    9054.098     54.658   4.160  1.02549E+00  9.73998E-01  5.14967E-02
    9055.372     55.932   4.200  1.04127E+00  9.72738E-01  6.85277E-02
    9056.658     57.218   4.240  1.05459E+00  9.71540E-01  8.30481E-02
    9057.956     58.516   4.280  1.06459E+00  9.70389E-01  9.41995E-02
    9059.267     59.827   4.320  1.07148E+00  9.69307E-01  1.02178E-01
    9060.590     61.150   4.360  1.07632E+00  9.68272E-01  1.08047E-01
    9061.925     62.485   4.400  1.08034E+00  9.67309E-01  1.13033E-01
    9063.272     63.832   4.440  1.08451E+00  9.66416E-01  1.18093E-01
    9064.631     65.191   4.480  1.08974E+00  9.65572E-01  1.24168E-01
    9066.003     66.563   4.520  1.09662E+00  9.64779E-01  1.31838E-01
    9067.387     67.947   4.560  1.10413E+00  9.64079E-01  1.40048E-01
    9068.783     69.343   4.600  1.10848E+00  9.63432E-01  1.45048E-01
    9070.191     70.751   4.640  1.10421E+00  9.62859E-01  1.41352E-01
    9071.611     72.171   4.680  1.08710E+00  9.62358E-01  1.24746E-01
    9073.044     73.604   4.720  1.05716E+00  9.61909E-01  9.52524E-02
    9074.489     75.049   4.760  1.01882E+00  9.61531E-01  5.72885E-02
    9075.946     76.506   4.800  9.78258E-01  9.61226E-01  1.70321E-02
    9077.415     77.975   4.840  9.40428E-01  9.60971E-01 -2.05433E-02
    9078.896     79.456   4.880  9.08228E-01  9.60787E-01 -5.25595E-02
    9080.390     80.950   4.920  8.82867E-01  9.60674E-01 -7.78067E-02
    9081.895     82.455   4.960  8.64538E-01  9.60609E-01 -9.60708E-02
    9083.413     83.973   5.000  8.52868E-01  9.60589E-01 -1.07721E-01
    9084.943     85.503   5.040  8.47103E-01  9.60637E-01 -1.13534E-01
    9086.486     87.045   5.080  8.46478E-01  9.60731E-01 -1.14253E-01
    9088.040     88.600   5.120  8.50674E-01  9.60890E-01 -1.10216E-01
    9089.607     90.167   5.160  8.60005E-01  9.61091E-01 -1.01086E-01
    9091.186     91.745   5.200  8.75184E-01  9.61310E-01 -8.61266E-02
    9092.777     93.337   5.240  8.96428E-01  9.61590E-01 -6.51619E-02
    9094.380     94.940   5.280  9.22273E-01  9.61910E-01 -3.96373E-02
    9095.995     96.555   5.320  9.49246E-01  9.62266E-01 -1.30195E-02
    9097.623     98.183   5.360  9.72997E-01  9.62633E-01  1.03642E-02
    9099.263     99.823   5.400  9.90643E-01  9.63031E-01  2.76119E-02
    9100.915    101.475   5.440  1.00197E+00  9.63439E-01  3.85290E-02
    9102.579    103.139   5.480  1.00841E+00  9.63878E-01  4.45341E-02
    9104.255    104.815   5.520  1.01114E+00  9.64347E-01  4.67895E-02
    9105.944    106.504   5.560  1.01036E+00  9.64818E-01  4.55461E-02
    9107.645    108.205   5.600  1.00598E+00  9.65269E-01  4.07104E-02
    9109.358    109.918   5.640  9.98254E-01  9.65743E-01  3.25107E-02
    9111.083    111.643   5.680  9.87727E-01  9.66217E-01  2.15103E-02
    9112.820    113.380   5.720  9.75095E-01  9.66690E-01  8.40494E-03
    9114.570    115.130   5.760  9.61331E-01  9.67158E-01 -5.82688E-03
    9116.331    116.891   5.800  9.47760E-01  9.67597E-01 -1.98365E-02
    9118.105    118.665   5.840  9.35812E-01  9.68026E-01 -3.22137E-02
    9119.891    120.451   5.880  9.26293E-01  9.68421E-01 -4.21277E-02
    9121.690    122.250   5.920  9.19093E-01  9.68804E-01 -4.97108E-02
    9123.500    124.060   5.960  9.13420E-01  9.69144E-01 -5.57244E-02
    9125.323    125.883   6.000  9.08709E-01  9.69440E-01 -6.07303E-02
