# # comment:                                                     FEFF 9.9.1  
# # Source:
# # Structure
# # Reduced
# # space
# # abc:
# # angles:
# # sites:
# # POT  SCF 100  7.0000   0, screened core-hole, AFOLP (folp(0)= 1.150)
# # Abs   Z=29 Rmt= 1.230 Rnm= 1.312 K  shell
# # Pot 1 Z=68 Rmt= 1.550 Rnm= 1.642
# # Pot 2 Z=29 Rmt= 1.230 Rnm= 1.312
# # Pot 3 Z= 8 Rmt= 1.057 Rnm= 1.111
# # Gam_ch=1.729E+00 H-L exch Vi= 0.000E+00 Vr= 0.000E+00
# # Mu=-7.506E+00eV kf=2.125E+00 Vint=-1.703E+01eV Rs_int= 1.707
# FMS rfms= 9.0000
# # PATH  Rmax=-1.000,  Keep_limit= 0.00, Heap_limit 0.00  Pwcrit= 2.50%
#  S02=0.950  Temp=   0.00  Debye_temp=   0.00  Global_sig2= 0.00000
#  Energy zero shift, vr, vi    0.00000E+00   0.00000E+00
#  Curved wave amplitude ratio filter   4.000%
#     file         sig2 tot  cw amp ratio   deg  nlegs   reff  inp sig2
#     0/   0 paths used
#  xsedge+ 50, used to normalize mu           2.4538E-04
#  -----------------------------------------------------------------------
#  omega    e    k    mu    mu0     chi     @#
    8984.220    -11.316  -1.000  4.41560E-02  5.70463E-02 -1.28903E-02
    8984.519    -11.017  -0.960  4.70448E-02  6.12837E-02 -1.42389E-02
    8984.805    -10.730  -0.920  5.02605E-02  6.60000E-02 -1.57395E-02
    8985.080    -10.456  -0.880  5.38574E-02  7.12665E-02 -1.74091E-02
    8985.342    -10.194  -0.840  5.79000E-02  7.71661E-02 -1.92661E-02
    8985.592     -9.944  -0.800  6.24646E-02  8.37949E-02 -2.13303E-02
    8985.830     -9.706  -0.760  6.76403E-02  9.12633E-02 -2.36230E-02
    8986.055     -9.481  -0.720  7.35300E-02  9.96963E-02 -2.61663E-02
    8986.268     -9.267  -0.680  8.02490E-02  1.09231E-01 -2.89823E-02
    8986.470     -9.066  -0.640  8.79219E-02  1.20014E-01 -3.20920E-02
    8986.659     -8.877  -0.600  9.66744E-02  1.32187E-01 -3.55125E-02
    8986.835     -8.701  -0.560  1.06619E-01  1.45873E-01 -3.92533E-02
    8987.000     -8.536  -0.520  1.17834E-01  1.61144E-01 -4.33104E-02
    8987.152     -8.384  -0.480  1.30328E-01  1.77987E-01 -4.76590E-02
    8987.293     -8.243  -0.440  1.44007E-01  1.96252E-01 -5.22452E-02
    8987.421     -8.115  -0.400  1.58640E-01  2.15620E-01 -5.69804E-02
    8987.536     -7.999  -0.360  1.73846E-01  2.35588E-01 -6.17427E-02
    8987.640     -7.896  -0.320  1.89115E-01  2.55503E-01 -6.63880E-02
    8987.732     -7.804  -0.280  2.03868E-01  2.74638E-01 -7.07698E-02
    8987.811     -7.725  -0.240  2.17538E-01  2.92297E-01 -7.47591E-02
    8987.878     -7.658  -0.200  2.29641E-01  3.07898E-01 -7.82568E-02
    8987.933     -7.603  -0.160  2.39822E-01  3.21016E-01 -8.11940E-02
    8987.975     -7.561  -0.120  2.47855E-01  3.31381E-01 -8.35253E-02
    8988.006     -7.530  -0.080  2.53622E-01  3.38845E-01 -8.52228E-02
    8988.030     -7.506   0.000  2.58205E-01  3.44839E-01 -8.66333E-02
    8988.085     -7.451   0.120  2.68372E-01  3.58360E-01 -8.99876E-02
    8988.128     -7.408   0.160  2.76308E-01  3.68858E-01 -9.25495E-02
    8988.183     -7.353   0.200  2.86325E-01  3.82246E-01 -9.59208E-02
    8988.250     -7.286   0.240  2.98121E-01  3.98333E-01 -1.00213E-01
    8988.329     -7.207   0.280  3.11098E-01  4.16765E-01 -1.05667E-01
    8988.420     -7.116   0.320  3.24411E-01  4.37097E-01 -1.12685E-01
    8988.524     -7.012   0.360  3.36730E-01  4.58664E-01 -1.21935E-01
    8988.640     -6.896   0.400  3.46535E-01  4.80849E-01 -1.34314E-01
    8988.768     -6.768   0.440  3.52166E-01  5.03047E-01 -1.50881E-01
    8988.908     -6.628   0.480  3.52332E-01  5.24807E-01 -1.72474E-01
    8989.060     -6.475   0.520  3.46526E-01  5.45820E-01 -1.99294E-01
    8989.225     -6.311   0.560  3.35464E-01  5.65953E-01 -2.30490E-01
    8989.402     -6.134   0.600  3.21049E-01  5.85153E-01 -2.64104E-01
    8989.591     -5.945   0.640  3.06164E-01  6.03481E-01 -2.97318E-01
    8989.792     -5.744   0.680  2.93899E-01  6.21043E-01 -3.27144E-01
    8990.005     -5.531   0.720  2.86674E-01  6.37898E-01 -3.51225E-01
    8990.231     -5.305   0.760  2.85742E-01  6.54206E-01 -3.68464E-01
    8990.469     -5.067   0.800  2.90653E-01  6.70014E-01 -3.79361E-01
    8990.719     -4.817   0.840  2.99175E-01  6.85398E-01 -3.86223E-01
    8990.981     -4.555   0.880  3.08080E-01  7.00435E-01 -3.92355E-01
    8991.255     -4.281   0.920  3.15027E-01  7.15172E-01 -4.00145E-01
    8991.542     -3.994   0.960  3.19924E-01  7.29619E-01 -4.09694E-01
    8991.840     -3.696   1.000  3.24114E-01  7.43796E-01 -4.19682E-01
    8992.151     -3.385   1.040  3.29523E-01  7.57734E-01 -4.28211E-01
    8992.474     -3.062   1.080  3.38555E-01  7.71415E-01 -4.32861E-01
    8992.809     -2.726   1.120  3.54433E-01  7.84855E-01 -4.30422E-01
    8993.157     -2.379   1.160  3.81132E-01  7.98002E-01 -4.16870E-01
    8993.517     -2.019   1.200  4.20330E-01  8.10883E-01 -3.90553E-01
    8993.888     -1.647   1.240  4.66835E-01  8.23439E-01 -3.56605E-01
    8994.273     -1.263   1.280  5.10454E-01  8.35714E-01 -3.25260E-01
    8994.669     -0.867   1.320  5.45909E-01  8.47620E-01 -3.01711E-01
    8995.077     -0.459   1.360  5.77423E-01  8.59178E-01 -2.81755E-01
    8995.498     -0.038   1.400  6.09250E-01  8.70363E-01 -2.61114E-01
    8995.931      0.395   1.440  6.46624E-01  8.81152E-01 -2.34528E-01
    8996.376      0.840   1.480  6.97930E-01  8.91519E-01 -1.93589E-01
    8996.833      1.297   1.520  7.70145E-01  9.01482E-01 -1.31337E-01
    8997.302      1.766   1.560  8.66480E-01  9.10976E-01 -4.44956E-02
    8997.784      2.248   1.600  9.81645E-01  9.20039E-01  6.16061E-02
    8998.278      2.742   1.640  1.10927E+00  9.28650E-01  1.80618E-01
    8998.784      3.248   1.680  1.24734E+00  9.36787E-01  3.10550E-01
    8999.302      3.766   1.720  1.38449E+00  9.44451E-01  4.40043E-01
    8999.832      4.296   1.760  1.51001E+00  9.51663E-01  5.58348E-01
    9000.375      4.839   1.800  1.61990E+00  9.58406E-01  6.61495E-01
    9000.929      5.393   1.840  1.68756E+00  9.64682E-01  7.22881E-01
    9001.496      5.960   1.880  1.70194E+00  9.70495E-01  7.31449E-01
    9002.075      6.539   1.920  1.67779E+00  9.75870E-01  7.01921E-01
    9002.667      7.131   1.960  1.59338E+00  9.80794E-01  6.12587E-01
    9003.270      7.734   2.000  1.46095E+00  9.85312E-01  4.75641E-01
    9003.886      8.350   2.040  1.33387E+00  9.89392E-01  3.44482E-01
    9004.514      8.978   2.080  1.24231E+00  9.93082E-01  2.49232E-01
    9005.154      9.618   2.120  1.19050E+00  9.96389E-01  1.94112E-01
    9005.806     10.270   2.160  1.15261E+00  9.99324E-01  1.53287E-01
    9006.471     10.935   2.200  1.09354E+00  1.00191E+00  9.16264E-02
    9007.147     11.611   2.240  1.02227E+00  1.00415E+00  1.81278E-02
    9007.836     12.300   2.280  9.59011E-01  1.00608E+00 -4.70645E-02
    9008.537     13.001   2.320  9.09870E-01  1.00771E+00 -9.78377E-02
    9009.250     13.714   2.360  8.80850E-01  1.00905E+00 -1.28204E-01
    9009.976     14.440   2.400  8.78517E-01  1.01014E+00 -1.31627E-01
    9010.713     15.177   2.440  9.04683E-01  1.01099E+00 -1.06304E-01
    9011.463     15.927   2.480  9.49049E-01  1.01161E+00 -6.25635E-02
    9012.225     16.689   2.520  9.92745E-01  1.01203E+00 -1.92830E-02
    9012.999     17.463   2.560  1.02787E+00  1.01225E+00  1.56277E-02
    9013.786     18.250   2.600  1.05038E+00  1.01229E+00  3.80836E-02
    9014.584     19.048   2.640  1.06320E+00  1.01220E+00  5.10054E-02
    9015.395     19.859   2.680  1.06651E+00  1.01195E+00  5.45598E-02
    9016.218     20.682   2.720  1.06184E+00  1.01157E+00  5.02627E-02
    9017.053     21.517   2.760  1.05078E+00  1.01108E+00  3.97027E-02
    9017.900     22.365   2.800  1.03490E+00  1.01049E+00  2.44027E-02
    9018.760     23.224   2.840  1.01632E+00  1.00984E+00  6.47816E-03
    9019.632     24.096   2.880  9.96317E-01  1.00910E+00 -1.27811E-02
    9020.516     24.980   2.920  9.74659E-01  1.00830E+00 -3.36408E-02
    9021.412     25.876   2.960  9.51196E-01  1.00746E+00 -5.62616E-02
    9022.320     26.784   3.000  9.26963E-01  1.00660E+00 -7.96336E-02
    9023.241     27.705   3.040  9.03722E-01  1.00570E+00 -1.01979E-01
    9024.173     28.637   3.080  8.83724E-01  1.00477E+00 -1.21051E-01
    9025.118     29.582   3.120  8.68434E-01  1.00384E+00 -1.35409E-01
    9026.075     30.539   3.160  8.57709E-01  1.00293E+00 -1.45223E-01
    9027.044     31.509   3.200  8.50660E-01  1.00202E+00 -1.51365E-01
    9028.026     32.490   3.240  8.46393E-01  1.00112E+00 -1.54729E-01
    9029.020     33.484   3.280  8.44384E-01  1.00023E+00 -1.55844E-01
    9030.025     34.489   3.320  8.44836E-01  9.99390E-01 -1.54554E-01
    9031.043     35.507   3.360  8.48401E-01  9.98565E-01 -1.50165E-01
    9032.074     36.538   3.400  8.55972E-01  9.97779E-01 -1.41807E-01
    9033.116     37.580   3.440  8.67984E-01  9.97055E-01 -1.29071E-01
    9034.171     38.635   3.480  8.84682E-01  9.96351E-01 -1.11669E-01
    9035.237     39.702   3.520  9.06113E-01  9.95711E-01 -8.95987E-02
    9036.316     40.780   3.560  9.31655E-01  9.95117E-01 -6.34625E-02
    9037.408     41.872   3.600  9.59990E-01  9.94569E-01 -3.45784E-02
    9038.511     42.975   3.640  9.88826E-01  9.94087E-01 -5.26069E-03
    9039.627     44.091   3.680  1.01513E+00  9.93654E-01  2.14809E-02
    9040.754     45.218   3.720  1.03601E+00  9.93290E-01  4.27224E-02
    9041.894     46.358   3.760  1.04959E+00  9.92973E-01  5.66146E-02
    9043.046     47.510   3.800  1.05546E+00  9.92703E-01  6.27532E-02
    9044.211     48.675   3.840  1.05466E+00  9.92501E-01  6.21568E-02
    9045.387     49.851   3.880  1.04921E+00  9.92349E-01  5.68625E-02
    9046.576     51.040   3.920  1.04145E+00  9.92267E-01  4.91799E-02
    9047.777     52.241   3.960  1.03335E+00  9.92232E-01  4.11155E-02
    9048.990     53.454   4.000  1.02660E+00  9.92265E-01  3.43355E-02
    9050.215     54.679   4.040  1.02267E+00  9.92345E-01  3.03247E-02
    9051.453     55.917   4.080  1.02280E+00  9.92471E-01  3.03321E-02
    9052.702     57.166   4.120  1.02772E+00  9.92661E-01  3.50547E-02
    9053.964     58.428   4.160  1.03694E+00  9.92873E-01  4.40681E-02
    9055.238     59.702   4.200  1.04880E+00  9.93147E-01  5.56546E-02
    9056.525     60.989   4.240  1.06062E+00  9.93463E-01  6.71579E-02
    9057.823     62.287   4.280  1.06967E+00  9.93818E-01  7.58504E-02
    9059.134     63.598   4.320  1.07406E+00  9.94189E-01  7.98703E-02
    9060.456     64.921   4.360  1.07318E+00  9.94618E-01  7.85650E-02
    9061.792     66.256   4.400  1.06745E+00  9.95061E-01  7.23917E-02
    9063.139     67.603   4.440  1.05831E+00  9.95539E-01  6.27725E-02
    9064.498     68.962   4.480  1.04762E+00  9.96049E-01  5.15730E-02
    9065.870     70.334   4.520  1.03738E+00  9.96569E-01  4.08074E-02
    9067.254     71.718   4.560  1.02920E+00  9.97115E-01  3.20861E-02
    9068.649     73.114   4.600  1.02403E+00  9.97646E-01  2.63845E-02
    9070.058     74.522   4.640  1.02244E+00  9.98224E-01  2.42197E-02
    9071.478     75.942   4.680  1.02445E+00  9.98783E-01  2.56688E-02
    9072.911     77.375   4.720  1.02938E+00  9.99342E-01  3.00331E-02
    9074.355     78.819   4.760  1.03542E+00  9.99923E-01  3.54993E-02
    9075.812     80.276   4.800  1.03981E+00  1.00048E+00  3.93265E-02
    9077.281     81.745   4.840  1.03995E+00  1.00103E+00  3.89188E-02
    9078.763     83.227   4.880  1.03467E+00  1.00158E+00  3.30868E-02
    9080.256     84.720   4.920  1.02451E+00  1.00212E+00  2.23902E-02
    9081.762     86.226   4.960  1.01113E+00  1.00263E+00  8.49704E-03
    9083.280     87.744   5.000  9.96422E-01  1.00313E+00 -6.70841E-03
    9084.810     89.274   5.040  9.81982E-01  1.00360E+00 -2.16145E-02
    9086.352     90.816   5.080  9.69004E-01  1.00403E+00 -3.50248E-02
    9087.907     92.371   5.120  9.58230E-01  1.00445E+00 -4.62165E-02
    9089.473     93.937   5.160  9.49995E-01  1.00483E+00 -5.48347E-02
    9091.052     95.516   5.200  9.44517E-01  1.00520E+00 -6.06816E-02
    9092.643     97.107   5.240  9.41797E-01  1.00551E+00 -6.37095E-02
    9094.246     98.711   5.280  9.41637E-01  1.00579E+00 -6.41573E-02
    9095.862    100.326   5.320  9.43283E-01  1.00602E+00 -6.27386E-02
    9097.490    101.954   5.360  9.45745E-01  1.00623E+00 -6.04853E-02
    9099.129    103.593   5.400  9.48112E-01  1.00640E+00 -5.82857E-02
    9100.781    105.245   5.440  9.50161E-01  1.00650E+00 -5.63401E-02
    9102.446    106.910   5.480  9.52470E-01  1.00658E+00 -5.41146E-02
    9104.122    108.586   5.520  9.55781E-01  1.00660E+00 -5.08226E-02
    9105.811    110.275   5.560  9.60588E-01  1.00660E+00 -4.60159E-02
    9107.511    111.975   5.600  9.66731E-01  1.00654E+00 -3.98100E-02
    9109.224    113.688   5.640  9.73650E-01  1.00646E+00 -3.28077E-02
    9110.949    115.414   5.680  9.80558E-01  1.00631E+00 -2.57527E-02
    9112.687    117.151   5.720  9.86942E-01  1.00612E+00 -1.91803E-02
    9114.436    118.900   5.760  9.92625E-01  1.00592E+00 -1.32920E-02
    9116.198    120.662   5.800  9.97450E-01  1.00565E+00 -8.19800E-03
    9117.972    122.436   5.840  1.00128E+00  1.00534E+00 -4.06173E-03
    9119.758    124.222   5.880  1.00415E+00  1.00500E+00 -8.43203E-04
    9121.556    126.021   5.920  1.00658E+00  1.00464E+00  1.94447E-03
    9123.367    127.831   5.960  1.00915E+00  1.00423E+00  4.92423E-03
    9125.190    129.654   6.000  1.01209E+00  1.00377E+00  8.31731E-03
