# # comment:                                                     FEFF 9.9.1  
# # Source:
# # Structure
# # Reduced
# # space
# # abc:
# # angles:139.018823
# # sites:
# # POT  SCF 100  7.0000   0, screened core-hole, AFOLP (folp(0)= 1.150)
# # Abs   Z=29 Rmt= 1.215 Rnm= 1.318 K  shell
# # Pot 1 Z=38 Rmt= 1.865 Rnm= 1.938
# # Pot 2 Z=29 Rmt= 1.213 Rnm= 1.311
# # Pot 3 Z=35 Rmt= 1.667 Rnm= 1.732
# # Pot 4 Z= 8 Rmt= 1.057 Rnm= 1.114
# # Gam_ch=1.729E+00 H-L exch Vi= 0.000E+00 Vr= 0.000E+00
# # Mu=-6.907E+00eV kf=1.861E+00 Vint=-1.463E+01eV Rs_int= 1.949
# FMS rfms= 9.0000
# # PATH  Rmax=-1.000,  Keep_limit= 0.00, Heap_limit 0.00  Pwcrit= 2.50%
#  S02=0.950  Temp=   0.00  Debye_temp=   0.00  Global_sig2= 0.00000
#  Energy zero shift, vr, vi    0.00000E+00   0.00000E+00
#  Curved wave amplitude ratio filter   4.000%
#     file         sig2 tot  cw amp ratio   deg  nlegs   reff  inp sig2
#     0/   0 paths used
#  xsedge+ 50, used to normalize mu           2.4377E-04
#  -----------------------------------------------------------------------
#  omega    e    k    mu    mu0     chi     @#
    8983.733    -10.717  -1.000  3.47871E-02  5.43686E-02 -1.95816E-02
    8984.032    -10.418  -0.960  3.64321E-02  5.82920E-02 -2.18599E-02
    8984.318    -10.132  -0.920  3.81876E-02  6.26471E-02 -2.44595E-02
    8984.593     -9.858  -0.880  4.00649E-02  6.74969E-02 -2.74320E-02
    8984.855     -9.595  -0.840  4.20772E-02  7.29146E-02 -3.08374E-02
    8985.105     -9.346  -0.800  4.42397E-02  7.89848E-02 -3.47450E-02
    8985.342     -9.108  -0.760  4.65698E-02  8.58046E-02 -3.92347E-02
    8985.568     -8.882  -0.720  4.90871E-02  9.34835E-02 -4.43964E-02
    8985.781     -8.669  -0.680  5.18131E-02  1.02142E-01 -5.03290E-02
    8985.983     -8.468  -0.640  5.47703E-02  1.11907E-01 -5.71371E-02
    8986.172     -8.279  -0.600  5.79796E-02  1.22904E-01 -6.49241E-02
    8986.348     -8.102  -0.560  6.14569E-02  1.35237E-01 -7.37804E-02
    8986.513     -7.937  -0.520  6.52059E-02  1.48971E-01 -8.37647E-02
    8986.665     -7.785  -0.480  6.92097E-02  1.64088E-01 -9.48787E-02
    8986.806     -7.645  -0.440  7.34208E-02  1.80458E-01 -1.07038E-01
    8986.934     -7.517  -0.400  7.77534E-02  1.97798E-01 -1.20044E-01
    8987.049     -7.401  -0.360  8.20845E-02  2.15662E-01 -1.33578E-01
    8987.153     -7.297  -0.320  8.62661E-02  2.33474E-01 -1.47208E-01
    8987.244     -7.206  -0.280  9.01486E-02  2.50593E-01 -1.60445E-01
    8987.324     -7.127  -0.240  9.36063E-02  2.66401E-01 -1.72794E-01
    8987.391     -7.060  -0.200  9.65545E-02  2.80377E-01 -1.83823E-01
    8987.446     -7.005  -0.160  9.89505E-02  2.92141E-01 -1.93190E-01
    8987.488     -6.962  -0.120  1.00780E-01  3.01446E-01 -2.00666E-01
    8987.519     -6.932  -0.080  1.02042E-01  3.08153E-01 -2.06110E-01
    8987.543     -6.907   0.000  1.02959E-01  3.13544E-01 -2.10585E-01
    8987.598     -6.852   0.120  1.05418E-01  3.25688E-01 -2.20270E-01
    8987.641     -6.810   0.160  1.07331E-01  3.35161E-01 -2.27830E-01
    8987.696     -6.755   0.200  1.09710E-01  3.47245E-01 -2.37535E-01
    8987.763     -6.688   0.240  1.12541E-01  3.61830E-01 -2.49289E-01
    8987.842     -6.608   0.280  1.15670E-01  3.78581E-01 -2.62911E-01
    8987.933     -6.517   0.320  1.19061E-01  3.97135E-01 -2.78074E-01
    8988.037     -6.413   0.360  1.22668E-01  4.16989E-01 -2.94321E-01
    8988.153     -6.298   0.400  1.26483E-01  4.37542E-01 -3.11059E-01
    8988.281     -6.170   0.440  1.30689E-01  4.58344E-01 -3.27655E-01
    8988.421     -6.029   0.480  1.35464E-01  4.78971E-01 -3.43507E-01
    8988.573     -5.877   0.520  1.41176E-01  4.99179E-01 -3.58002E-01
    8988.738     -5.712   0.560  1.48251E-01  5.18854E-01 -3.70603E-01
    8988.915     -5.536   0.600  1.57164E-01  5.37942E-01 -3.80778E-01
    8989.104     -5.347   0.640  1.68518E-01  5.56474E-01 -3.87955E-01
    8989.305     -5.145   0.680  1.83072E-01  5.74554E-01 -3.91481E-01
    8989.518     -4.932   0.720  2.01712E-01  5.92218E-01 -3.90506E-01
    8989.744     -4.707   0.760  2.25591E-01  6.09562E-01 -3.83970E-01
    8989.982     -4.469   0.800  2.56066E-01  6.26649E-01 -3.70583E-01
    8990.231     -4.219   0.840  2.94318E-01  6.43513E-01 -3.49195E-01
    8990.494     -3.957   0.880  3.39928E-01  6.60190E-01 -3.20262E-01
    8990.768     -3.682   0.920  3.88470E-01  6.76727E-01 -2.88257E-01
    8991.054     -3.396   0.960  4.30829E-01  6.93096E-01 -2.62267E-01
    8991.353     -3.097   1.000  4.58105E-01  7.09301E-01 -2.51196E-01
    8991.664     -2.786   1.040  4.68042E-01  7.25338E-01 -2.57296E-01
    8991.987     -2.463   1.080  4.64949E-01  7.41173E-01 -2.76224E-01
    8992.322     -2.128   1.120  4.55759E-01  7.56808E-01 -3.01049E-01
    8992.670     -1.780   1.160  4.46135E-01  7.72180E-01 -3.26045E-01
    8993.030     -1.421   1.200  4.39261E-01  7.87284E-01 -3.48024E-01
    8993.401     -1.049   1.240  4.38520E-01  8.02071E-01 -3.63551E-01
    8993.785     -0.665   1.280  4.48750E-01  8.16511E-01 -3.67762E-01
    8994.182     -0.269   1.320  4.73796E-01  8.30553E-01 -3.56757E-01
    8994.590      0.140   1.360  5.14314E-01  8.44206E-01 -3.29892E-01
    8995.011      0.560   1.400  5.66685E-01  8.57397E-01 -2.90713E-01
    8995.444      0.993   1.440  6.22209E-01  8.70096E-01 -2.47887E-01
    8995.889      1.438   1.480  6.70468E-01  8.82314E-01 -2.11846E-01
    8996.346      1.895   1.520  7.08215E-01  8.94002E-01 -1.85787E-01
    8996.815      2.365   1.560  7.42593E-01  9.05153E-01 -1.62560E-01
    8997.297      2.846   1.600  7.84656E-01  9.15740E-01 -1.31084E-01
    8997.790      3.340   1.640  8.43941E-01  9.25760E-01 -8.18192E-02
    8998.296      3.846   1.680  9.26164E-01  9.35190E-01 -9.02593E-03
    8998.815      4.364   1.720  1.02241E+00  9.44050E-01  7.83564E-02
    8999.345      4.895   1.760  1.10811E+00  9.52321E-01  1.55788E-01
    8999.887      5.437   1.800  1.17359E+00  9.60003E-01  2.13588E-01
    9000.442      5.992   1.840  1.22645E+00  9.67124E-01  2.59329E-01
    9001.009      6.559   1.880  1.28146E+00  9.73667E-01  3.07796E-01
    9001.588      7.138   1.920  1.35050E+00  9.79680E-01  3.70825E-01
    9002.180      7.729   1.960  1.42777E+00  9.85130E-01  4.42639E-01
    9002.783      8.333   2.000  1.49571E+00  9.90068E-01  5.05644E-01
    9003.399      8.948   2.040  1.53174E+00  9.94502E-01  5.37234E-01
    9004.027      9.576   2.080  1.51561E+00  9.98464E-01  5.17146E-01
    9004.667     10.216   2.120  1.44925E+00  1.00194E+00  4.47302E-01
    9005.319     10.869   2.160  1.35731E+00  1.00500E+00  3.52317E-01
    9005.983     11.533   2.200  1.26673E+00  1.00763E+00  2.59103E-01
    9006.660     12.210   2.240  1.19188E+00  1.00988E+00  1.81993E-01
    9007.349     12.899   2.280  1.14200E+00  1.01176E+00  1.30239E-01
    9008.050     13.600   2.320  1.11787E+00  1.01330E+00  1.04570E-01
    9008.763     14.313   2.360  1.10529E+00  1.01451E+00  9.07765E-02
    9009.489     15.038   2.400  1.09579E+00  1.01541E+00  8.03816E-02
    9010.226     15.776   2.440  1.08691E+00  1.01607E+00  7.08471E-02
    9010.976     16.526   2.480  1.07646E+00  1.01645E+00  6.00148E-02
    9011.738     17.288   2.520  1.06300E+00  1.01661E+00  4.63899E-02
    9012.512     18.062   2.560  1.04607E+00  1.01657E+00  2.94914E-02
    9013.299     18.848   2.600  1.02699E+00  1.01636E+00  1.06291E-02
    9014.097     19.647   2.640  1.00859E+00  1.01598E+00 -7.38849E-03
    9014.908     20.458   2.680  9.93037E-01  1.01544E+00 -2.23997E-02
    9015.731     21.281   2.720  9.81947E-01  1.01479E+00 -3.28448E-02
    9016.566     22.116   2.760  9.75488E-01  1.01401E+00 -3.85213E-02
    9017.413     22.963   2.800  9.72356E-01  1.01316E+00 -4.08021E-02
    9018.273     23.823   2.840  9.70448E-01  1.01223E+00 -4.17776E-02
    9019.145     24.694   2.880  9.67145E-01  1.01122E+00 -4.40760E-02
    9020.029     25.578   2.920  9.60338E-01  1.01019E+00 -4.98536E-02
    9020.925     26.474   2.960  9.49566E-01  1.00910E+00 -5.95352E-02
    9021.833     27.383   3.000  9.36188E-01  1.00800E+00 -7.18112E-02
    9022.753     28.303   3.040  9.22243E-01  1.00689E+00 -8.46473E-02
    9023.686     29.236   3.080  9.09510E-01  1.00578E+00 -9.62700E-02
    9024.631     30.181   3.120  8.99286E-01  1.00467E+00 -1.05388E-01
    9025.588     31.138   3.160  8.92009E-01  1.00360E+00 -1.11589E-01
    9026.557     32.107   3.200  8.87658E-01  1.00253E+00 -1.14875E-01
    9027.539     33.089   3.240  8.85967E-01  1.00152E+00 -1.15556E-01
    9028.532     34.082   3.280  8.86186E-01  1.00053E+00 -1.14347E-01
    9029.538     35.088   3.320  8.87301E-01  9.99584E-01 -1.12283E-01
    9030.556     36.106   3.360  8.88358E-01  9.98701E-01 -1.10343E-01
    9031.587     37.136   3.400  8.88841E-01  9.97867E-01 -1.09026E-01
    9032.629     38.179   3.440  8.88403E-01  9.97102E-01 -1.08699E-01
    9033.684     39.233   3.480  8.87159E-01  9.96388E-01 -1.09229E-01
    9034.750     40.300   3.520  8.85548E-01  9.95745E-01 -1.10197E-01
    9035.829     41.379   3.560  8.84113E-01  9.95155E-01 -1.11042E-01
    9036.921     42.470   3.600  8.83667E-01  9.94641E-01 -1.10974E-01
    9038.024     43.574   3.640  8.85216E-01  9.94203E-01 -1.08987E-01
    9039.139     44.689   3.680  8.89669E-01  9.93842E-01 -1.04173E-01
    9040.267     45.817   3.720  8.97586E-01  9.93559E-01 -9.59726E-02
    9041.407     46.957   3.760  9.09304E-01  9.93329E-01 -8.40249E-02
    9042.559     48.109   3.800  9.25001E-01  9.93176E-01 -6.81756E-02
    9043.724     49.273   3.840  9.44364E-01  9.93100E-01 -4.87358E-02
    9044.900     50.450   3.880  9.66643E-01  9.93099E-01 -2.64555E-02
    9046.089     51.639   3.920  9.90757E-01  9.93151E-01 -2.39449E-03
    9047.290     52.839   3.960  1.01540E+00  9.93279E-01  2.21203E-02
    9048.503     54.053   4.000  1.03907E+00  9.93480E-01  4.55864E-02
    9049.728     55.278   4.040  1.06035E+00  9.93731E-01  6.66179E-02
    9050.966     56.515   4.080  1.07834E+00  9.94053E-01  8.42828E-02
    9052.215     57.765   4.120  1.09280E+00  9.94424E-01  9.83748E-02
    9053.477     59.027   4.160  1.10441E+00  9.94863E-01  1.09550E-01
    9054.751     60.301   4.200  1.11398E+00  9.95323E-01  1.18658E-01
    9056.038     61.587   4.240  1.12191E+00  9.95848E-01  1.26059E-01
    9057.336     62.886   4.280  1.12763E+00  9.96417E-01  1.31212E-01
    9058.647     64.196   4.320  1.12990E+00  9.97026E-01  1.32869E-01
    9059.969     65.519   4.360  1.12735E+00  9.97674E-01  1.29674E-01
    9061.304     66.854   4.400  1.11933E+00  9.98359E-01  1.20975E-01
    9062.652     68.201   4.440  1.10651E+00  9.99078E-01  1.07437E-01
    9064.011     69.561   4.480  1.09066E+00  9.99806E-01  9.08583E-02
    9065.383     70.932   4.520  1.07425E+00  1.00054E+00  7.37072E-02
    9066.766     72.316   4.560  1.05979E+00  1.00131E+00  5.84829E-02
    9068.162     73.712   4.600  1.04909E+00  1.00207E+00  4.70156E-02
    9069.571     75.120   4.640  1.04296E+00  1.00287E+00  4.00956E-02
    9070.991     76.541   4.680  1.04097E+00  1.00364E+00  3.73238E-02
    9072.423     77.973   4.720  1.04174E+00  1.00444E+00  3.73087E-02
    9073.868     79.418   4.760  1.04316E+00  1.00520E+00  3.79580E-02
    9075.325     80.875   4.800  1.04291E+00  1.00597E+00  3.69419E-02
    9076.794     82.344   4.840  1.03906E+00  1.00672E+00  3.23445E-02
    9078.276     83.825   4.880  1.03090E+00  1.00744E+00  2.34578E-02
    9079.769     85.319   4.920  1.01921E+00  1.00816E+00  1.10491E-02
    9081.275     86.825   4.960  1.00549E+00  1.00884E+00 -3.35205E-03
    9082.793     88.342   5.000  9.91243E-01  1.00950E+00 -1.82586E-02
    9084.323     89.873   5.040  9.77565E-01  1.01011E+00 -3.25417E-02
    9085.865     91.415   5.080  9.65313E-01  1.01069E+00 -4.53821E-02
    9087.420     92.969   5.120  9.55051E-01  1.01124E+00 -5.61935E-02
    9088.986     94.536   5.160  9.47025E-01  1.01175E+00 -6.47271E-02
    9090.565     96.115   5.200  9.41118E-01  1.01222E+00 -7.10989E-02
    9092.156     97.706   5.240  9.36717E-01  1.01264E+00 -7.59226E-02
    9093.759     99.309   5.280  9.33025E-01  1.01302E+00 -7.99925E-02
    9095.375    100.925   5.320  9.29786E-01  1.01333E+00 -8.35408E-02
    9097.002    102.552   5.360  9.27960E-01  1.01359E+00 -8.56281E-02
    9098.642    104.192   5.400  9.29419E-01  1.01381E+00 -8.43874E-02
    9100.294    105.844   5.440  9.35878E-01  1.01398E+00 -7.81019E-02
    9101.958    107.508   5.480  9.47847E-01  1.01411E+00 -6.62597E-02
    9103.635    109.185   5.520  9.64288E-01  1.01417E+00 -4.98771E-02
    9105.323    110.873   5.560  9.83161E-01  1.01418E+00 -3.10156E-02
    9107.024    112.574   5.600  1.00232E+00  1.01414E+00 -1.18184E-02
    9108.737    114.287   5.640  1.02030E+00  1.01403E+00  6.26943E-03
    9110.462    116.012   5.680  1.03645E+00  1.01388E+00  2.25632E-02
    9112.200    117.749   5.720  1.04991E+00  1.01369E+00  3.62207E-02
    9113.949    119.499   5.760  1.05906E+00  1.01345E+00  4.56124E-02
    9115.711    121.261   5.800  1.06176E+00  1.01314E+00  4.86162E-02
    9117.485    123.035   5.840  1.05682E+00  1.01280E+00  4.40219E-02
    9119.271    124.821   5.880  1.04528E+00  1.01244E+00  3.28458E-02
    9121.069    126.619   5.920  1.03028E+00  1.01201E+00  1.82644E-02
    9122.880    128.430   5.960  1.01568E+00  1.01155E+00  4.12681E-03
    9124.703    130.252   6.000  1.00411E+00  1.01102E+00 -6.91043E-03
