# # comment:                                                     FEFF 9.9.1  
# # Source:
# # Structure
# # Reduced
# # space
# # abc:
# # angles:
# # sites:
# # POT  SCF 100  7.0000   0, screened core-hole, AFOLP (folp(0)= 1.150)
# # Abs   Z=29 Rmt= 1.249 Rnm= 1.423 K  shell
# # Pot 1 Z=29 Rmt= 1.262 Rnm= 1.392
# # Pot 2 Z=34 Rmt= 1.116 Rnm= 1.338
# # Pot 3 Z=17 Rmt= 1.347 Rnm= 1.533
# # Pot 4 Z= 8 Rmt= 0.944 Rnm= 1.072
# # Gam_ch=1.729E+00 H-L exch Vi= 0.000E+00 Vr= 0.000E+00
# # Mu=-5.013E+00eV kf=1.921E+00 Vint=-1.276E+01eV Rs_int= 1.888
# FMS rfms= 9.0000
# # PATH  Rmax=-1.000,  Keep_limit= 0.00, Heap_limit 0.00  Pwcrit= 2.50%
#  S02=0.950  Temp=   0.00  Debye_temp=   0.00  Global_sig2= 0.00000
#  Energy zero shift, vr, vi    0.00000E+00   0.00000E+00
#  Curved wave amplitude ratio filter   4.000%
#     file         sig2 tot  cw amp ratio   deg  nlegs   reff  inp sig2
#     0/   0 paths used
#  xsedge+ 50, used to normalize mu           2.4195E-04
#  -----------------------------------------------------------------------
#  omega    e    k    mu    mu0     chi     @#
    8983.290     -8.823  -1.000  5.85437E-02  6.45528E-02 -6.00908E-03
    8983.588     -8.524  -0.960  6.26653E-02  6.95165E-02 -6.85118E-03
    8983.875     -8.238  -0.920  6.72134E-02  7.50507E-02 -7.83727E-03
    8984.149     -7.964  -0.880  7.22461E-02  8.12405E-02 -8.99433E-03
    8984.411     -7.702  -0.840  7.78303E-02  8.81847E-02 -1.03544E-02
    8984.661     -7.452  -0.800  8.40430E-02  9.59984E-02 -1.19554E-02
    8984.899     -7.214  -0.760  9.09714E-02  1.04813E-01 -1.38418E-02
    8985.124     -6.988  -0.720  9.87135E-02  1.14778E-01 -1.60646E-02
    8985.338     -6.775  -0.680  1.07376E-01  1.26057E-01 -1.86814E-02
    8985.539     -6.574  -0.640  1.17070E-01  1.38824E-01 -2.17541E-02
    8985.728     -6.385  -0.600  1.27904E-01  1.53249E-01 -2.53452E-02
    8985.905     -6.208  -0.560  1.39968E-01  1.69478E-01 -2.95103E-02
    8986.069     -6.043  -0.520  1.53312E-01  1.87598E-01 -3.42864E-02
    8986.222     -5.891  -0.480  1.67917E-01  2.07592E-01 -3.96756E-02
    8986.362     -5.751  -0.440  1.83659E-01  2.29285E-01 -4.56261E-02
    8986.490     -5.623  -0.400  2.00280E-01  2.52296E-01 -5.20161E-02
    8986.606     -5.507  -0.360  2.17378E-01  2.76029E-01 -5.86505E-02
    8986.709     -5.403  -0.320  2.34430E-01  2.99705E-01 -6.52755E-02
    8986.801     -5.312  -0.280  2.50849E-01  3.22464E-01 -7.16146E-02
    8986.880     -5.233  -0.240  2.66061E-01  3.43474E-01 -7.74126E-02
    8986.947     -5.166  -0.200  2.79571E-01  3.62042E-01 -8.24704E-02
    8987.002     -5.111  -0.160  2.91000E-01  3.77659E-01 -8.66591E-02
    8987.045     -5.068  -0.120  3.00091E-01  3.90003E-01 -8.99127E-02
    8987.075     -5.038  -0.080  3.06682E-01  3.98894E-01 -9.22126E-02
    8987.100     -5.013   0.000  3.12019E-01  4.06034E-01 -9.40152E-02
    8987.154     -4.958   0.120  3.23771E-01  4.22136E-01 -9.83655E-02
    8987.197     -4.916   0.160  3.33008E-01  4.34648E-01 -1.01640E-01
    8987.252     -4.861   0.200  3.44907E-01  4.50625E-01 -1.05718E-01
    8987.319     -4.794   0.240  3.59362E-01  4.69807E-01 -1.10445E-01
    8987.398     -4.715   0.280  3.76222E-01  4.91851E-01 -1.15628E-01
    8987.490     -4.623   0.320  3.95116E-01  5.16128E-01 -1.21012E-01
    8987.593     -4.519   0.360  4.15618E-01  5.41934E-01 -1.26316E-01
    8987.709     -4.404   0.400  4.37197E-01  5.68497E-01 -1.31299E-01
    8987.837     -4.276   0.440  4.59423E-01  5.95128E-01 -1.35705E-01
    8987.977     -4.135   0.480  4.81966E-01  6.21230E-01 -1.39264E-01
    8988.130     -3.983   0.520  5.04836E-01  6.46458E-01 -1.41622E-01
    8988.294     -3.818   0.560  5.28183E-01  6.70602E-01 -1.42419E-01
    8988.471     -3.642   0.600  5.52296E-01  6.93612E-01 -1.41316E-01
    8988.660     -3.453   0.640  5.77515E-01  7.15510E-01 -1.37995E-01
    8988.861     -3.251   0.680  6.04458E-01  7.36362E-01 -1.31904E-01
    8989.075     -3.038   0.720  6.34252E-01  7.56272E-01 -1.22020E-01
    8989.300     -2.813   0.760  6.68097E-01  7.75322E-01 -1.07225E-01
    8989.538     -2.575   0.800  7.06156E-01  7.93605E-01 -8.74483E-02
    8989.788     -2.325   0.840  7.46003E-01  8.11132E-01 -6.51295E-02
    8990.050     -2.063   0.880  7.82711E-01  8.27984E-01 -4.52728E-02
    8990.324     -1.788   0.920  8.11617E-01  8.44180E-01 -3.25627E-02
    8990.611     -1.502   0.960  8.31747E-01  8.59708E-01 -2.79611E-02
    8990.910     -1.203   1.000  8.45599E-01  8.74606E-01 -2.90068E-02
    8991.220     -0.892   1.040  8.56805E-01  8.88838E-01 -3.20328E-02
    8991.544     -0.569   1.080  8.69462E-01  9.02405E-01 -3.29433E-02
    8991.879     -0.234   1.120  8.86876E-01  9.15301E-01 -2.84253E-02
    8992.226      0.114   1.160  9.09808E-01  9.27515E-01 -1.77074E-02
    8992.586      0.473   1.200  9.36683E-01  9.39017E-01 -2.33357E-03
    8992.958      0.845   1.240  9.63906E-01  9.49813E-01  1.40932E-02
    8993.342      1.229   1.280  9.86537E-01  9.59888E-01  2.66488E-02
    8993.738      1.625   1.320  1.00328E+00  9.69230E-01  3.40516E-02
    8994.147      2.034   1.360  1.01930E+00  9.77845E-01  4.14590E-02
    8994.567      2.454   1.400  1.04291E+00  9.85742E-01  5.71656E-02
    8995.000      2.887   1.440  1.07776E+00  9.92930E-01  8.48281E-02
    8995.445      3.332   1.480  1.11621E+00  9.99400E-01  1.16807E-01
    8995.902      3.789   1.520  1.14597E+00  1.00519E+00  1.40788E-01
    8996.372      4.259   1.560  1.16144E+00  1.01030E+00  1.51141E-01
    8996.853      4.740   1.600  1.16232E+00  1.01476E+00  1.47562E-01
    8997.347      5.234   1.640  1.15023E+00  1.01862E+00  1.31611E-01
    8997.853      5.740   1.680  1.13058E+00  1.02190E+00  1.08680E-01
    8998.371      6.258   1.720  1.10925E+00  1.02461E+00  8.46425E-02
    8998.901      6.789   1.760  1.08974E+00  1.02677E+00  6.29716E-02
    8999.444      7.331   1.800  1.07357E+00  1.02847E+00  4.50986E-02
    8999.999      7.886   1.840  1.05874E+00  1.02971E+00  2.90367E-02
    9000.566      8.453   1.880  1.04372E+00  1.03053E+00  1.31864E-02
    9001.145      9.032   1.920  1.02926E+00  1.03097E+00 -1.70990E-03
    9001.736      9.623   1.960  1.01457E+00  1.03103E+00 -1.64651E-02
    9002.340     10.227   2.000  9.99853E-01  1.03079E+00 -3.09353E-02
    9002.955     10.842   2.040  9.89471E-01  1.03027E+00 -4.07964E-02
    9003.583     11.470   2.080  9.88412E-01  1.02949E+00 -4.10786E-02
    9004.223     12.110   2.120  1.00002E+00  1.02849E+00 -2.84703E-02
    9004.875     12.763   2.160  1.02488E+00  1.02729E+00 -2.40961E-03
    9005.540     13.427   2.200  1.05619E+00  1.02594E+00  3.02513E-02
    9006.217     14.104   2.240  1.07928E+00  1.02446E+00  5.48265E-02
    9006.905     14.793   2.280  1.08692E+00  1.02285E+00  6.40739E-02
    9007.606     15.494   2.320  1.08809E+00  1.02115E+00  6.69412E-02
    9008.320     16.207   2.360  1.08756E+00  1.01940E+00  6.81598E-02
    9009.045     16.932   2.400  1.08568E+00  1.01760E+00  6.80809E-02
    9009.783     17.670   2.440  1.08103E+00  1.01579E+00  6.52448E-02
    9010.533     18.420   2.480  1.07464E+00  1.01394E+00  6.06940E-02
    9011.295     19.182   2.520  1.06769E+00  1.01212E+00  5.55662E-02
    9012.069     19.956   2.560  1.06093E+00  1.01031E+00  5.06147E-02
    9012.855     20.742   2.600  1.05464E+00  1.00856E+00  4.60834E-02
    9013.654     21.541   2.640  1.04862E+00  1.00683E+00  4.17923E-02
    9014.464     22.352   2.680  1.04252E+00  1.00519E+00  3.73348E-02
    9015.287     23.175   2.720  1.03591E+00  1.00360E+00  3.23089E-02
    9016.123     24.010   2.760  1.02872E+00  1.00209E+00  2.66319E-02
    9016.970     24.857   2.800  1.02114E+00  1.00067E+00  2.04767E-02
    9017.829     25.717   2.840  1.01349E+00  9.99350E-01  1.41420E-02
    9018.701     26.588   2.880  1.00609E+00  9.98122E-01  7.96944E-03
    9019.585     27.472   2.920  9.99311E-01  9.96985E-01  2.32583E-03
    9020.481     28.368   2.960  9.93255E-01  9.95985E-01 -2.72943E-03
    9021.389     29.277   3.000  9.87750E-01  9.95081E-01 -7.33022E-03
    9022.310     30.197   3.040  9.82433E-01  9.94294E-01 -1.18603E-02
    9023.243     31.130   3.080  9.76822E-01  9.93625E-01 -1.68028E-02
    9024.188     32.075   3.120  9.70554E-01  9.93054E-01 -2.24994E-02
    9025.145     33.032   3.160  9.63636E-01  9.92624E-01 -2.89886E-02
    9026.114     34.001   3.200  9.56239E-01  9.92293E-01 -3.60538E-02
    9027.095     34.982   3.240  9.48819E-01  9.92080E-01 -4.32615E-02
    9028.089     35.976   3.280  9.42005E-01  9.92008E-01 -5.00030E-02
    9029.095     36.982   3.320  9.36221E-01  9.92012E-01 -5.57911E-02
    9030.113     38.000   3.360  9.31957E-01  9.92154E-01 -6.01969E-02
    9031.143     39.030   3.400  9.29479E-01  9.92391E-01 -6.29127E-02
    9032.185     40.073   3.440  9.28843E-01  9.92743E-01 -6.39002E-02
    9033.240     41.127   3.480  9.29994E-01  9.93208E-01 -6.32139E-02
    9034.307     42.194   3.520  9.32841E-01  9.93762E-01 -6.09212E-02
    9035.386     43.273   3.560  9.37285E-01  9.94401E-01 -5.71160E-02
    9036.477     44.364   3.600  9.43308E-01  9.95125E-01 -5.18174E-02
    9037.580     45.468   3.640  9.50775E-01  9.95933E-01 -4.51581E-02
    9038.696     46.583   3.680  9.59450E-01  9.96843E-01 -3.73930E-02
    9039.824     47.711   3.720  9.68858E-01  9.97807E-01 -2.89483E-02
    9040.964     48.851   3.760  9.78460E-01  9.98845E-01 -2.03855E-02
    9042.116     50.003   3.800  9.87763E-01  9.99934E-01 -1.21715E-02
    9043.280     51.167   3.840  9.96454E-01  1.00107E+00 -4.61367E-03
    9044.457     52.344   3.880  1.00452E+00  1.00227E+00  2.25190E-03
    9045.645     53.533   3.920  1.01207E+00  1.00351E+00  8.55748E-03
    9046.846     54.733   3.960  1.01936E+00  1.00480E+00  1.45667E-02
    9048.059     55.947   4.000  1.02672E+00  1.00611E+00  2.06079E-02
    9049.285     57.172   4.040  1.03447E+00  1.00744E+00  2.70321E-02
    9050.522     58.409   4.080  1.04280E+00  1.00877E+00  3.40310E-02
    9051.772     59.659   4.120  1.05166E+00  1.01013E+00  4.15317E-02
    9053.034     60.921   4.160  1.06070E+00  1.01146E+00  4.92453E-02
    9054.308     62.195   4.200  1.06958E+00  1.01281E+00  5.67649E-02
    9055.594     63.481   4.240  1.07788E+00  1.01414E+00  6.37397E-02
    9056.892     64.780   4.280  1.08531E+00  1.01545E+00  6.98540E-02
    9058.203     66.090   4.320  1.09148E+00  1.01676E+00  7.47256E-02
    9059.526     67.413   4.360  1.09581E+00  1.01800E+00  7.78073E-02
    9060.861     68.748   4.400  1.09763E+00  1.01923E+00  7.84001E-02
    9062.208     70.095   4.440  1.09635E+00  1.02041E+00  7.59332E-02
    9063.567     71.455   4.480  1.09164E+00  1.02153E+00  7.01096E-02
    9064.939     72.826   4.520  1.08357E+00  1.02262E+00  6.09492E-02
    9066.323     74.210   4.560  1.07237E+00  1.02364E+00  4.87276E-02
    9067.719     75.606   4.600  1.05871E+00  1.02459E+00  3.41215E-02
    9069.127     77.014   4.640  1.04349E+00  1.02548E+00  1.80127E-02
    9070.547     78.435   4.680  1.02769E+00  1.02629E+00  1.40062E-03
    9071.980     79.867   4.720  1.01227E+00  1.02702E+00 -1.47578E-02
    9073.425     81.312   4.760  9.98088E-01  1.02770E+00 -2.96098E-02
    9074.882     82.769   4.800  9.85882E-01  1.02827E+00 -4.23869E-02
    9076.351     84.238   4.840  9.76377E-01  1.02878E+00 -5.24037E-02
    9077.832     85.719   4.880  9.70058E-01  1.02921E+00 -5.91504E-02
    9079.326     87.213   4.920  9.67012E-01  1.02953E+00 -6.25179E-02
    9080.831     88.718   4.960  9.66875E-01  1.02979E+00 -6.29154E-02
    9082.349     90.236   5.000  9.68868E-01  1.02997E+00 -6.10980E-02
    9083.879     91.766   5.040  9.72106E-01  1.03004E+00 -5.79310E-02
    9085.422     93.309   5.080  9.75945E-01  1.03005E+00 -5.41020E-02
    9086.976     94.863   5.120  9.80007E-01  1.02997E+00 -4.99665E-02
    9088.543     96.430   5.160  9.84174E-01  1.02979E+00 -4.56192E-02
    9090.122     98.009   5.200  9.88482E-01  1.02956E+00 -4.10733E-02
    9091.713     99.600   5.240  9.92835E-01  1.02924E+00 -3.64054E-02
    9093.316    101.203   5.280  9.97076E-01  1.02887E+00 -3.17915E-02
    9094.931    102.818   5.320  1.00095E+00  1.02839E+00 -2.74481E-02
    9096.559    104.446   5.360  1.00443E+00  1.02787E+00 -2.34412E-02
    9098.199    106.086   5.400  1.00771E+00  1.02729E+00 -1.95841E-02
    9099.851    107.738   5.440  1.01117E+00  1.02664E+00 -1.54728E-02
    9101.515    109.402   5.480  1.01525E+00  1.02595E+00 -1.06988E-02
    9103.191    111.079   5.520  1.02010E+00  1.02518E+00 -5.07826E-03
    9104.880    112.767   5.560  1.02563E+00  1.02439E+00  1.23506E-03
    9106.581    114.468   5.600  1.03130E+00  1.02355E+00  7.75941E-03
    9108.294    116.181   5.640  1.03657E+00  1.02268E+00  1.38904E-02
    9110.019    117.906   5.680  1.04108E+00  1.02178E+00  1.92974E-02
    9111.756    119.643   5.720  1.04495E+00  1.02084E+00  2.41083E-02
    9113.506    121.393   5.760  1.04857E+00  1.01990E+00  2.86713E-02
    9115.267    123.155   5.800  1.05207E+00  1.01893E+00  3.31435E-02
    9117.041    124.929   5.840  1.05532E+00  1.01795E+00  3.73668E-02
    9118.828    126.715   5.880  1.05806E+00  1.01696E+00  4.11013E-02
    9120.626    128.513   5.920  1.06017E+00  1.01600E+00  4.41692E-02
    9122.436    130.324   5.960  1.06126E+00  1.01504E+00  4.62218E-02
    9124.259    132.146   6.000  1.06045E+00  1.01411E+00  4.63440E-02
