# # comment:                                                     FEFF 9.9.1  
# # Source:
# # Structure
# # Reduced
# # space
# # abc:
# # angles:114.208649
# # sites:
# # POT  SCF 100  7.0000   0, screened core-hole, AFOLP (folp(0)= 1.150)
# # Abs   Z=29 Rmt= 1.129 Rnm= 1.284 K  shell
# # Pot 1 Z=56 Rmt= 1.946 Rnm= 2.005
# # Pot 2 Z=39 Rmt= 1.636 Rnm= 1.713
# # Pot 3 Z=29 Rmt= 1.129 Rnm= 1.284
# # Pot 4 Z= 8 Rmt= 1.078 Rnm= 1.133
# # Gam_ch=1.729E+00 H-L exch Vi= 0.000E+00 Vr= 0.000E+00
# # Mu=-8.855E+00eV kf=1.995E+00 Vint=-1.730E+01eV Rs_int= 1.818
# FMS rfms= 9.0000
# # PATH  Rmax=-1.000,  Keep_limit= 0.00, Heap_limit 0.00  Pwcrit= 2.50%
#  S02=0.950  Temp=   0.00  Debye_temp=   0.00  Global_sig2= 0.00000
#  Energy zero shift, vr, vi    0.00000E+00   0.00000E+00
#  Curved wave amplitude ratio filter   4.000%
#     file         sig2 tot  cw amp ratio   deg  nlegs   reff  inp sig2
#     0/   0 paths used
#  xsedge+ 50, used to normalize mu           2.4509E-04
#  -----------------------------------------------------------------------
#  omega    e    k    mu    mu0     chi     @#
    8984.909    -12.665  -1.000  3.67510E-02  5.56675E-02 -1.89165E-02
    8985.207    -12.366  -0.960  3.86772E-02  5.97236E-02 -2.10464E-02
    8985.494    -12.080  -0.920  4.07643E-02  6.42301E-02 -2.34659E-02
    8985.768    -11.805  -0.880  4.30336E-02  6.92530E-02 -2.62194E-02
    8986.030    -11.543  -0.840  4.55103E-02  7.48690E-02 -2.93588E-02
    8986.280    -11.293  -0.800  4.82239E-02  8.11673E-02 -3.29434E-02
    8986.518    -11.055  -0.760  5.12087E-02  8.82500E-02 -3.70413E-02
    8986.744    -10.830  -0.720  5.45038E-02  9.62323E-02 -4.17284E-02
    8986.957    -10.616  -0.680  5.81528E-02  1.05241E-01 -4.70884E-02
    8987.158    -10.415  -0.640  6.22021E-02  1.15411E-01 -5.32085E-02
    8987.347    -10.226  -0.600  6.66973E-02  1.26872E-01 -6.01748E-02
    8987.524    -10.050  -0.560  7.16767E-02  1.39737E-01 -6.80608E-02
    8987.688     -9.885  -0.520  7.71610E-02  1.54073E-01 -7.69123E-02
    8987.841     -9.733  -0.480  8.31392E-02  1.69864E-01 -8.67252E-02
    8987.981     -9.592  -0.440  8.95517E-02  1.86972E-01 -9.74205E-02
    8988.109     -9.464  -0.400  9.62773E-02  2.05100E-01 -1.08822E-01
    8988.225     -9.349  -0.360  1.03131E-01  2.23780E-01 -1.20649E-01
    8988.329     -9.245  -0.320  1.09878E-01  2.42407E-01 -1.32529E-01
    8988.420     -9.153  -0.280  1.16268E-01  2.60308E-01 -1.44039E-01
    8988.499     -9.074  -0.240  1.22074E-01  2.76833E-01 -1.54759E-01
    8988.566     -9.007  -0.200  1.27121E-01  2.91440E-01 -1.64319E-01
    8988.621     -8.952  -0.160  1.31296E-01  3.03730E-01 -1.72434E-01
    8988.664     -8.910  -0.120  1.34538E-01  3.13447E-01 -1.78908E-01
    8988.694     -8.879  -0.080  1.36821E-01  3.20448E-01 -1.83627E-01
    8988.719     -8.855   0.000  1.38560E-01  3.26075E-01 -1.87514E-01
    8988.774     -8.800   0.120  1.42925E-01  3.38757E-01 -1.95832E-01
    8988.816     -8.757   0.160  1.46288E-01  3.48630E-01 -2.02341E-01
    8988.871     -8.702   0.200  1.50522E-01  3.61234E-01 -2.10712E-01
    8988.938     -8.635   0.240  1.55505E-01  3.76403E-01 -2.20898E-01
    8989.017     -8.556   0.280  1.61043E-01  3.93823E-01 -2.32780E-01
    8989.109     -8.465   0.320  1.66946E-01  4.13079E-01 -2.46133E-01
    8989.212     -8.361   0.360  1.73003E-01  4.33632E-01 -2.60630E-01
    8989.328     -8.245   0.400  1.78975E-01  4.54865E-01 -2.75890E-01
    8989.456     -8.117   0.440  1.84710E-01  4.76252E-01 -2.91543E-01
    8989.596     -7.977   0.480  1.90127E-01  4.97407E-01 -3.07279E-01
    8989.749     -7.825   0.520  1.95106E-01  5.18007E-01 -3.22900E-01
    8989.913     -7.660   0.560  1.99656E-01  5.37953E-01 -3.38297E-01
    8990.090     -7.483   0.600  2.03899E-01  5.57211E-01 -3.53312E-01
    8990.279     -7.294   0.640  2.08158E-01  5.75817E-01 -3.67659E-01
    8990.480     -7.093   0.680  2.12940E-01  5.93843E-01 -3.80903E-01
    8990.694     -6.880   0.720  2.18921E-01  6.11395E-01 -3.92474E-01
    8990.919     -6.654   0.760  2.26749E-01  6.28516E-01 -4.01767E-01
    8991.157     -6.416   0.800  2.37277E-01  6.45342E-01 -4.08066E-01
    8991.407     -6.166   0.840  2.51293E-01  6.61872E-01 -4.10579E-01
    8991.669     -5.904   0.880  2.69692E-01  6.78193E-01 -4.08501E-01
    8991.943     -5.630   0.920  2.92937E-01  6.94297E-01 -4.01360E-01
    8992.230     -5.343   0.960  3.20827E-01  7.10225E-01 -3.89398E-01
    8992.529     -5.045   1.000  3.51828E-01  7.25966E-01 -3.74138E-01
    8992.840     -4.734   1.040  3.83841E-01  7.41540E-01 -3.57699E-01
    8993.163     -4.411   1.080  4.17132E-01  7.56901E-01 -3.39769E-01
    8993.498     -4.075   1.120  4.56883E-01  7.72055E-01 -3.15171E-01
    8993.845     -3.728   1.160  5.10934E-01  7.86963E-01 -2.76029E-01
    8994.205     -3.368   1.200  5.82684E-01  8.01604E-01 -2.18920E-01
    8994.577     -2.997   1.240  6.59975E-01  8.15951E-01 -1.55976E-01
    8994.961     -2.612   1.280  7.13101E-01  8.29957E-01 -1.16856E-01
    8995.357     -2.216   1.320  7.22160E-01  8.43615E-01 -1.21455E-01
    8995.766     -1.808   1.360  7.06680E-01  8.56895E-01 -1.50215E-01
    8996.186     -1.387   1.400  7.00024E-01  8.69747E-01 -1.69723E-01
    8996.619     -0.954   1.440  7.21640E-01  8.82161E-01 -1.60521E-01
    8997.064     -0.509   1.480  7.69645E-01  8.94088E-01 -1.24443E-01
    8997.521     -0.052   1.520  8.12790E-01  9.05541E-01 -9.27508E-02
    8997.991      0.417   1.560  8.15881E-01  9.16473E-01 -1.00592E-01
    8998.472      0.899   1.600  7.97127E-01  9.26896E-01 -1.29769E-01
    8998.966      1.393   1.640  7.92423E-01  9.36747E-01 -1.44324E-01
    8999.472      1.899   1.680  8.01311E-01  9.46062E-01 -1.44750E-01
    8999.990      2.417   1.720  8.15000E-01  9.54820E-01 -1.39820E-01
    9000.520      2.947   1.760  8.42849E-01  9.63022E-01 -1.20173E-01
    9001.063      3.490   1.800  9.04078E-01  9.70667E-01 -6.65892E-02
    9001.618      4.044   1.840  1.00652E+00  9.77760E-01  2.87635E-02
    9002.185      4.611   1.880  1.12460E+00  9.84283E-01  1.40314E-01
    9002.764      5.190   1.920  1.21479E+00  9.90282E-01  2.24508E-01
    9003.355      5.782   1.960  1.25237E+00  9.95743E-01  2.56627E-01
    9003.959      6.385   2.000  1.24501E+00  1.00069E+00  2.44315E-01
    9004.574      7.001   2.040  1.21515E+00  1.00512E+00  2.10027E-01
    9005.202      7.629   2.080  1.19075E+00  1.00908E+00  1.81665E-01
    9005.842      8.269   2.120  1.18883E+00  1.01258E+00  1.76255E-01
    9006.495      8.921   2.160  1.20215E+00  1.01564E+00  1.86512E-01
    9007.159      9.586   2.200  1.20855E+00  1.01827E+00  1.90279E-01
    9007.836     10.262   2.240  1.19607E+00  1.02048E+00  1.75587E-01
    9008.524     10.951   2.280  1.17420E+00  1.02232E+00  1.51884E-01
    9009.226     11.652   2.320  1.16137E+00  1.02381E+00  1.37564E-01
    9009.939     12.365   2.360  1.16707E+00  1.02494E+00  1.42129E-01
    9010.664     13.091   2.400  1.19037E+00  1.02578E+00  1.64594E-01
    9011.402     13.828   2.440  1.22085E+00  1.02634E+00  1.94510E-01
    9012.152     14.578   2.480  1.24224E+00  1.02660E+00  2.15637E-01
    9012.914     15.340   2.520  1.24684E+00  1.02664E+00  2.20202E-01
    9013.688     16.114   2.560  1.22971E+00  1.02644E+00  2.03265E-01
    9014.474     16.901   2.600  1.19515E+00  1.02606E+00  1.69092E-01
    9015.273     17.699   2.640  1.15293E+00  1.02547E+00  1.27457E-01
    9016.084     18.510   2.680  1.11177E+00  1.02473E+00  8.70415E-02
    9016.906     19.333   2.720  1.07690E+00  1.02384E+00  5.30571E-02
    9017.742     20.168   2.760  1.04991E+00  1.02281E+00  2.71009E-02
    9018.589     21.016   2.800  1.03027E+00  1.02168E+00  8.58719E-03
    9019.448     21.875   2.840  1.01700E+00  1.02047E+00 -3.46431E-03
    9020.320     22.747   2.880  1.00875E+00  1.01917E+00 -1.04175E-02
    9021.204     23.631   2.920  1.00333E+00  1.01780E+00 -1.44615E-02
    9022.100     24.527   2.960  9.98709E-01  1.01640E+00 -1.76895E-02
    9023.009     25.435   3.000  9.93404E-01  1.01494E+00 -2.15349E-02
    9023.929     26.356   3.040  9.86929E-01  1.01347E+00 -2.65363E-02
    9024.862     27.288   3.080  9.79583E-01  1.01198E+00 -3.24007E-02
    9025.807     28.233   3.120  9.72162E-01  1.01048E+00 -3.83177E-02
    9026.764     29.190   3.160  9.65379E-01  1.00900E+00 -4.36170E-02
    9027.733     30.159   3.200  9.59277E-01  1.00752E+00 -4.82442E-02
    9028.714     31.141   3.240  9.53289E-01  1.00608E+00 -5.27908E-02
    9029.708     32.135   3.280  9.46302E-01  1.00467E+00 -5.83705E-02
    9030.714     33.140   3.320  9.37351E-01  1.00330E+00 -6.59529E-02
    9031.732     34.158   3.360  9.26253E-01  1.00198E+00 -7.57253E-02
    9032.762     35.189   3.400  9.13875E-01  1.00070E+00 -8.68237E-02
    9033.804     36.231   3.440  9.01751E-01  9.99486E-01 -9.77346E-02
    9034.859     37.286   3.480  8.91600E-01  9.98321E-01 -1.06722E-01
    9035.926     38.352   3.520  8.84788E-01  9.97229E-01 -1.12441E-01
    9037.005     39.431   3.560  8.81853E-01  9.96189E-01 -1.14336E-01
    9038.096     40.523   3.600  8.82577E-01  9.95223E-01 -1.12646E-01
    9039.199     41.626   3.640  8.86357E-01  9.94336E-01 -1.07980E-01
    9040.315     42.742   3.680  8.92535E-01  9.93529E-01 -1.00994E-01
    9041.443     43.869   3.720  9.00348E-01  9.92800E-01 -9.24521E-02
    9042.583     45.009   3.760  9.09065E-01  9.92150E-01 -8.30858E-02
    9043.735     46.161   3.800  9.17908E-01  9.91582E-01 -7.36739E-02
    9044.899     47.326   3.840  9.26230E-01  9.91094E-01 -6.48637E-02
    9046.076     48.502   3.880  9.33789E-01  9.90685E-01 -5.68960E-02
    9047.264     49.691   3.920  9.40984E-01  9.90354E-01 -4.93705E-02
    9048.465     50.892   3.960  9.48628E-01  9.90082E-01 -4.14540E-02
    9049.678     52.105   4.000  9.57671E-01  9.89910E-01 -3.22389E-02
    9050.904     53.330   4.040  9.68746E-01  9.89817E-01 -2.10710E-02
    9052.141     54.568   4.080  9.81825E-01  9.89779E-01 -7.95371E-03
    9053.391     55.817   4.120  9.95944E-01  9.89818E-01  6.12602E-03
    9054.653     57.079   4.160  1.00921E+00  9.89932E-01  1.92780E-02
    9055.927     58.353   4.200  1.01946E+00  9.90121E-01  2.93436E-02
    9057.213     59.640   4.240  1.02525E+00  9.90362E-01  3.48893E-02
    9058.511     60.938   4.280  1.02658E+00  9.90673E-01  3.59101E-02
    9059.822     62.249   4.320  1.02469E+00  9.91032E-01  3.36613E-02
    9061.145     63.572   4.360  1.02136E+00  9.91440E-01  2.99161E-02
    9062.480     64.907   4.400  1.01836E+00  9.91914E-01  2.64435E-02
    9063.827     66.254   4.440  1.01717E+00  9.92456E-01  2.47119E-02
    9065.187     67.613   4.480  1.01878E+00  9.93019E-01  2.57651E-02
    9066.558     68.985   4.520  1.02371E+00  9.93620E-01  3.00886E-02
    9067.942     70.369   4.560  1.03184E+00  9.94258E-01  3.75770E-02
    9069.338     71.765   4.600  1.04238E+00  9.94935E-01  4.74499E-02
    9070.746     73.173   4.640  1.05389E+00  9.95646E-01  5.82407E-02
    9072.166     74.593   4.680  1.06440E+00  9.96368E-01  6.80298E-02
    9073.599     76.026   4.720  1.07205E+00  9.97121E-01  7.49331E-02
    9075.044     77.470   4.760  1.07558E+00  9.97880E-01  7.76959E-02
    9076.501     78.927   4.800  1.07488E+00  9.98668E-01  7.62115E-02
    9077.970     80.396   4.840  1.07073E+00  9.99457E-01  7.12750E-02
    9079.451     81.878   4.880  1.06395E+00  1.00022E+00  6.37259E-02
    9080.945     83.371   4.920  1.05500E+00  1.00101E+00  5.39866E-02
    9082.450     84.877   4.960  1.04422E+00  1.00180E+00  4.24205E-02
    9083.968     86.395   5.000  1.03244E+00  1.00255E+00  2.98844E-02
    9085.498     87.925   5.040  1.02115E+00  1.00330E+00  1.78456E-02
    9087.041     89.467   5.080  1.01193E+00  1.00402E+00  7.91204E-03
    9088.595     91.022   5.120  1.00612E+00  1.00472E+00  1.39428E-03
    9090.162     92.588   5.160  1.00434E+00  1.00540E+00 -1.05566E-03
    9091.741     94.167   5.200  1.00634E+00  1.00605E+00  2.85685E-04
    9093.332     95.758   5.240  1.01070E+00  1.00667E+00  4.02692E-03
    9094.935     97.362   5.280  1.01523E+00  1.00723E+00  7.99756E-03
    9096.550     98.977   5.320  1.01792E+00  1.00777E+00  1.01455E-02
    9098.178    100.605   5.360  1.01752E+00  1.00827E+00  9.25145E-03
    9099.818    102.244   5.400  1.01454E+00  1.00873E+00  5.81091E-03
    9101.470    103.896   5.440  1.01021E+00  1.00911E+00  1.09961E-03
    9103.134    105.561   5.480  1.00578E+00  1.00948E+00 -3.69736E-03
    9104.810    107.237   5.520  1.00171E+00  1.00978E+00 -8.07012E-03
    9106.499    108.926   5.560  9.97902E-01  1.01000E+00 -1.21027E-02
    9108.200    110.626   5.600  9.94200E-01  1.01021E+00 -1.60070E-02
    9109.913    112.339   5.640  9.90550E-01  1.01034E+00 -1.97894E-02
    9111.638    114.064   5.680  9.87244E-01  1.01040E+00 -2.31561E-02
    9113.375    115.802   5.720  9.84230E-01  1.01041E+00 -2.61829E-02
    9115.125    117.551   5.760  9.81063E-01  1.01038E+00 -2.93163E-02
    9116.887    119.313   5.800  9.77080E-01  1.01028E+00 -3.31951E-02
    9118.660    121.087   5.840  9.72123E-01  1.01013E+00 -3.80034E-02
    9120.447    122.873   5.880  9.66846E-01  1.00993E+00 -4.30868E-02
    9122.245    124.671   5.920  9.62403E-01  1.00967E+00 -4.72663E-02
    9124.055    126.482   5.960  9.59902E-01  1.00935E+00 -4.94526E-02
    9125.878    128.305   6.000  9.59916E-01  1.00892E+00 -4.90082E-02
