# # comment:                                                     FEFF 9.9.1  
# # Source:
# # Structure
# # Reduced
# # space
# # abc:
# # angles:
# # sites:
# # POT  SCF 100  7.0000   0, screened core-hole, AFOLP (folp(0)= 1.150)
# # Abs   Z=29 Rmt= 1.192 Rnm= 1.289 K  shell
# # Pot 1 Z=56 Rmt= 1.995 Rnm= 2.044
# # Pot 2 Z=29 Rmt= 1.184 Rnm= 1.277
# # Pot 3 Z= 8 Rmt= 1.067 Rnm= 1.126
# # Gam_ch=1.729E+00 H-L exch Vi= 0.000E+00 Vr= 0.000E+00
# # Mu=-8.709E+00eV kf=1.976E+00 Vint=-1.657E+01eV Rs_int= 1.835
# FMS rfms= 9.0000
# # PATH  Rmax=-1.000,  Keep_limit= 0.00, Heap_limit 0.00  Pwcrit= 2.50%
#  S02=0.950  Temp=   0.00  Debye_temp=   0.00  Global_sig2= 0.00000
#  Energy zero shift, vr, vi    0.00000E+00   0.00000E+00
#  Curved wave amplitude ratio filter   4.000%
#     file         sig2 tot  cw amp ratio   deg  nlegs   reff  inp sig2
#     0/   0 paths used
#  xsedge+ 50, used to normalize mu           2.4270E-04
#  -----------------------------------------------------------------------
#  omega    e    k    mu    mu0     chi     @#
    8985.012    -12.519  -1.000  3.56968E-02  5.78246E-02 -2.21278E-02
    8985.311    -12.221  -0.960  3.74204E-02  6.20875E-02 -2.46671E-02
    8985.597    -11.934  -0.920  3.92688E-02  6.68264E-02 -2.75576E-02
    8985.872    -11.660  -0.880  4.12569E-02  7.21111E-02 -3.08542E-02
    8986.134    -11.398  -0.840  4.34023E-02  7.80228E-02 -3.46205E-02
    8986.384    -11.148  -0.800  4.57255E-02  8.46558E-02 -3.89303E-02
    8986.621    -10.910  -0.760  4.82502E-02  9.21179E-02 -4.38678E-02
    8986.847    -10.684  -0.720  5.10033E-02  1.00531E-01 -4.95278E-02
    8987.060    -10.471  -0.680  5.40149E-02  1.10029E-01 -5.60145E-02
    8987.262    -10.270  -0.640  5.73170E-02  1.20755E-01 -6.34376E-02
    8987.450    -10.081  -0.600  6.09404E-02  1.32845E-01 -7.19048E-02
    8987.627     -9.904  -0.560  6.49109E-02  1.46420E-01 -8.15090E-02
    8987.792     -9.739  -0.520  6.92410E-02  1.61549E-01 -9.23076E-02
    8987.944     -9.587  -0.480  7.39205E-02  1.78216E-01 -1.04295E-01
    8988.084     -9.447  -0.440  7.89037E-02  1.96275E-01 -1.17371E-01
    8988.212     -9.319  -0.400  8.41008E-02  2.15412E-01 -1.31312E-01
    8988.328     -9.203  -0.360  8.93754E-02  2.35136E-01 -1.45761E-01
    8988.432     -9.099  -0.320  9.45561E-02  2.54806E-01 -1.60250E-01
    8988.523     -9.008  -0.280  9.94594E-02  2.73711E-01 -1.74251E-01
    8988.603     -8.929  -0.240  1.03918E-01  2.91166E-01 -1.87248E-01
    8988.670     -8.862  -0.200  1.07802E-01  3.06597E-01 -1.98795E-01
    8988.725     -8.807  -0.160  1.11028E-01  3.19583E-01 -2.08554E-01
    8988.767     -8.764  -0.120  1.13551E-01  3.29852E-01 -2.16301E-01
    8988.798     -8.734  -0.080  1.15350E-01  3.37253E-01 -2.21903E-01
    8988.822     -8.709   0.000  1.16776E-01  3.43201E-01 -2.26425E-01
    8988.877     -8.654   0.120  1.20096E-01  3.56614E-01 -2.36518E-01
    8988.920     -8.612   0.160  1.22607E-01  3.67031E-01 -2.44424E-01
    8988.974     -8.557   0.200  1.25777E-01  3.80366E-01 -2.54589E-01
    8989.042     -8.490   0.240  1.29472E-01  3.96407E-01 -2.66935E-01
    8989.121     -8.411   0.280  1.33592E-01  4.14844E-01 -2.81251E-01
    8989.212     -8.319   0.320  1.37973E-01  4.35224E-01 -2.97250E-01
    8989.316     -8.215   0.360  1.42449E-01  4.56980E-01 -3.14530E-01
    8989.432     -8.100   0.400  1.46834E-01  4.79466E-01 -3.32633E-01
    8989.560     -7.972   0.440  1.51045E-01  5.02151E-01 -3.51107E-01
    8989.700     -7.831   0.480  1.55018E-01  5.24584E-01 -3.69566E-01
    8989.852     -7.679   0.520  1.58810E-01  5.46447E-01 -3.87637E-01
    8990.017     -7.514   0.560  1.62671E-01  5.67613E-01 -4.04942E-01
    8990.194     -7.338   0.600  1.67102E-01  5.88063E-01 -4.20961E-01
    8990.383     -7.149   0.640  1.72710E-01  6.07791E-01 -4.35082E-01
    8990.584     -6.948   0.680  1.80277E-01  6.26890E-01 -4.46613E-01
    8990.797     -6.734   0.720  1.90445E-01  6.45445E-01 -4.55000E-01
    8991.023     -6.509   0.760  2.03604E-01  6.63540E-01 -4.59936E-01
    8991.260     -6.271   0.800  2.19933E-01  6.81229E-01 -4.61296E-01
    8991.510     -6.021   0.840  2.39556E-01  6.98550E-01 -4.58994E-01
    8991.773     -5.759   0.880  2.62645E-01  7.15569E-01 -4.52924E-01
    8992.047     -5.484   0.920  2.88976E-01  7.32294E-01 -4.43318E-01
    8992.333     -5.198   0.960  3.17446E-01  7.48724E-01 -4.31278E-01
    8992.632     -4.899   1.000  3.46646E-01  7.64886E-01 -4.18240E-01
    8992.943     -4.588   1.040  3.76082E-01  7.80714E-01 -4.04632E-01
    8993.266     -4.265   1.080  4.06938E-01  7.96241E-01 -3.89303E-01
    8993.601     -3.930   1.120  4.39647E-01  8.11409E-01 -3.71762E-01
    8993.949     -3.583   1.160  4.71427E-01  8.26200E-01 -3.54772E-01
    8994.308     -3.223   1.200  4.99320E-01  8.40589E-01 -3.41269E-01
    8994.680     -2.851   1.240  5.25607E-01  8.54549E-01 -3.28942E-01
    8995.064     -2.467   1.280  5.55523E-01  8.68034E-01 -3.12511E-01
    8995.461     -2.071   1.320  5.90699E-01  8.81015E-01 -2.90316E-01
    8995.869     -1.662   1.360  6.27145E-01  8.93487E-01 -2.66342E-01
    8996.290     -1.242   1.400  6.58519E-01  9.05400E-01 -2.46882E-01
    8996.722     -0.809   1.440  6.84817E-01  9.16748E-01 -2.31932E-01
    8997.167     -0.364   1.480  7.14040E-01  9.27507E-01 -2.13467E-01
    8997.625      0.093   1.520  7.57770E-01  9.37651E-01 -1.79881E-01
    8998.094      0.563   1.560  8.28650E-01  9.47199E-01 -1.18549E-01
    8998.576      1.044   1.600  9.25426E-01  9.56132E-01 -3.07061E-02
    8999.069      1.538   1.640  1.02824E+00  9.64451E-01  6.37848E-02
    8999.575      2.044   1.680  1.11547E+00  9.72136E-01  1.43333E-01
    9000.094      2.562   1.720  1.18253E+00  9.79215E-01  2.03320E-01
    9000.624      3.093   1.760  1.23761E+00  9.85713E-01  2.51899E-01
    9001.166      3.635   1.800  1.29584E+00  9.91596E-01  3.04241E-01
    9001.721      4.190   1.840  1.35021E+00  9.96937E-01  3.53278E-01
    9002.288      4.757   1.880  1.37772E+00  1.00170E+00  3.76013E-01
    9002.867      5.336   1.920  1.38250E+00  1.00593E+00  3.76574E-01
    9003.459      5.927   1.960  1.38060E+00  1.00966E+00  3.70938E-01
    9004.062      6.531   2.000  1.37172E+00  1.01289E+00  3.58829E-01
    9004.678      7.146   2.040  1.34797E+00  1.01566E+00  3.32303E-01
    9005.306      7.774   2.080  1.30478E+00  1.01800E+00  2.86779E-01
    9005.946      8.414   2.120  1.25323E+00  1.01990E+00  2.33327E-01
    9006.598      9.067   2.160  1.21444E+00  1.02144E+00  1.93003E-01
    9007.262      9.731   2.200  1.19663E+00  1.02263E+00  1.73998E-01
    9007.939     10.408   2.240  1.19248E+00  1.02347E+00  1.69012E-01
    9008.628     11.097   2.280  1.19108E+00  1.02400E+00  1.67080E-01
    9009.329     11.798   2.320  1.18496E+00  1.02427E+00  1.60692E-01
    9010.042     12.511   2.360  1.17221E+00  1.02426E+00  1.47950E-01
    9010.768     13.236   2.400  1.15898E+00  1.02403E+00  1.34950E-01
    9011.505     13.974   2.440  1.15075E+00  1.02362E+00  1.27130E-01
    9012.255     14.724   2.480  1.14439E+00  1.02301E+00  1.21380E-01
    9013.017     15.486   2.520  1.13637E+00  1.02223E+00  1.14137E-01
    9013.791     16.260   2.560  1.12442E+00  1.02132E+00  1.03093E-01
    9014.578     17.046   2.600  1.10840E+00  1.02029E+00  8.81074E-02
    9015.376     17.845   2.640  1.08960E+00  1.01917E+00  7.04333E-02
    9016.187     18.656   2.680  1.06917E+00  1.01796E+00  5.12155E-02
    9017.010     19.479   2.720  1.04811E+00  1.01670E+00  3.14091E-02
    9017.845     20.314   2.760  1.02663E+00  1.01539E+00  1.12436E-02
    9018.692     21.161   2.800  1.00440E+00  1.01402E+00 -9.61744E-03
    9019.552     22.021   2.840  9.81785E-01  1.01266E+00 -3.08729E-02
    9020.424     22.892   2.880  9.59553E-01  1.01127E+00 -5.17189E-02
    9021.308     23.776   2.920  9.38640E-01  1.00989E+00 -7.12473E-02
    9022.204     24.672   2.960  9.20223E-01  1.00853E+00 -8.83066E-02
    9023.112     25.581   3.000  9.04976E-01  1.00720E+00 -1.02228E-01
    9024.032     26.501   3.040  8.93077E-01  1.00589E+00 -1.12816E-01
    9024.965     27.434   3.080  8.84551E-01  1.00464E+00 -1.20094E-01
    9025.910     28.379   3.120  8.79042E-01  1.00342E+00 -1.24377E-01
    9026.867     29.336   3.160  8.76057E-01  1.00228E+00 -1.26228E-01
    9027.836     30.305   3.200  8.74981E-01  1.00118E+00 -1.26198E-01
    9028.818     31.286   3.240  8.75471E-01  1.00017E+00 -1.24697E-01
    9029.811     32.280   3.280  8.76944E-01  9.99215E-01 -1.22272E-01
    9030.817     33.286   3.320  8.79257E-01  9.98361E-01 -1.19104E-01
    9031.835     34.304   3.360  8.82436E-01  9.97565E-01 -1.15129E-01
    9032.865     35.334   3.400  8.86607E-01  9.96851E-01 -1.10244E-01
    9033.908     36.377   3.440  8.91695E-01  9.96220E-01 -1.04525E-01
    9034.963     37.431   3.480  8.97655E-01  9.95691E-01 -9.80356E-02
    9036.029     38.498   3.520  9.04430E-01  9.95225E-01 -9.07950E-02
    9037.108     39.577   3.560  9.11937E-01  9.94866E-01 -8.29295E-02
    9038.199     40.668   3.600  9.20023E-01  9.94591E-01 -7.45681E-02
    9039.303     41.772   3.640  9.28495E-01  9.94400E-01 -6.59046E-02
    9040.418     42.887   3.680  9.37112E-01  9.94292E-01 -5.71800E-02
    9041.546     44.015   3.720  9.45680E-01  9.94290E-01 -4.86091E-02
    9042.686     45.155   3.760  9.54237E-01  9.94347E-01 -4.01100E-02
    9043.838     46.307   3.800  9.63029E-01  9.94485E-01 -3.14566E-02
    9045.003     47.471   3.840  9.72328E-01  9.94726E-01 -2.23981E-02
    9046.179     48.648   3.880  9.82216E-01  9.95024E-01 -1.28079E-02
    9047.368     49.837   3.920  9.92609E-01  9.95399E-01 -2.79030E-03
    9048.569     51.037   3.960  1.00306E+00  9.95851E-01  7.21362E-03
    9049.782     52.251   4.000  1.01303E+00  9.96354E-01  1.66799E-02
    9051.007     53.476   4.040  1.02217E+00  9.96931E-01  2.52443E-02
    9052.245     54.713   4.080  1.03033E+00  9.97577E-01  3.27486E-02
    9053.494     55.963   4.120  1.03745E+00  9.98250E-01  3.91982E-02
    9054.756     57.225   4.160  1.04376E+00  9.98989E-01  4.47704E-02
    9056.030     58.499   4.200  1.04949E+00  9.99793E-01  4.96949E-02
    9057.316     59.785   4.240  1.05476E+00  1.00062E+00  5.41474E-02
    9058.615     61.084   4.280  1.05978E+00  1.00148E+00  5.83042E-02
    9059.926     62.394   4.320  1.06462E+00  1.00237E+00  6.22460E-02
    9061.248     63.717   4.360  1.06918E+00  1.00328E+00  6.58972E-02
    9062.583     65.052   4.400  1.07335E+00  1.00422E+00  6.91259E-02
    9063.931     66.399   4.440  1.07707E+00  1.00519E+00  7.18819E-02
    9065.290     67.759   4.480  1.08039E+00  1.00617E+00  7.42269E-02
    9066.662     69.130   4.520  1.08335E+00  1.00714E+00  7.62099E-02
    9068.045     70.514   4.560  1.08585E+00  1.00812E+00  7.77354E-02
    9069.441     71.910   4.600  1.08741E+00  1.00909E+00  7.83205E-02
    9070.850     73.318   4.640  1.08732E+00  1.01004E+00  7.72823E-02
    9072.270     74.739   4.680  1.08509E+00  1.01099E+00  7.40997E-02
    9073.702     76.171   4.720  1.08057E+00  1.01190E+00  6.86678E-02
    9075.147     77.616   4.760  1.07410E+00  1.01282E+00  6.12886E-02
    9076.604     79.073   4.800  1.06612E+00  1.01367E+00  5.24465E-02
    9078.073     80.542   4.840  1.05705E+00  1.01452E+00  4.25330E-02
    9079.555     82.023   4.880  1.04715E+00  1.01532E+00  3.18332E-02
    9081.048     83.517   4.920  1.03673E+00  1.01608E+00  2.06474E-02
    9082.554     85.022   4.960  1.02617E+00  1.01680E+00  9.36798E-03
    9084.072     86.540   5.000  1.01596E+00  1.01748E+00 -1.52505E-03
    9085.602     88.070   5.040  1.00650E+00  1.01811E+00 -1.16082E-02
    9087.144     89.613   5.080  9.98155E-01  1.01867E+00 -2.05164E-02
    9088.699     91.167   5.120  9.91246E-01  1.01918E+00 -2.79373E-02
    9090.265     92.734   5.160  9.86001E-01  1.01965E+00 -3.36445E-02
    9091.844     94.313   5.200  9.82532E-01  1.02003E+00 -3.75016E-02
    9093.435     95.904   5.240  9.80761E-01  1.02035E+00 -3.95874E-02
    9095.038     97.507   5.280  9.80406E-01  1.02063E+00 -4.02283E-02
    9096.654     99.122   5.320  9.80757E-01  1.02082E+00 -4.00679E-02
    9098.281    100.750   5.360  9.81117E-01  1.02096E+00 -3.98463E-02
    9099.921    102.390   5.400  9.80899E-01  1.02105E+00 -4.01507E-02
    9101.573    104.042   5.440  9.80087E-01  1.02106E+00 -4.09736E-02
    9103.237    105.706   5.480  9.79023E-01  1.02100E+00 -4.19752E-02
    9104.914    107.382   5.520  9.78061E-01  1.02088E+00 -4.28218E-02
    9106.602    109.071   5.560  9.77268E-01  1.02069E+00 -4.34265E-02
    9108.303    110.772   5.600  9.76557E-01  1.02046E+00 -4.39010E-02
    9110.016    112.485   5.640  9.75721E-01  1.02017E+00 -4.44526E-02
    9111.741    114.210   5.680  9.74798E-01  1.01982E+00 -4.50190E-02
    9113.479    115.947   5.720  9.74006E-01  1.01939E+00 -4.53836E-02
    9115.228    117.697   5.760  9.73904E-01  1.01894E+00 -4.50361E-02
    9116.990    119.459   5.800  9.75007E-01  1.01843E+00 -4.34184E-02
    9118.764    121.233   5.840  9.77772E-01  1.01787E+00 -4.00971E-02
    9120.550    123.019   5.880  9.82374E-01  1.01728E+00 -3.49028E-02
    9122.348    124.817   5.920  9.88653E-01  1.01665E+00 -2.79967E-02
    9124.159    126.627   5.960  9.96085E-01  1.01599E+00 -1.99053E-02
    9125.981    128.450   6.000  1.00402E+00  1.01526E+00 -1.12399E-02
