# # comment:                                                     FEFF 9.9.1  
# # Source:
# # Structure
# # Reduced
# # space
# # abc:
# # angles:
# # sites:
# # POT  SCF 100  7.0000   0, screened core-hole, AFOLP (folp(0)= 1.150)
# # Abs   Z=29 Rmt= 1.346 Rnm= 1.408 K  shell
# # Pot 1 Z= 3 Rmt= 1.456 Rnm= 1.519
# # Pot 2 Z=29 Rmt= 1.282 Rnm= 1.339
# # Pot 3 Z=15 Rmt= 0.950 Rnm= 1.162
# # Pot 4 Z= 8 Rmt= 0.917 Rnm= 1.041
# # Gam_ch=1.729E+00 H-L exch Vi= 0.000E+00 Vr= 0.000E+00
# # Mu=-6.493E+00eV kf=2.443E+00 Vint=-1.725E+01eV Rs_int= 1.485
# FMS rfms= 9.0000
# # PATH  Rmax=-1.000,  Keep_limit= 0.00, Heap_limit 0.00  Pwcrit= 2.50%
#  S02=0.950  Temp=   0.00  Debye_temp=   0.00  Global_sig2= 0.00000
#  Energy zero shift, vr, vi    0.00000E+00   0.00000E+00
#  Curved wave amplitude ratio filter   4.000%
#     file         sig2 tot  cw amp ratio   deg  nlegs   reff  inp sig2
#     0/   0 paths used
#  xsedge+ 50, used to normalize mu           2.4723E-04
#  -----------------------------------------------------------------------
#  omega    e    k    mu    mu0     chi     @#
    8983.339    -10.303  -1.000  4.56897E-02  5.26478E-02 -6.95818E-03
    8983.637    -10.004  -0.960  4.83490E-02  5.64433E-02 -8.09434E-03
    8983.924     -9.718  -0.920  5.12200E-02  6.06606E-02 -9.44065E-03
    8984.198     -9.444  -0.880  5.43231E-02  6.53620E-02 -1.10389E-02
    8984.460     -9.181  -0.840  5.76807E-02  7.06201E-02 -1.29394E-02
    8984.710     -8.931  -0.800  6.13167E-02  7.65191E-02 -1.52024E-02
    8984.948     -8.694  -0.760  6.52566E-02  8.31556E-02 -1.78989E-02
    8985.173     -8.468  -0.720  6.95267E-02  9.06388E-02 -2.11121E-02
    8985.387     -8.255  -0.680  7.41531E-02  9.90892E-02 -2.49362E-02
    8985.588     -8.054  -0.640  7.91599E-02  1.08634E-01 -2.94741E-02
    8985.777     -7.865  -0.600  8.45671E-02  1.19398E-01 -3.48311E-02
    8985.954     -7.688  -0.560  9.03863E-02  1.31489E-01 -4.11023E-02
    8986.118     -7.523  -0.520  9.66153E-02  1.44969E-01 -4.83534E-02
    8986.271     -7.371  -0.480  1.03232E-01  1.59825E-01 -5.65927E-02
    8986.411     -7.231  -0.440  1.10187E-01  1.75927E-01 -6.57397E-02
    8986.539     -7.103  -0.400  1.17395E-01  1.92992E-01 -7.55975E-02
    8986.655     -6.987  -0.360  1.24733E-01  2.10580E-01 -8.58472E-02
    8986.758     -6.883  -0.320  1.32042E-01  2.28116E-01 -9.60741E-02
    8986.850     -6.792  -0.280  1.39134E-01  2.44963E-01 -1.05829E-01
    8986.929     -6.713  -0.240  1.45807E-01  2.60508E-01 -1.14701E-01
    8986.996     -6.645  -0.200  1.51859E-01  2.74241E-01 -1.22382E-01
    8987.051     -6.591  -0.160  1.57103E-01  2.85788E-01 -1.28685E-01
    8987.094     -6.548  -0.120  1.61374E-01  2.94912E-01 -1.33538E-01
    8987.124     -6.517  -0.080  1.64541E-01  3.01483E-01 -1.36942E-01
    8987.149     -6.493   0.000  1.67185E-01  3.06760E-01 -1.39575E-01
    8987.203     -6.438   0.120  1.73228E-01  3.18651E-01 -1.45423E-01
    8987.246     -6.396   0.160  1.78018E-01  3.27892E-01 -1.49873E-01
    8987.301     -6.341   0.200  1.84362E-01  3.39679E-01 -1.55317E-01
    8987.368     -6.274   0.240  1.92428E-01  3.53866E-01 -1.61438E-01
    8987.447     -6.194   0.280  2.02381E-01  3.70117E-01 -1.67736E-01
    8987.539     -6.103   0.320  2.14448E-01  3.88005E-01 -1.73557E-01
    8987.642     -5.999   0.360  2.28939E-01  4.07042E-01 -1.78103E-01
    8987.758     -5.883   0.400  2.46139E-01  4.26629E-01 -1.80490E-01
    8987.886     -5.755   0.440  2.66404E-01  4.46253E-01 -1.79849E-01
    8988.026     -5.615   0.480  2.90123E-01  4.65520E-01 -1.75397E-01
    8988.179     -5.463   0.520  3.17577E-01  4.84183E-01 -1.66605E-01
    8988.343     -5.298   0.560  3.48599E-01  5.02106E-01 -1.53507E-01
    8988.520     -5.121   0.600  3.82176E-01  5.19303E-01 -1.37127E-01
    8988.709     -4.933   0.640  4.16198E-01  5.35775E-01 -1.19577E-01
    8988.910     -4.731   0.680  4.48310E-01  5.51678E-01 -1.03368E-01
    8989.124     -4.518   0.720  4.76736E-01  5.67044E-01 -9.03084E-02
    8989.349     -4.292   0.760  5.00761E-01  5.82043E-01 -8.12819E-02
    8989.587     -4.055   0.800  5.20090E-01  5.96697E-01 -7.66070E-02
    8989.837     -3.805   0.840  5.35791E-01  6.11136E-01 -7.53450E-02
    8990.099     -3.543   0.880  5.49768E-01  6.25414E-01 -7.56458E-02
    8990.373     -3.268   0.920  5.61621E-01  6.39554E-01 -7.79332E-02
    8990.660     -2.982   0.960  5.69839E-01  6.53628E-01 -8.37895E-02
    8990.959     -2.683   1.000  5.77589E-01  6.67635E-01 -9.00459E-02
    8991.269     -2.372   1.040  5.91130E-01  6.81605E-01 -9.04757E-02
    8991.593     -2.049   1.080  6.13032E-01  6.95542E-01 -8.25105E-02
    8991.928     -1.714   1.120  6.42090E-01  7.09442E-01 -6.73512E-02
    8992.275     -1.366   1.160  6.76374E-01  7.23295E-01 -4.69209E-02
    8992.635     -1.007   1.200  7.13510E-01  7.37088E-01 -2.35773E-02
    8993.007     -0.635   1.240  7.50133E-01  7.50822E-01 -6.89024E-04
    8993.391     -0.251   1.280  7.84242E-01  7.64476E-01  1.97661E-02
    8993.787      0.145   1.320  8.19449E-01  7.78007E-01  4.14422E-02
    8994.196      0.554   1.360  8.64941E-01  7.91428E-01  7.35129E-02
    8994.616      0.974   1.400  9.28753E-01  8.04671E-01  1.24082E-01
    8995.049      1.407   1.440  1.00603E+00  8.17726E-01  1.88306E-01
    8995.494      1.852   1.480  1.08132E+00  8.30565E-01  2.50758E-01
    8995.951      2.310   1.520  1.14410E+00  8.43155E-01  3.00940E-01
    8996.421      2.779   1.560  1.18734E+00  8.55487E-01  3.31855E-01
    8996.902      3.260   1.600  1.20787E+00  8.67529E-01  3.40339E-01
    8997.396      3.754   1.640  1.20558E+00  8.79229E-01  3.26351E-01
    8997.902      4.260   1.680  1.19238E+00  8.90596E-01  3.01785E-01
    8998.420      4.778   1.720  1.18060E+00  9.01581E-01  2.79018E-01
    8998.950      5.309   1.760  1.17220E+00  9.12174E-01  2.60024E-01
    8999.493      5.851   1.800  1.16247E+00  9.22346E-01  2.40124E-01
    9000.048      6.406   1.840  1.14941E+00  9.32090E-01  2.17323E-01
    9000.615      6.973   1.880  1.13479E+00  9.41396E-01  1.93398E-01
    9001.194      7.552   1.920  1.11669E+00  9.50219E-01  1.66469E-01
    9001.785      8.143   1.960  1.09646E+00  9.58577E-01  1.37884E-01
    9002.389      8.747   2.000  1.08699E+00  9.66465E-01  1.20529E-01
    9003.004      9.363   2.040  1.09303E+00  9.73859E-01  1.19170E-01
    9003.632      9.990   2.080  1.10611E+00  9.80758E-01  1.25351E-01
    9004.272     10.631   2.120  1.12077E+00  9.87161E-01  1.33606E-01
    9004.924     11.283   2.160  1.13379E+00  9.93072E-01  1.40719E-01
    9005.589     11.947   2.200  1.13290E+00  9.98490E-01  1.34410E-01
    9006.266     12.624   2.240  1.11250E+00  1.00344E+00  1.09059E-01
    9006.954     13.313   2.280  1.08164E+00  1.00791E+00  7.37298E-02
    9007.655     14.014   2.320  1.04647E+00  1.01192E+00  3.45467E-02
    9008.369     14.727   2.360  1.01024E+00  1.01548E+00 -5.23896E-03
    9009.094     15.452   2.400  9.80844E-01  1.01859E+00 -3.77422E-02
    9009.832     16.190   2.440  9.64025E-01  1.02128E+00 -5.72541E-02
    9010.582     16.940   2.480  9.60070E-01  1.02356E+00 -6.34938E-02
    9011.343     17.702   2.520  9.66966E-01  1.02545E+00 -5.84817E-02
    9012.118     18.476   2.560  9.79131E-01  1.02696E+00 -4.78283E-02
    9012.904     19.262   2.600  9.87905E-01  1.02813E+00 -4.02261E-02
    9013.703     20.061   2.640  9.87461E-01  1.02897E+00 -4.15095E-02
    9014.513     20.872   2.680  9.77956E-01  1.02947E+00 -5.15133E-02
    9015.336     21.695   2.720  9.64782E-01  1.02970E+00 -6.49147E-02
    9016.172     22.530   2.760  9.50560E-01  1.02964E+00 -7.90849E-02
    9017.019     23.377   2.800  9.30512E-01  1.02934E+00 -9.88303E-02
    9017.878     24.237   2.840  9.04767E-01  1.02880E+00 -1.24034E-01
    9018.750     25.108   2.880  8.84732E-01  1.02805E+00 -1.43321E-01
    9019.634     25.992   2.920  8.74136E-01  1.02713E+00 -1.52991E-01
    9020.530     26.888   2.960  8.71195E-01  1.02601E+00 -1.54816E-01
    9021.438     27.797   3.000  8.73867E-01  1.02476E+00 -1.50890E-01
    9022.359     28.717   3.040  8.80654E-01  1.02335E+00 -1.42698E-01
    9023.292     29.650   3.080  8.90354E-01  1.02185E+00 -1.31493E-01
    9024.236     30.595   3.120  9.02071E-01  1.02023E+00 -1.18161E-01
    9025.194     31.552   3.160  9.15017E-01  1.01853E+00 -1.03517E-01
    9026.163     32.521   3.200  9.28506E-01  1.01678E+00 -8.82760E-02
    9027.144     33.503   3.240  9.42265E-01  1.01496E+00 -7.26989E-02
    9028.138     34.496   3.280  9.56616E-01  1.01313E+00 -5.65123E-02
    9029.144     35.502   3.320  9.71989E-01  1.01128E+00 -3.92922E-02
    9030.162     36.520   3.360  9.88879E-01  1.00941E+00 -2.05298E-02
    9031.192     37.550   3.400  1.00724E+00  1.00754E+00 -2.91378E-04
    9032.234     38.593   3.440  1.02652E+00  1.00569E+00  2.08350E-02
    9033.289     39.647   3.480  1.04569E+00  1.00386E+00  4.18325E-02
    9034.356     40.714   3.520  1.06346E+00  1.00208E+00  6.13763E-02
    9035.435     41.793   3.560  1.07810E+00  1.00033E+00  7.77753E-02
    9036.526     42.884   3.600  1.08813E+00  9.98638E-01  8.94948E-02
    9037.629     43.988   3.640  1.09270E+00  9.97021E-01  9.56773E-02
    9038.745     45.103   3.680  1.09170E+00  9.95457E-01  9.62480E-02
    9039.873     46.231   3.720  1.08589E+00  9.93969E-01  9.19241E-02
    9041.013     47.371   3.760  1.07659E+00  9.92561E-01  8.40303E-02
    9042.165     48.523   3.800  1.06517E+00  9.91236E-01  7.39365E-02
    9043.329     49.687   3.840  1.05284E+00  9.90016E-01  6.28240E-02
    9044.506     50.864   3.880  1.04057E+00  9.88882E-01  5.16893E-02
    9045.694     52.053   3.920  1.02913E+00  9.87833E-01  4.12954E-02
    9046.895     53.254   3.960  1.01915E+00  9.86873E-01  3.22766E-02
    9048.108     54.467   4.000  1.01123E+00  9.86044E-01  2.51859E-02
    9049.334     55.692   4.040  1.00566E+00  9.85283E-01  2.03725E-02
    9050.571     56.929   4.080  1.00238E+00  9.84634E-01  1.77451E-02
    9051.821     58.179   4.120  1.00082E+00  9.84096E-01  1.67290E-02
    9053.083     59.441   4.160  1.00007E+00  9.83647E-01  1.64279E-02
    9054.357     60.715   4.200  9.99238E-01  9.83309E-01  1.59293E-02
    9055.643     62.001   4.240  9.97641E-01  9.83059E-01  1.45823E-02
    9056.941     63.300   4.280  9.95150E-01  9.82896E-01  1.22541E-02
    9058.252     64.610   4.320  9.92242E-01  9.82841E-01  9.40144E-03
    9059.575     65.933   4.360  9.89594E-01  9.82873E-01  6.72156E-03
    9060.910     67.268   4.400  9.87752E-01  9.83010E-01  4.74182E-03
    9062.257     68.615   4.440  9.86768E-01  9.83208E-01  3.56028E-03
    9063.616     69.975   4.480  9.86395E-01  9.83507E-01  2.88736E-03
    9064.988     71.346   4.520  9.86138E-01  9.83862E-01  2.27612E-03
    9066.372     72.730   4.560  9.85584E-01  9.84293E-01  1.29063E-03
    9067.768     74.126   4.600  9.84375E-01  9.84798E-01 -4.22770E-04
    9069.176     75.534   4.640  9.82362E-01  9.85353E-01 -2.99127E-03
    9070.596     76.955   4.680  9.79778E-01  9.85978E-01 -6.19993E-03
    9072.029     78.387   4.720  9.77115E-01  9.86648E-01 -9.53296E-03
    9073.474     79.832   4.760  9.74999E-01  9.87362E-01 -1.23631E-02
    9074.931     81.289   4.800  9.73921E-01  9.88137E-01 -1.42158E-02
    9076.400     82.758   4.840  9.73839E-01  9.88926E-01 -1.50872E-02
    9077.881     84.239   4.880  9.74272E-01  9.89727E-01 -1.54550E-02
    9079.375     85.733   4.920  9.74499E-01  9.90579E-01 -1.60802E-02
    9080.880     87.239   4.960  9.73786E-01  9.91417E-01 -1.76313E-02
    9082.398     88.757   5.000  9.71907E-01  9.92280E-01 -2.03730E-02
    9083.928     90.287   5.040  9.69058E-01  9.93142E-01 -2.40843E-02
    9085.471     91.829   5.080  9.65781E-01  9.93980E-01 -2.81989E-02
    9087.025     93.383   5.120  9.62779E-01  9.94834E-01 -3.20547E-02
    9088.592     94.950   5.160  9.60532E-01  9.95659E-01 -3.51268E-02
    9090.171     96.529   5.200  9.59311E-01  9.96450E-01 -3.71397E-02
    9091.762     98.120   5.240  9.59102E-01  9.97229E-01 -3.81265E-02
    9093.365     99.723   5.280  9.59615E-01  9.97970E-01 -3.83557E-02
    9094.980    101.339   5.320  9.60541E-01  9.98670E-01 -3.81297E-02
    9096.608    102.966   5.360  9.61783E-01  9.99327E-01 -3.75438E-02
    9098.248    104.606   5.400  9.63553E-01  9.99915E-01 -3.63626E-02
    9099.900    106.258   5.440  9.66344E-01  1.00046E+00 -3.41133E-02
    9101.564    107.922   5.480  9.70640E-01  1.00095E+00 -3.03146E-02
    9103.240    109.599   5.520  9.76650E-01  1.00140E+00 -2.47508E-02
    9104.929    111.287   5.560  9.84155E-01  1.00175E+00 -1.75978E-02
    9106.630    112.988   5.600  9.92744E-01  1.00207E+00 -9.32985E-03
    9108.343    114.701   5.640  1.00180E+00  1.00230E+00 -4.99059E-04
    9110.068    116.426   5.680  1.01090E+00  1.00246E+00  8.43352E-03
    9111.805    118.164   5.720  1.01962E+00  1.00253E+00  1.70863E-02
    9113.555    119.913   5.760  1.02761E+00  1.00255E+00  2.50603E-02
    9115.316    121.675   5.800  1.03440E+00  1.00251E+00  3.18940E-02
    9117.090    123.449   5.840  1.03953E+00  1.00237E+00  3.71545E-02
    9118.876    125.235   5.880  1.04273E+00  1.00216E+00  4.05708E-02
    9120.675    127.033   5.920  1.04410E+00  1.00189E+00  4.22068E-02
    9122.485    128.844   5.960  1.04398E+00  1.00154E+00  4.24392E-02
    9124.308    130.666   6.000  1.04268E+00  1.00107E+00  4.16105E-02
