# # comment:                                                     FEFF 9.9.1  
# # Source:
# # Structure
# # Reduced
# # space
# # abc:
# # angles:
# # sites:
# # POT  SCF 100  7.0000   0, screened core-hole, AFOLP (folp(0)= 1.150)
# # Abs   Z=29 Rmt= 1.376 Rnm= 1.412 K  shell
# # Pot 1 Z=29 Rmt= 1.357 Rnm= 1.398
# # Pot 2 Z= 8 Rmt= 0.924 Rnm= 1.057
# # Gam_ch=1.729E+00 H-L exch Vi= 0.000E+00 Vr= 0.000E+00
# # Mu=-7.906E+00eV kf=1.989E+00 Vint=-1.657E+01eV Rs_int= 1.823
# FMS rfms= 9.0000
# # PATH  Rmax=-1.000,  Keep_limit= 0.00, Heap_limit 0.00  Pwcrit= 2.50%
#  S02=0.950  Temp=   0.00  Debye_temp=   0.00  Global_sig2= 0.00000
#  Energy zero shift, vr, vi    0.00000E+00   0.00000E+00
#  Curved wave amplitude ratio filter   4.000%
#     file         sig2 tot  cw amp ratio   deg  nlegs   reff  inp sig2
#     0/   0 paths used
#  xsedge+ 50, used to normalize mu           2.4608E-04
#  -----------------------------------------------------------------------
#  omega    e    k    mu    mu0     chi     @#
    8984.536    -11.716  -1.000  5.07114E-02  5.75722E-02 -6.86075E-03
    8984.835    -11.417  -0.960  5.43448E-02  6.18863E-02 -7.54146E-03
    8985.121    -11.131  -0.920  5.83889E-02  6.66906E-02 -8.30176E-03
    8985.395    -10.856  -0.880  6.29059E-02  7.20582E-02 -9.15234E-03
    8985.658    -10.594  -0.840  6.79684E-02  7.80740E-02 -1.01055E-02
    8985.907    -10.344  -0.800  7.36610E-02  8.48364E-02 -1.11754E-02
    8986.145    -10.106  -0.760  8.00807E-02  9.24588E-02 -1.23781E-02
    8986.371     -9.881  -0.720  8.73371E-02  1.01069E-01 -1.37319E-02
    8986.584     -9.668  -0.680  9.55515E-02  1.10808E-01 -1.52565E-02
    8986.785     -9.466  -0.640  1.04852E-01  1.21825E-01 -1.69730E-02
    8986.974     -9.277  -0.600  1.15364E-01  1.34266E-01 -1.89014E-02
    8987.151     -9.101  -0.560  1.27198E-01  1.48256E-01 -2.10583E-02
    8987.316     -8.936  -0.520  1.40420E-01  1.63871E-01 -2.34519E-02
    8987.468     -8.784  -0.480  1.55021E-01  1.81096E-01 -2.60754E-02
    8987.608     -8.643  -0.440  1.70879E-01  1.99778E-01 -2.88994E-02
    8987.736     -8.515  -0.400  1.87726E-01  2.19592E-01 -3.18662E-02
    8987.852     -8.400  -0.360  2.05132E-01  2.40021E-01 -3.48890E-02
    8987.956     -8.296  -0.320  2.22539E-01  2.60398E-01 -3.78592E-02
    8988.047     -8.205  -0.280  2.39318E-01  2.79980E-01 -4.06621E-02
    8988.126     -8.125  -0.240  2.54858E-01  2.98053E-01 -4.31953E-02
    8988.193     -8.058  -0.200  2.68639E-01  3.14021E-01 -4.53825E-02
    8988.248     -8.003  -0.160  2.80272E-01  3.27449E-01 -4.71778E-02
    8988.291     -7.961  -0.120  2.89499E-01  3.38060E-01 -4.85615E-02
    8988.321     -7.930  -0.080  2.96169E-01  3.45702E-01 -4.95322E-02
    8988.346     -7.906   0.000  3.01554E-01  3.51837E-01 -5.02828E-02
    8988.401     -7.851   0.120  3.13571E-01  3.65679E-01 -5.21082E-02
    8988.443     -7.808   0.160  3.22940E-01  3.76418E-01 -5.34779E-02
    8988.498     -7.753   0.200  3.34947E-01  3.90133E-01 -5.51867E-02
    8988.565     -7.686   0.240  3.49453E-01  4.06614E-01 -5.71613E-02
    8988.645     -7.607   0.280  3.66196E-01  4.25520E-01 -5.93244E-02
    8988.736     -7.516   0.320  3.84757E-01  4.46338E-01 -6.15804E-02
    8988.840     -7.412   0.360  4.04616E-01  4.68454E-01 -6.38388E-02
    8988.955     -7.296   0.400  4.25133E-01  4.91197E-01 -6.60639E-02
    8989.083     -7.168   0.440  4.45665E-01  5.13969E-01 -6.83043E-02
    8989.224     -7.028   0.480  4.65539E-01  5.36268E-01 -7.07293E-02
    8989.376     -6.876   0.520  4.84186E-01  5.57820E-01 -7.36339E-02
    8989.541     -6.711   0.560  5.00993E-01  5.78444E-01 -7.74512E-02
    8989.717     -6.534   0.600  5.15398E-01  5.98124E-01 -8.27254E-02
    8989.906     -6.345   0.640  5.26745E-01  6.16857E-01 -9.01124E-02
    8990.108     -6.144   0.680  5.34496E-01  6.34768E-01 -1.00272E-01
    8990.321     -5.931   0.720  5.38181E-01  6.51953E-01 -1.13773E-01
    8990.547     -5.705   0.760  5.37627E-01  6.68469E-01 -1.30842E-01
    8990.784     -5.467   0.800  5.33276E-01  6.84421E-01 -1.51145E-01
    8991.034     -5.218   0.840  5.26254E-01  6.99881E-01 -1.73627E-01
    8991.296     -4.955   0.880  5.18339E-01  7.14909E-01 -1.96570E-01
    8991.571     -4.681   0.920  5.11729E-01  7.29523E-01 -2.17794E-01
    8991.857     -4.395   0.960  5.08716E-01  7.43733E-01 -2.35017E-01
    8992.156     -4.096   1.000  5.11416E-01  7.57599E-01 -2.46183E-01
    8992.467     -3.785   1.040  5.21232E-01  7.71087E-01 -2.49855E-01
    8992.790     -3.462   1.080  5.38470E-01  7.84221E-01 -2.45751E-01
    8993.125     -3.127   1.120  5.61984E-01  7.96974E-01 -2.34990E-01
    8993.473     -2.779   1.160  5.89733E-01  8.09357E-01 -2.19625E-01
    8993.832     -2.419   1.200  6.19677E-01  8.21317E-01 -2.01639E-01
    8994.204     -2.048   1.240  6.49799E-01  8.32899E-01 -1.83099E-01
    8994.588     -1.664   1.280  6.76881E-01  8.44044E-01 -1.67163E-01
    8994.984     -1.267   1.320  6.97514E-01  8.54755E-01 -1.57241E-01
    8995.393     -0.859   1.360  7.11202E-01  8.65012E-01 -1.53810E-01
    8995.813     -0.438   1.400  7.21764E-01  8.74816E-01 -1.53052E-01
    8996.246     -0.005   1.440  7.34767E-01  8.84170E-01 -1.49403E-01
    8996.691      0.440   1.480  7.54554E-01  8.93033E-01 -1.38479E-01
    8997.148      0.897   1.520  7.84107E-01  9.01449E-01 -1.17342E-01
    8997.618      1.366   1.560  8.25887E-01  9.09379E-01 -8.34925E-02
    8998.099      1.848   1.600  8.81704E-01  9.16828E-01 -3.51236E-02
    8998.593      2.342   1.640  9.50632E-01  9.23820E-01  2.68121E-02
    8999.099      2.847   1.680  1.02598E+00  9.30342E-01  9.56401E-02
    8999.617      3.366   1.720  1.09439E+00  9.36419E-01  1.57969E-01
    9000.148      3.896   1.760  1.14200E+00  9.42059E-01  1.99945E-01
    9000.690      4.439   1.800  1.16518E+00  9.47270E-01  2.17906E-01
    9001.245      4.993   1.840  1.16996E+00  9.52061E-01  2.17898E-01
    9001.812      5.560   1.880  1.16125E+00  9.56461E-01  2.04791E-01
    9002.391      6.139   1.920  1.14025E+00  9.60479E-01  1.79770E-01
    9002.982      6.731   1.960  1.11022E+00  9.64147E-01  1.46069E-01
    9003.586      7.334   2.000  1.07757E+00  9.67473E-01  1.10100E-01
    9004.202      7.950   2.040  1.04819E+00  9.70468E-01  7.77198E-02
    9004.829      8.578   2.080  1.02669E+00  9.73163E-01  5.35229E-02
    9005.469      9.218   2.120  1.01882E+00  9.75567E-01  4.32509E-02
    9006.122      9.870   2.160  1.03059E+00  9.77711E-01  5.28772E-02
    9006.786     10.534   2.200  1.06151E+00  9.79607E-01  8.19058E-02
    9007.463     11.211   2.240  1.09788E+00  9.81262E-01  1.16616E-01
    9008.152     11.900   2.280  1.11920E+00  9.82728E-01  1.36472E-01
    9008.853     12.601   2.320  1.11906E+00  9.84016E-01  1.35048E-01
    9009.566     13.314   2.360  1.10908E+00  9.85112E-01  1.23970E-01
    9010.291     14.040   2.400  1.09246E+00  9.86067E-01  1.06390E-01
    9011.029     14.777   2.440  1.06394E+00  9.86867E-01  7.70776E-02
    9011.779     15.527   2.480  1.02949E+00  9.87541E-01  4.19526E-02
    9012.541     16.289   2.520  9.93333E-01  9.88118E-01  5.21491E-03
    9013.315     17.063   2.560  9.61032E-01  9.88606E-01 -2.75734E-02
    9014.101     17.850   2.600  9.35556E-01  9.89009E-01 -5.34527E-02
    9014.900     18.648   2.640  9.18266E-01  9.89334E-01 -7.10682E-02
    9015.711     19.459   2.680  9.09505E-01  9.89606E-01 -8.01009E-02
    9016.534     20.282   2.720  9.08041E-01  9.89810E-01 -8.17690E-02
    9017.369     21.117   2.760  9.12402E-01  9.89994E-01 -7.75917E-02
    9018.216     21.964   2.800  9.19873E-01  9.90140E-01 -7.02661E-02
    9019.076     22.824   2.840  9.28720E-01  9.90273E-01 -6.15534E-02
    9019.947     23.696   2.880  9.37847E-01  9.90377E-01 -5.25300E-02
    9020.831     24.580   2.920  9.46864E-01  9.90474E-01 -4.36103E-02
    9021.727     25.476   2.960  9.55860E-01  9.90570E-01 -3.47094E-02
    9022.636     26.384   3.000  9.65294E-01  9.90686E-01 -2.53915E-02
    9023.556     27.305   3.040  9.75459E-01  9.90784E-01 -1.53245E-02
    9024.489     28.237   3.080  9.86377E-01  9.90908E-01 -4.53102E-03
    9025.434     29.182   3.120  9.97941E-01  9.91057E-01  6.88434E-03
    9026.391     30.139   3.160  1.00956E+00  9.91193E-01  1.83660E-02
    9027.360     31.108   3.200  1.02060E+00  9.91377E-01  2.92221E-02
    9028.342     32.090   3.240  1.03005E+00  9.91550E-01  3.84995E-02
    9029.335     33.084   3.280  1.03710E+00  9.91775E-01  4.53295E-02
    9030.341     34.089   3.320  1.04111E+00  9.92011E-01  4.91021E-02
    9031.359     35.107   3.360  1.04167E+00  9.92278E-01  4.93931E-02
    9032.389     36.138   3.400  1.03829E+00  9.92555E-01  4.57370E-02
    9033.432     37.180   3.440  1.03104E+00  9.92865E-01  3.81716E-02
    9034.486     38.235   3.480  1.02029E+00  9.93205E-01  2.70884E-02
    9035.553     39.301   3.520  1.00686E+00  9.93555E-01  1.33018E-02
    9036.632     40.380   3.560  9.91867E-01  9.93936E-01 -2.06834E-03
    9037.723     41.472   3.600  9.76540E-01  9.94324E-01 -1.77844E-02
    9038.827     42.575   3.640  9.61894E-01  9.94741E-01 -3.28471E-02
    9039.942     43.690   3.680  9.48809E-01  9.95165E-01 -4.63562E-02
    9041.070     44.818   3.720  9.38191E-01  9.95614E-01 -5.74236E-02
    9042.210     45.958   3.760  9.30856E-01  9.96047E-01 -6.51910E-02
    9043.362     47.110   3.800  9.27465E-01  9.96505E-01 -6.90403E-02
    9044.526     48.275   3.840  9.28057E-01  9.96987E-01 -6.89299E-02
    9045.703     49.451   3.880  9.31835E-01  9.97451E-01 -6.56165E-02
    9046.892     50.640   3.920  9.37484E-01  9.97935E-01 -6.04509E-02
    9048.093     51.841   3.960  9.43735E-01  9.98397E-01 -5.46617E-02
    9049.306     53.054   4.000  9.50017E-01  9.98878E-01 -4.88605E-02
    9050.531     54.279   4.040  9.56257E-01  9.99336E-01 -4.30795E-02
    9051.768     55.517   4.080  9.62675E-01  9.99810E-01 -3.71353E-02
    9053.018     56.766   4.120  9.69270E-01  1.00026E+00 -3.09870E-02
    9054.280     58.028   4.160  9.75870E-01  1.00070E+00 -2.48278E-02
    9055.554     59.302   4.200  9.81937E-01  1.00111E+00 -1.91712E-02
    9056.840     60.589   4.240  9.86936E-01  1.00151E+00 -1.45719E-02
    9058.139     61.887   4.280  9.90738E-01  1.00190E+00 -1.11618E-02
    9059.449     63.198   4.320  9.93897E-01  1.00226E+00 -8.36257E-03
    9060.772     64.520   4.360  9.97459E-01  1.00258E+00 -5.12529E-03
    9062.107     65.855   4.400  1.00223E+00  1.00290E+00 -6.71027E-04
    9063.454     67.203   4.440  1.00823E+00  1.00320E+00  5.02798E-03
    9064.814     68.562   4.480  1.01494E+00  1.00344E+00  1.14996E-02
    9066.185     69.934   4.520  1.02206E+00  1.00367E+00  1.83848E-02
    9067.569     71.317   4.560  1.02975E+00  1.00389E+00  2.58652E-02
    9068.965     72.713   4.600  1.03867E+00  1.00405E+00  3.46173E-02
    9070.373     74.122   4.640  1.04962E+00  1.00419E+00  4.54232E-02
    9071.794     75.542   4.680  1.06309E+00  1.00432E+00  5.87688E-02
    9073.226     76.975   4.720  1.07889E+00  1.00440E+00  7.44993E-02
    9074.671     78.419   4.760  1.09616E+00  1.00445E+00  9.17120E-02
    9076.128     79.876   4.800  1.11349E+00  1.00447E+00  1.09021E-01
    9077.597     81.345   4.840  1.12906E+00  1.00445E+00  1.24617E-01
    9079.078     82.827   4.880  1.14019E+00  1.00439E+00  1.35801E-01
    9080.572     84.320   4.920  1.14318E+00  1.00432E+00  1.38861E-01
    9082.078     85.826   4.960  1.13462E+00  1.00421E+00  1.30413E-01
    9083.595     87.344   5.000  1.11370E+00  1.00407E+00  1.09632E-01
    9085.126     88.874   5.040  1.08310E+00  1.00391E+00  7.91845E-02
    9086.668     90.416   5.080  1.04782E+00  1.00372E+00  4.40940E-02
    9088.222     91.971   5.120  1.01306E+00  1.00350E+00  9.56795E-03
    9089.789     93.537   5.160  9.82424E-01  1.00326E+00 -2.08350E-02
    9091.368     95.116   5.200  9.57165E-01  1.00299E+00 -4.58257E-02
    9092.959     96.707   5.240  9.36791E-01  1.00271E+00 -6.59225E-02
    9094.562     98.310   5.280  9.19628E-01  1.00243E+00 -8.27997E-02
    9096.178     99.926   5.320  9.03822E-01  1.00211E+00 -9.82875E-02
    9097.805    101.553   5.360  8.88403E-01  1.00176E+00 -1.13356E-01
    9099.445    103.193   5.400  8.73890E-01  1.00140E+00 -1.27511E-01
    9101.097    104.845   5.440  8.61857E-01  1.00104E+00 -1.39179E-01
    9102.761    106.510   5.480  8.53700E-01  1.00065E+00 -1.46945E-01
    9104.438    108.186   5.520  8.49946E-01  1.00027E+00 -1.50326E-01
    9106.126    109.874   5.560  8.50638E-01  9.99873E-01 -1.49235E-01
    9107.827    111.575   5.600  8.56281E-01  9.99467E-01 -1.43186E-01
    9109.540    113.288   5.640  8.67138E-01  9.99037E-01 -1.31899E-01
    9111.265    115.013   5.680  8.82717E-01  9.98630E-01 -1.15912E-01
    9113.002    116.751   5.720  9.02376E-01  9.98220E-01 -9.58439E-02
    9114.752    118.500   5.760  9.26357E-01  9.97785E-01 -7.14283E-02
    9116.514    120.262   5.800  9.55366E-01  9.97351E-01 -4.19857E-02
    9118.288    122.036   5.840  9.89031E-01  9.96945E-01 -7.91347E-03
    9120.074    123.822   5.880  1.02498E+00  9.96519E-01  2.84644E-02
    9121.872    125.620   5.920  1.05895E+00  9.96126E-01  6.28216E-02
    9123.683    127.431   5.960  1.08508E+00  9.95747E-01  8.93310E-02
    9125.505    129.254   6.000  1.09936E+00  9.95346E-01  1.04012E-01
