# # comment:                                                     FEFF 9.9.1  
# # Source:
# # Structure
# # Reduced
# # space
# # abc:
# # angles:
# # sites:
# # POT  SCF 100  7.0000   0, screened core-hole, AFOLP (folp(0)= 1.150)
# # Abs   Z=29 Rmt= 1.239 Rnm= 1.298 K  shell
# # Pot 1 Z= 3 Rmt= 1.325 Rnm= 1.368
# # Pot 2 Z=25 Rmt= 1.226 Rnm= 1.350
# # Pot 3 Z=29 Rmt= 1.239 Rnm= 1.299
# # Pot 4 Z= 8 Rmt= 1.062 Rnm= 1.113
# # Gam_ch=1.729E+00 H-L exch Vi= 0.000E+00 Vr= 0.000E+00
# # Mu=-8.926E+00eV kf=2.069E+00 Vint=-1.681E+01eV Rs_int= 1.753
# FMS rfms= 9.0000
# # PATH  Rmax=-1.000,  Keep_limit= 0.00, Heap_limit 0.00  Pwcrit= 2.50%
#  S02=0.950  Temp=   0.00  Debye_temp=   0.00  Global_sig2= 0.00000
#  Energy zero shift, vr, vi    0.00000E+00   0.00000E+00
#  Curved wave amplitude ratio filter   4.000%
#     file         sig2 tot  cw amp ratio   deg  nlegs   reff  inp sig2
#     0/   0 paths used
#  xsedge+ 50, used to normalize mu           2.4478E-04
#  -----------------------------------------------------------------------
#  omega    e    k    mu    mu0     chi     @#
    8984.645    -12.736  -1.000  2.98342E-02  5.25166E-02 -2.26824E-02
    8984.943    -12.437  -0.960  3.09676E-02  5.62881E-02 -2.53205E-02
    8985.230    -12.151  -0.920  3.21513E-02  6.04745E-02 -2.83232E-02
    8985.504    -11.876  -0.880  3.33891E-02  6.51363E-02 -3.17472E-02
    8985.766    -11.614  -0.840  3.46855E-02  7.03439E-02 -3.56583E-02
    8986.016    -11.364  -0.800  3.60462E-02  7.61788E-02 -4.01325E-02
    8986.254    -11.126  -0.760  3.74777E-02  8.27344E-02 -4.52567E-02
    8986.480    -10.901  -0.720  3.89874E-02  9.01163E-02 -5.11289E-02
    8986.693    -10.687  -0.680  4.05838E-02  9.84405E-02 -5.78567E-02
    8986.894    -10.486  -0.640  4.22761E-02  1.07829E-01 -6.55532E-02
    8987.083    -10.297  -0.600  4.40727E-02  1.18403E-01 -7.43301E-02
    8987.260    -10.121  -0.560  4.59800E-02  1.30263E-01 -8.42829E-02
    8987.425     -9.956  -0.520  4.79994E-02  1.43470E-01 -9.54708E-02
    8987.577     -9.804  -0.480  5.01233E-02  1.58010E-01 -1.07887E-01
    8987.717     -9.663  -0.440  5.23306E-02  1.73755E-01 -1.21425E-01
    8987.845     -9.535  -0.400  5.45834E-02  1.90434E-01 -1.35850E-01
    8987.961     -9.420  -0.360  5.68266E-02  2.07617E-01 -1.50790E-01
    8988.065     -9.316  -0.320  5.89930E-02  2.24750E-01 -1.65757E-01
    8988.156     -9.224  -0.280  6.10131E-02  2.41215E-01 -1.80202E-01
    8988.235     -9.145  -0.240  6.28267E-02  2.56418E-01 -1.93591E-01
    8988.302     -9.078  -0.200  6.43904E-02  2.69858E-01 -2.05468E-01
    8988.357     -9.023  -0.160  6.56801E-02  2.81170E-01 -2.15490E-01
    8988.400     -8.981  -0.120  6.66859E-02  2.90116E-01 -2.23430E-01
    8988.430     -8.950  -0.080  6.74061E-02  2.96564E-01 -2.29157E-01
    8988.455     -8.926   0.000  6.79893E-02  3.01746E-01 -2.33757E-01
    8988.510     -8.871   0.120  6.93455E-02  3.13439E-01 -2.44093E-01
    8988.552     -8.828   0.160  7.03250E-02  3.22520E-01 -2.52195E-01
    8988.607     -8.773   0.200  7.15490E-02  3.34152E-01 -2.62603E-01
    8988.674     -8.706   0.240  7.29562E-02  3.48145E-01 -2.75189E-01
    8988.753     -8.627   0.280  7.44840E-02  3.64234E-01 -2.89750E-01
    8988.845     -8.536   0.320  7.61369E-02  3.82048E-01 -3.05911E-01
    8988.948     -8.432   0.360  7.78552E-02  4.01079E-01 -3.23223E-01
    8989.064     -8.316   0.400  7.96736E-02  4.20807E-01 -3.41133E-01
    8989.192     -8.188   0.440  8.15801E-02  4.40714E-01 -3.59134E-01
    8989.333     -8.048   0.480  8.37032E-02  4.60452E-01 -3.76749E-01
    8989.485     -7.896   0.520  8.61087E-02  4.79765E-01 -3.93657E-01
    8989.650     -7.731   0.560  8.89335E-02  4.98543E-01 -4.09609E-01
    8989.826     -7.554   0.600  9.22606E-02  5.16733E-01 -4.24472E-01
    8990.015     -7.365   0.640  9.61990E-02  5.34406E-01 -4.38207E-01
    8990.216     -7.164   0.680  1.00669E-01  5.51583E-01 -4.50914E-01
    8990.430     -6.951   0.720  1.05565E-01  5.68380E-01 -4.62815E-01
    8990.655     -6.725   0.760  1.10646E-01  5.84871E-01 -4.74225E-01
    8990.893     -6.487   0.800  1.15872E-01  6.01076E-01 -4.85204E-01
    8991.143     -6.237   0.840  1.21649E-01  6.17090E-01 -4.95441E-01
    8991.405     -5.975   0.880  1.28740E-01  6.32930E-01 -5.04190E-01
    8991.679     -5.701   0.920  1.37968E-01  6.48620E-01 -5.10652E-01
    8991.966     -5.414   0.960  1.50281E-01  6.64177E-01 -5.13896E-01
    8992.265     -5.116   1.000  1.66859E-01  6.79585E-01 -5.12726E-01
    8992.576     -4.805   1.040  1.89378E-01  6.94861E-01 -5.05483E-01
    8992.899     -4.482   1.080  2.20041E-01  7.09975E-01 -4.89934E-01
    8993.234     -4.146   1.120  2.61511E-01  7.24888E-01 -4.63378E-01
    8993.581     -3.799   1.160  3.15830E-01  7.39622E-01 -4.23792E-01
    8993.941     -3.439   1.200  3.78392E-01  7.54092E-01 -3.75700E-01
    8994.313     -3.068   1.240  4.32330E-01  7.68314E-01 -3.35984E-01
    8994.697     -2.683   1.280  4.63595E-01  7.82238E-01 -3.18644E-01
    8995.093     -2.287   1.320  4.79972E-01  7.95856E-01 -3.15884E-01
    8995.502     -1.879   1.360  4.96073E-01  8.09098E-01 -3.13026E-01
    8995.922     -1.458   1.400  5.20000E-01  8.21975E-01 -3.01975E-01
    8996.355     -1.025   1.440  5.56051E-01  8.34414E-01 -2.78364E-01
    8996.800     -0.580   1.480  6.01346E-01  8.46451E-01 -2.45104E-01
    8997.257     -0.123   1.520  6.57560E-01  8.58034E-01 -2.00474E-01
    8997.727      0.346   1.560  7.39468E-01  8.69118E-01 -1.29650E-01
    8998.208      0.828   1.600  8.39288E-01  8.79738E-01 -4.04507E-02
    8998.702      1.322   1.640  9.23513E-01  8.89869E-01  3.36436E-02
    8999.208      1.828   1.680  1.01427E+00  8.99468E-01  1.14806E-01
    8999.726      2.346   1.720  1.15659E+00  9.08574E-01  2.48020E-01
    9000.257      2.876   1.760  1.34253E+00  9.17147E-01  4.25387E-01
    9000.799      3.419   1.800  1.54237E+00  9.25228E-01  6.17137E-01
    9001.354      3.973   1.840  1.72256E+00  9.32781E-01  7.89776E-01
    9001.921      4.540   1.880  1.83357E+00  9.39828E-01  8.93738E-01
    9002.500      5.119   1.920  1.85604E+00  9.46394E-01  9.09647E-01
    9003.091      5.711   1.960  1.83218E+00  9.52468E-01  8.79711E-01
    9003.695      6.314   2.000  1.79758E+00  9.58076E-01  8.39505E-01
    9004.310      6.930   2.040  1.73487E+00  9.63224E-01  7.71650E-01
    9004.938      7.558   2.080  1.61022E+00  9.67922E-01  6.42294E-01
    9005.578      8.198   2.120  1.43735E+00  9.72199E-01  4.65154E-01
    9006.231      8.850   2.160  1.26492E+00  9.76064E-01  2.88855E-01
    9006.895      9.515   2.200  1.12732E+00  9.79551E-01  1.47767E-01
    9007.572     10.191   2.240  1.02818E+00  9.82687E-01  4.54931E-02
    9008.261     10.880   2.280  9.55287E-01  9.85464E-01 -3.01767E-02
    9008.962     11.581   2.320  8.97133E-01  9.87910E-01 -9.07768E-02
    9009.675     12.294   2.360  8.50937E-01  9.90059E-01 -1.39121E-01
    9010.400     13.020   2.400  8.18997E-01  9.91921E-01 -1.72924E-01
    9011.138     13.757   2.440  8.01101E-01  9.93524E-01 -1.92424E-01
    9011.888     14.507   2.480  8.02502E-01  9.94881E-01 -1.92379E-01
    9012.650     15.269   2.520  8.25236E-01  9.96002E-01 -1.70766E-01
    9013.424     16.043   2.560  8.59198E-01  9.96935E-01 -1.37737E-01
    9014.210     16.830   2.600  9.00045E-01  9.97672E-01 -9.76270E-02
    9015.009     17.628   2.640  9.41669E-01  9.98242E-01 -5.65727E-02
    9015.820     18.439   2.680  9.77425E-01  9.98672E-01 -2.12474E-02
    9016.643     19.262   2.720  1.00029E+00  9.98952E-01  1.33981E-03
    9017.478     20.097   2.760  1.00666E+00  9.99130E-01  7.53446E-03
    9018.325     20.945   2.800  9.97039E-01  9.99191E-01 -2.15175E-03
    9019.185     21.804   2.840  9.74922E-01  9.99143E-01 -2.42212E-02
    9020.056     22.676   2.880  9.46063E-01  9.99036E-01 -5.29728E-02
    9020.940     23.560   2.920  9.14720E-01  9.98875E-01 -8.41546E-02
    9021.836     24.456   2.960  8.84372E-01  9.98644E-01 -1.14273E-01
    9022.745     25.364   3.000  8.57444E-01  9.98372E-01 -1.40928E-01
    9023.665     26.285   3.040  8.35330E-01  9.98082E-01 -1.62753E-01
    9024.598     27.217   3.080  8.19375E-01  9.97759E-01 -1.78385E-01
    9025.543     28.162   3.120  8.10370E-01  9.97428E-01 -1.87057E-01
    9026.500     29.119   3.160  8.08167E-01  9.97073E-01 -1.88906E-01
    9027.469     30.089   3.200  8.12637E-01  9.96738E-01 -1.84101E-01
    9028.450     31.070   3.240  8.23630E-01  9.96406E-01 -1.72776E-01
    9029.444     32.064   3.280  8.40461E-01  9.96100E-01 -1.55639E-01
    9030.450     33.069   3.320  8.61728E-01  9.95802E-01 -1.34074E-01
    9031.468     34.087   3.360  8.84673E-01  9.95513E-01 -1.10841E-01
    9032.498     35.118   3.400  9.05341E-01  9.95258E-01 -8.99177E-02
    9033.541     36.160   3.440  9.20483E-01  9.95039E-01 -7.45563E-02
    9034.595     37.215   3.480  9.29627E-01  9.94857E-01 -6.52300E-02
    9035.662     38.281   3.520  9.34587E-01  9.94713E-01 -6.01264E-02
    9036.741     39.360   3.560  9.38177E-01  9.94609E-01 -5.64312E-02
    9037.832     40.452   3.600  9.43123E-01  9.94545E-01 -5.14216E-02
    9038.935     41.555   3.640  9.51381E-01  9.94521E-01 -4.31403E-02
    9040.051     42.671   3.680  9.64023E-01  9.94538E-01 -3.05147E-02
    9041.179     43.798   3.720  9.81426E-01  9.94596E-01 -1.31704E-02
    9042.319     44.938   3.760  1.00333E+00  9.94717E-01  8.61115E-03
    9043.471     46.090   3.800  1.02852E+00  9.94856E-01  3.36669E-02
    9044.635     47.255   3.840  1.05517E+00  9.95036E-01  6.01303E-02
    9045.812     48.431   3.880  1.08144E+00  9.95277E-01  8.61638E-02
    9047.000     49.620   3.920  1.10613E+00  9.95536E-01  1.10595E-01
    9048.201     50.821   3.960  1.12883E+00  9.95834E-01  1.32996E-01
    9049.414     52.034   4.000  1.14928E+00  9.96192E-01  1.53090E-01
    9050.640     53.259   4.040  1.16653E+00  9.96566E-01  1.69960E-01
    9051.877     54.497   4.080  1.17896E+00  9.96975E-01  1.81982E-01
    9053.127     55.746   4.120  1.18476E+00  9.97419E-01  1.87345E-01
    9054.389     57.008   4.160  1.18260E+00  9.97874E-01  1.84721E-01
    9055.663     58.282   4.200  1.17170E+00  9.98361E-01  1.73340E-01
    9056.949     59.569   4.240  1.15247E+00  9.98858E-01  1.53608E-01
    9058.248     60.867   4.280  1.12704E+00  9.99406E-01  1.27631E-01
    9059.558     62.178   4.320  1.09875E+00  9.99940E-01  9.88093E-02
    9060.881     63.501   4.360  1.07121E+00  1.00050E+00  7.07119E-02
    9062.216     64.836   4.400  1.04713E+00  1.00106E+00  4.60649E-02
    9063.563     66.183   4.440  1.02781E+00  1.00163E+00  2.61783E-02
    9064.923     67.542   4.480  1.01312E+00  1.00219E+00  1.09242E-02
    9066.294     68.914   4.520  1.00191E+00  1.00276E+00 -8.49833E-04
    9067.678     70.298   4.560  9.92532E-01  1.00334E+00 -1.08111E-02
    9069.074     71.694   4.600  9.83454E-01  1.00390E+00 -2.04489E-02
    9070.482     73.102   4.640  9.73910E-01  1.00443E+00 -3.05245E-02
    9071.903     74.522   4.680  9.63935E-01  1.00498E+00 -4.10454E-02
    9073.335     75.955   4.720  9.53913E-01  1.00550E+00 -5.15847E-02
    9074.780     77.399   4.760  9.44466E-01  1.00601E+00 -6.15404E-02
    9076.237     78.856   4.800  9.36184E-01  1.00648E+00 -7.02991E-02
    9077.706     80.325   4.840  9.29561E-01  1.00695E+00 -7.73864E-02
    9079.187     81.807   4.880  9.24943E-01  1.00738E+00 -8.24344E-02
    9080.681     83.300   4.920  9.22626E-01  1.00777E+00 -8.51451E-02
    9082.186     84.806   4.960  9.23104E-01  1.00815E+00 -8.50446E-02
    9083.704     86.324   5.000  9.27003E-01  1.00847E+00 -8.14629E-02
    9085.234     87.854   5.040  9.34743E-01  1.00877E+00 -7.40259E-02
    9086.777     89.396   5.080  9.45895E-01  1.00906E+00 -6.31614E-02
    9088.331     90.951   5.120  9.59065E-01  1.00928E+00 -5.02179E-02
    9089.898     92.517   5.160  9.72663E-01  1.00947E+00 -3.68044E-02
    9091.477     94.096   5.200  9.85672E-01  1.00963E+00 -2.39612E-02
    9093.068     95.687   5.240  9.97505E-01  1.00973E+00 -1.22295E-02
    9094.671     97.291   5.280  1.00757E+00  1.00980E+00 -2.22387E-03
    9096.286     98.906   5.320  1.01496E+00  1.00984E+00  5.11926E-03
    9097.914    100.534   5.360  1.01882E+00  1.00982E+00  9.00091E-03
    9099.554    102.173   5.400  1.01909E+00  1.00978E+00  9.31344E-03
    9101.206    103.825   5.440  1.01660E+00  1.00968E+00  6.92747E-03
    9102.870    105.490   5.480  1.01293E+00  1.00956E+00  3.37685E-03
    9104.546    107.166   5.520  1.00962E+00  1.00940E+00  2.20893E-04
    9106.235    108.855   5.560  1.00758E+00  1.00917E+00 -1.59124E-03
    9107.936    110.555   5.600  1.00694E+00  1.00893E+00 -1.99615E-03
    9109.649    112.268   5.640  1.00693E+00  1.00865E+00 -1.72498E-03
    9111.374    113.993   5.680  1.00619E+00  1.00834E+00 -2.15020E-03
    9113.111    115.731   5.720  1.00292E+00  1.00798E+00 -5.06460E-03
    9114.861    117.480   5.760  9.95738E-01  1.00759E+00 -1.18534E-02
    9116.623    119.242   5.800  9.84755E-01  1.00719E+00 -2.24353E-02
    9118.397    121.016   5.840  9.71616E-01  1.00676E+00 -3.51394E-02
    9120.183    122.802   5.880  9.58774E-01  1.00629E+00 -4.75160E-02
    9121.981    124.600   5.920  9.48865E-01  1.00582E+00 -5.69557E-02
    9123.791    126.411   5.960  9.44484E-01  1.00533E+00 -6.08429E-02
    9125.614    128.234   6.000  9.48573E-01  1.00481E+00 -5.62409E-02
