# # comment:                                                     FEFF 9.9.1  
# # Source:
# # Structure
# # Reduced
# # space
# # abc:
# # angles:
# # sites:
# # POT  SCF 100  7.0000   0, screened core-hole, AFOLP (folp(0)= 1.150)
# # Abs   Z=29 Rmt= 1.232 Rnm= 1.334 K  shell
# # Pot 1 Z=29 Rmt= 1.222 Rnm= 1.323
# # Pot 2 Z= 8 Rmt= 0.978 Rnm= 1.110
# # Pot 3 Z= 9 Rmt= 1.035 Rnm= 1.127
# # Gam_ch=1.729E+00 H-L exch Vi= 0.000E+00 Vr= 0.000E+00
# # Mu=-6.685E+00eV kf=2.037E+00 Vint=-1.290E+01eV Rs_int= 1.781
# FMS rfms= 9.0000
# # PATH  Rmax=-1.000,  Keep_limit= 0.00, Heap_limit 0.00  Pwcrit= 2.50%
#  S02=0.950  Temp=   0.00  Debye_temp=   0.00  Global_sig2= 0.00000
#  Energy zero shift, vr, vi    0.00000E+00   0.00000E+00
#  Curved wave amplitude ratio filter   4.000%
#     file         sig2 tot  cw amp ratio   deg  nlegs   reff  inp sig2
#     0/   0 paths used
#  xsedge+ 50, used to normalize mu           2.4151E-04
#  -----------------------------------------------------------------------
#  omega    e    k    mu    mu0     chi     @#
    8983.311    -10.495  -1.000  3.34338E-02  5.49682E-02 -2.15344E-02
    8983.610    -10.196  -0.960  3.48593E-02  5.88763E-02 -2.40170E-02
    8983.897     -9.910  -0.920  3.63659E-02  6.32051E-02 -2.68392E-02
    8984.171     -9.635  -0.880  3.79619E-02  6.80147E-02 -3.00528E-02
    8984.433     -9.373  -0.840  3.96570E-02  7.33748E-02 -3.37178E-02
    8984.683     -9.123  -0.800  4.14627E-02  7.93658E-02 -3.79032E-02
    8984.921     -8.886  -0.760  4.33925E-02  8.60798E-02 -4.26873E-02
    8985.146     -8.660  -0.720  4.54622E-02  9.36204E-02 -4.81582E-02
    8985.360     -8.447  -0.680  4.76893E-02  1.02101E-01 -5.44119E-02
    8985.561     -8.245  -0.640  5.00928E-02  1.11642E-01 -6.15489E-02
    8985.750     -8.056  -0.600  5.26911E-02  1.22359E-01 -6.96674E-02
    8985.927     -7.880  -0.560  5.54994E-02  1.34351E-01 -7.88512E-02
    8986.091     -7.715  -0.520  5.85244E-02  1.47675E-01 -8.91508E-02
    8986.244     -7.563  -0.480  6.17576E-02  1.62316E-01 -1.00558E-01
    8986.384     -7.422  -0.440  6.51673E-02  1.78145E-01 -1.12978E-01
    8986.512     -7.294  -0.400  6.86920E-02  1.94894E-01 -1.26202E-01
    8986.628     -7.179  -0.360  7.22390E-02  2.12139E-01 -1.39900E-01
    8986.731     -7.075  -0.320  7.56920E-02  2.29331E-01 -1.53639E-01
    8986.823     -6.984  -0.280  7.89276E-02  2.45859E-01 -1.66932E-01
    8986.902     -6.904  -0.240  8.18358E-02  2.61132E-01 -1.79296E-01
    8986.969     -6.837  -0.200  8.43363E-02  2.74650E-01 -1.90314E-01
    8987.024     -6.782  -0.160  8.63842E-02  2.86042E-01 -1.99658E-01
    8987.066     -6.740  -0.120  8.79651E-02  2.95063E-01 -2.07098E-01
    8987.097     -6.709  -0.080  8.90829E-02  3.01573E-01 -2.12490E-01
    8987.121     -6.685   0.000  8.99702E-02  3.06813E-01 -2.16842E-01
    8987.176     -6.630   0.120  9.19530E-02  3.18628E-01 -2.26676E-01
    8987.219     -6.587   0.160  9.34213E-02  3.27848E-01 -2.34427E-01
    8987.274     -6.532   0.200  9.51798E-02  3.39653E-01 -2.44473E-01
    8987.341     -6.465   0.240  9.71626E-02  3.53919E-01 -2.56756E-01
    8987.420     -6.386   0.280  9.92462E-02  3.70409E-01 -2.71163E-01
    8987.512     -6.295   0.320  1.01320E-01  3.88770E-01 -2.87450E-01
    8987.615     -6.191   0.360  1.03254E-01  4.08512E-01 -3.05258E-01
    8987.731     -6.075   0.400  1.05111E-01  4.29193E-01 -3.24081E-01
    8987.859     -5.947   0.440  1.06914E-01  4.50307E-01 -3.43394E-01
    8987.999     -5.807   0.480  1.08904E-01  4.71531E-01 -3.62627E-01
    8988.152     -5.655   0.520  1.11334E-01  4.92622E-01 -3.81288E-01
    8988.316     -5.490   0.560  1.14439E-01  5.13453E-01 -3.99014E-01
    8988.493     -5.313   0.600  1.18472E-01  5.33987E-01 -4.15514E-01
    8988.682     -5.124   0.640  1.23607E-01  5.54243E-01 -4.30637E-01
    8988.883     -4.923   0.680  1.29989E-01  5.74271E-01 -4.44283E-01
    8989.096     -4.710   0.720  1.37809E-01  5.94129E-01 -4.56319E-01
    8989.322     -4.484   0.760  1.47160E-01  6.13828E-01 -4.66668E-01
    8989.560     -4.246   0.800  1.58277E-01  6.33436E-01 -4.75158E-01
    8989.810     -3.997   0.840  1.71238E-01  6.52961E-01 -4.81723E-01
    8990.072     -3.734   0.880  1.86284E-01  6.72381E-01 -4.86097E-01
    8990.346     -3.460   0.920  2.04145E-01  6.91721E-01 -4.87576E-01
    8990.633     -3.174   0.960  2.26082E-01  7.10935E-01 -4.84852E-01
    8990.931     -2.875   1.000  2.53701E-01  7.29985E-01 -4.76284E-01
    8991.242     -2.564   1.040  2.88099E-01  7.48848E-01 -4.60750E-01
    8991.565     -2.241   1.080  3.28713E-01  7.67453E-01 -4.38741E-01
    8991.901     -1.906   1.120  3.73069E-01  7.85745E-01 -4.12676E-01
    8992.248     -1.558   1.160  4.19475E-01  8.03663E-01 -3.84188E-01
    8992.608     -1.198   1.200  4.69414E-01  8.21169E-01 -3.51754E-01
    8992.980     -0.827   1.240  5.23857E-01  8.38178E-01 -3.14321E-01
    8993.364     -0.443   1.280  5.78354E-01  8.54672E-01 -2.76318E-01
    8993.760     -0.046   1.320  6.26321E-01  8.70567E-01 -2.44246E-01
    8994.168      0.362   1.360  6.66223E-01  8.85822E-01 -2.19599E-01
    8994.589      0.783   1.400  7.00303E-01  9.00422E-01 -2.00119E-01
    8995.022      1.216   1.440  7.31509E-01  9.14290E-01 -1.82781E-01
    8995.467      1.661   1.480  7.67389E-01  9.27413E-01 -1.60024E-01
    8995.924      2.118   1.520  8.14427E-01  9.39761E-01 -1.25334E-01
    8996.393      2.587   1.560  8.66961E-01  9.51348E-01 -8.43870E-02
    8996.875      3.069   1.600  9.22501E-01  9.62111E-01 -3.96101E-02
    8997.369      3.562   1.640  9.94779E-01  9.72110E-01  2.26688E-02
    8997.875      4.068   1.680  1.10167E+00  9.81285E-01  1.20384E-01
    8998.393      4.587   1.720  1.24878E+00  9.89683E-01  2.59093E-01
    8998.923      5.117   1.760  1.41146E+00  9.97291E-01  4.14170E-01
    8999.466      5.659   1.800  1.53029E+00  1.00416E+00  5.26126E-01
    9000.020      6.214   1.840  1.55893E+00  1.01028E+00  5.48644E-01
    9000.587      6.781   1.880  1.51981E+00  1.01571E+00  5.04103E-01
    9001.166      7.360   1.920  1.47857E+00  1.02044E+00  4.58130E-01
    9001.758      7.952   1.960  1.47104E+00  1.02453E+00  4.46509E-01
    9002.361      8.555   2.000  1.48805E+00  1.02800E+00  4.60051E-01
    9002.977      9.171   2.040  1.50198E+00  1.03088E+00  4.71096E-01
    9003.605      9.799   2.080  1.48283E+00  1.03324E+00  4.49595E-01
    9004.245     10.439   2.120  1.42607E+00  1.03507E+00  3.91004E-01
    9004.897     11.091   2.160  1.36464E+00  1.03643E+00  3.28210E-01
    9005.562     11.755   2.200  1.32487E+00  1.03736E+00  2.87507E-01
    9006.238     12.432   2.240  1.29003E+00  1.03789E+00  2.52136E-01
    9006.927     13.121   2.280  1.22742E+00  1.03806E+00  1.89354E-01
    9007.628     13.822   2.320  1.13940E+00  1.03791E+00  1.01492E-01
    9008.341     14.535   2.360  1.06050E+00  1.03745E+00  2.30496E-02
    9009.067     15.261   2.400  1.01087E+00  1.03672E+00 -2.58473E-02
    9009.804     15.998   2.440  9.85266E-01  1.03577E+00 -5.04991E-02
    9010.554     16.748   2.480  9.77232E-01  1.03460E+00 -5.73706E-02
    9011.316     17.510   2.520  9.77234E-01  1.03327E+00 -5.60335E-02
    9012.090     18.284   2.560  9.78402E-01  1.03180E+00 -5.33937E-02
    9012.877     19.071   2.600  9.76458E-01  1.03018E+00 -5.37186E-02
    9013.675     19.869   2.640  9.70740E-01  1.02848E+00 -5.77447E-02
    9014.486     20.680   2.680  9.62219E-01  1.02669E+00 -6.44696E-02
    9015.309     21.503   2.720  9.52214E-01  1.02484E+00 -7.26266E-02
    9016.144     22.338   2.760  9.42093E-01  1.02295E+00 -8.08592E-02
    9016.992     23.185   2.800  9.32907E-01  1.02105E+00 -8.81444E-02
    9017.851     24.045   2.840  9.25445E-01  1.01915E+00 -9.37015E-02
    9018.723     24.917   2.880  9.19876E-01  1.01722E+00 -9.73467E-02
    9019.607     25.801   2.920  9.16043E-01  1.01535E+00 -9.93067E-02
    9020.503     26.697   2.960  9.13416E-01  1.01350E+00 -1.00080E-01
    9021.411     27.605   3.000  9.11281E-01  1.01170E+00 -1.00423E-01
    9022.332     28.525   3.040  9.08680E-01  1.00996E+00 -1.01280E-01
    9023.264     29.458   3.080  9.05088E-01  1.00827E+00 -1.03180E-01
    9024.209     30.403   3.120  9.00715E-01  1.00667E+00 -1.05958E-01
    9025.166     31.360   3.160  8.96261E-01  1.00514E+00 -1.08879E-01
    9026.136     32.329   3.200  8.92718E-01  1.00371E+00 -1.10993E-01
    9027.117     33.311   3.240  8.91027E-01  1.00235E+00 -1.11319E-01
    9028.111     34.304   3.280  8.91923E-01  1.00111E+00 -1.09189E-01
    9029.117     35.310   3.320  8.95600E-01  9.99950E-01 -1.04350E-01
    9030.135     36.328   3.360  9.01729E-01  9.98900E-01 -9.71713E-02
    9031.165     37.359   3.400  9.09639E-01  9.97965E-01 -8.83265E-02
    9032.207     38.401   3.440  9.18315E-01  9.97148E-01 -7.88320E-02
    9033.262     39.456   3.480  9.26764E-01  9.96424E-01 -6.96597E-02
    9034.329     40.522   3.520  9.34460E-01  9.95816E-01 -6.13559E-02
    9035.408     41.601   3.560  9.41475E-01  9.95304E-01 -5.38286E-02
    9036.499     42.693   3.600  9.48446E-01  9.94907E-01 -4.64611E-02
    9037.602     43.796   3.640  9.56215E-01  9.94627E-01 -3.84120E-02
    9038.718     44.911   3.680  9.65521E-01  9.94466E-01 -2.89449E-02
    9039.845     46.039   3.720  9.76808E-01  9.94397E-01 -1.75884E-02
    9040.985     47.179   3.760  9.90251E-01  9.94441E-01 -4.18935E-03
    9042.138     48.331   3.800  1.00563E+00  9.94576E-01  1.10487E-02
    9043.302     49.496   3.840  1.02235E+00  9.94801E-01  2.75473E-02
    9044.478     50.672   3.880  1.03960E+00  9.95135E-01  4.44667E-02
    9045.667     51.861   3.920  1.05624E+00  9.95579E-01  6.06641E-02
    9046.868     53.062   3.960  1.07082E+00  9.96084E-01  7.47383E-02
    9048.081     54.275   4.000  1.08201E+00  9.96670E-01  8.53410E-02
    9049.306     55.500   4.040  1.08918E+00  9.97337E-01  9.18421E-02
    9050.544     56.738   4.080  1.09260E+00  9.98083E-01  9.45123E-02
    9051.794     57.987   4.120  1.09306E+00  9.98904E-01  9.41530E-02
    9053.055     59.249   4.160  1.09122E+00  9.99777E-01  9.14404E-02
    9054.329     60.523   4.200  1.08739E+00  1.00072E+00  8.66666E-02
    9055.616     61.810   4.240  1.08167E+00  1.00171E+00  7.99578E-02
    9056.914     63.108   4.280  1.07431E+00  1.00275E+00  7.15583E-02
    9058.225     64.419   4.320  1.06580E+00  1.00384E+00  6.19572E-02
    9059.548     65.741   4.360  1.05665E+00  1.00496E+00  5.16947E-02
    9060.883     67.076   4.400  1.04734E+00  1.00608E+00  4.12559E-02
    9062.230     68.424   4.440  1.03838E+00  1.00726E+00  3.11159E-02
    9063.589     69.783   4.480  1.03031E+00  1.00845E+00  2.18605E-02
    9064.961     71.155   4.520  1.02379E+00  1.00964E+00  1.41453E-02
    9066.345     72.538   4.560  1.01934E+00  1.01083E+00  8.50713E-03
    9067.741     73.934   4.600  1.01711E+00  1.01202E+00  5.09086E-03
    9069.149     75.343   4.640  1.01678E+00  1.01321E+00  3.57065E-03
    9070.569     76.763   4.680  1.01765E+00  1.01439E+00  3.25868E-03
    9072.002     78.195   4.720  1.01882E+00  1.01554E+00  3.28231E-03
    9073.446     79.640   4.760  1.01939E+00  1.01665E+00  2.74017E-03
    9074.903     81.097   4.800  1.01870E+00  1.01774E+00  9.54890E-04
    9076.373     82.566   4.840  1.01662E+00  1.01880E+00 -2.17954E-03
    9077.854     84.048   4.880  1.01381E+00  1.01982E+00 -6.01111E-03
    9079.347     85.541   4.920  1.01132E+00  1.02079E+00 -9.47256E-03
    9080.853     87.047   4.960  1.00996E+00  1.02172E+00 -1.17584E-02
    9082.371     88.565   5.000  1.00970E+00  1.02258E+00 -1.28812E-02
    9083.901     90.095   5.040  1.00973E+00  1.02341E+00 -1.36800E-02
    9085.443     91.637   5.080  1.00880E+00  1.02415E+00 -1.53427E-02
    9086.998     93.192   5.120  1.00617E+00  1.02483E+00 -1.86613E-02
    9088.564     94.758   5.160  1.00194E+00  1.02546E+00 -2.35183E-02
    9090.143     96.337   5.200  9.97058E-01  1.02599E+00 -2.89281E-02
    9091.734     97.928   5.240  9.92958E-01  1.02646E+00 -3.35008E-02
    9093.338     99.531   5.280  9.90895E-01  1.02688E+00 -3.59816E-02
    9094.953    101.147   5.320  9.91466E-01  1.02719E+00 -3.57259E-02
    9096.581    102.774   5.360  9.94417E-01  1.02745E+00 -3.30336E-02
    9098.220    104.414   5.400  9.98619E-01  1.02763E+00 -2.90096E-02
    9099.873    106.066   5.440  1.00275E+00  1.02773E+00 -2.49784E-02
    9101.537    107.730   5.480  1.00587E+00  1.02774E+00 -2.18746E-02
    9103.213    109.407   5.520  1.00767E+00  1.02768E+00 -2.00094E-02
    9104.902    111.095   5.560  1.00834E+00  1.02756E+00 -1.92178E-02
    9106.602    112.796   5.600  1.00822E+00  1.02737E+00 -1.91452E-02
    9108.315    114.509   5.640  1.00772E+00  1.02709E+00 -1.93711E-02
    9110.041    116.234   5.680  1.00740E+00  1.02674E+00 -1.93392E-02
    9111.778    117.972   5.720  1.00796E+00  1.02634E+00 -1.83784E-02
    9113.527    119.721   5.760  1.00992E+00  1.02586E+00 -1.59495E-02
    9115.289    121.483   5.800  1.01340E+00  1.02534E+00 -1.19446E-02
    9117.063    123.257   5.840  1.01807E+00  1.02478E+00 -6.71553E-03
    9118.849    125.043   5.880  1.02331E+00  1.02415E+00 -8.41221E-04
    9120.648    126.841   5.920  1.02849E+00  1.02348E+00  5.01166E-03
    9122.458    128.652   5.960  1.03273E+00  1.02275E+00  9.98718E-03
    9124.281    130.475   6.000  1.03503E+00  1.02196E+00  1.30622E-02
