# # comment:                                                     FEFF 9.9.1  
# # Source:
# # Structure
# # Reduced
# # space
# # abc:
# # angles:
# # sites:
# # POT  SCF 100  7.0000   0, screened core-hole, AFOLP (folp(0)= 1.150)
# # Abs   Z=29 Rmt= 1.154 Rnm= 1.283 K  shell
# # Pot 1 Z=29 Rmt= 1.146 Rnm= 1.278
# # Pot 2 Z=15 Rmt= 0.909 Rnm= 1.154
# # Pot 3 Z= 8 Rmt= 1.005 Rnm= 1.111
# # Gam_ch=1.729E+00 H-L exch Vi= 0.000E+00 Vr= 0.000E+00
# # Mu=-7.131E+00eV kf=2.285E+00 Vint=-1.527E+01eV Rs_int= 1.587
# FMS rfms= 9.0000
# # PATH  Rmax=-1.000,  Keep_limit= 0.00, Heap_limit 0.00  Pwcrit= 2.50%
#  S02=0.950  Temp=   0.00  Debye_temp=   0.00  Global_sig2= 0.00000
#  Energy zero shift, vr, vi    0.00000E+00   0.00000E+00
#  Curved wave amplitude ratio filter   4.000%
#     file         sig2 tot  cw amp ratio   deg  nlegs   reff  inp sig2
#     0/   0 paths used
#  xsedge+ 50, used to normalize mu           2.4466E-04
#  -----------------------------------------------------------------------
#  omega    e    k    mu    mu0     chi     @#
    8983.415    -10.941  -1.000  3.50559E-02  5.46954E-02 -1.96395E-02
    8983.713    -10.642  -0.960  3.67968E-02  5.86490E-02 -2.18522E-02
    8984.000    -10.356  -0.920  3.86635E-02  6.30385E-02 -2.43750E-02
    8984.274    -10.081  -0.880  4.06696E-02  6.79279E-02 -2.72582E-02
    8984.536     -9.819  -0.840  4.28304E-02  7.33910E-02 -3.05606E-02
    8984.786     -9.569  -0.800  4.51633E-02  7.95137E-02 -3.43504E-02
    8985.024     -9.331  -0.760  4.76882E-02  8.63944E-02 -3.87062E-02
    8985.250     -9.106  -0.720  5.04273E-02  9.41441E-02 -4.37168E-02
    8985.463     -8.892  -0.680  5.34045E-02  1.02885E-01 -4.94803E-02
    8985.664     -8.691  -0.640  5.66448E-02  1.12746E-01 -5.61008E-02
    8985.853     -8.502  -0.600  6.01717E-02  1.23853E-01 -6.36810E-02
    8986.030     -8.326  -0.560  6.40029E-02  1.36314E-01 -7.23106E-02
    8986.195     -8.161  -0.520  6.81448E-02  1.50192E-01 -8.20471E-02
    8986.347     -8.009  -0.480  7.25831E-02  1.65473E-01 -9.28897E-02
    8986.487     -7.868  -0.440  7.72729E-02  1.82022E-01 -1.04749E-01
    8986.615     -7.740  -0.400  8.21312E-02  1.99553E-01 -1.17422E-01
    8986.731     -7.625  -0.360  8.70351E-02  2.17616E-01 -1.30581E-01
    8986.835     -7.521  -0.320  9.18315E-02  2.35626E-01 -1.43795E-01
    8986.926     -7.429  -0.280  9.63575E-02  2.52934E-01 -1.56577E-01
    8987.005     -7.350  -0.240  1.00465E-01  2.68914E-01 -1.68450E-01
    8987.072     -7.283  -0.200  1.04039E-01  2.83041E-01 -1.79003E-01
    8987.127     -7.228  -0.160  1.07006E-01  2.94930E-01 -1.87923E-01
    8987.170     -7.186  -0.120  1.09331E-01  3.04332E-01 -1.95001E-01
    8987.200     -7.155  -0.080  1.10998E-01  3.11108E-01 -2.00110E-01
    8987.225     -7.131   0.000  1.12345E-01  3.16555E-01 -2.04210E-01
    8987.280     -7.076   0.120  1.15333E-01  3.28832E-01 -2.13499E-01
    8987.322     -7.033   0.160  1.17585E-01  3.38397E-01 -2.20812E-01
    8987.377     -6.978   0.200  1.20402E-01  3.50606E-01 -2.30204E-01
    8987.444     -6.911   0.240  1.23691E-01  3.65302E-01 -2.41610E-01
    8987.523     -6.832   0.280  1.27371E-01  3.82205E-01 -2.54834E-01
    8987.615     -6.741   0.320  1.31347E-01  4.00903E-01 -2.69556E-01
    8987.719     -6.637   0.360  1.35599E-01  4.20879E-01 -2.85280E-01
    8987.834     -6.521   0.400  1.40126E-01  4.41544E-01 -3.01418E-01
    8987.962     -6.393   0.440  1.45162E-01  4.62435E-01 -3.17272E-01
    8988.103     -6.253   0.480  1.50981E-01  4.83101E-01 -3.32120E-01
    8988.255     -6.101   0.520  1.57998E-01  5.03316E-01 -3.45318E-01
    8988.420     -5.936   0.560  1.66591E-01  5.22964E-01 -3.56373E-01
    8988.596     -5.759   0.600  1.76988E-01  5.41971E-01 -3.64982E-01
    8988.785     -5.570   0.640  1.89458E-01  5.60410E-01 -3.70951E-01
    8988.987     -5.369   0.680  2.04463E-01  5.78350E-01 -3.73887E-01
    8989.200     -5.156   0.720  2.23174E-01  5.95851E-01 -3.72677E-01
    8989.425     -4.930   0.760  2.47990E-01  6.13032E-01 -3.65042E-01
    8989.663     -4.692   0.800  2.82092E-01  6.29921E-01 -3.47829E-01
    8989.913     -4.442   0.840  3.28327E-01  6.46596E-01 -3.18269E-01
    8990.175     -4.180   0.880  3.86226E-01  6.63098E-01 -2.76872E-01
    8990.450     -3.906   0.920  4.48672E-01  6.79415E-01 -2.30742E-01
    8990.736     -3.619   0.960  5.02554E-01  6.95605E-01 -1.93051E-01
    8991.035     -3.321   1.000  5.35880E-01  7.11654E-01 -1.75774E-01
    8991.346     -3.010   1.040  5.44949E-01  7.27561E-01 -1.82612E-01
    8991.669     -2.687   1.080  5.32653E-01  7.43273E-01 -2.10620E-01
    8992.004     -2.351   1.120  5.05342E-01  7.58818E-01 -2.53476E-01
    8992.351     -2.004   1.160  4.74359E-01  7.74133E-01 -2.99774E-01
    8992.711     -1.644   1.200  4.51678E-01  7.89194E-01 -3.37516E-01
    8993.083     -1.272   1.240  4.43490E-01  8.03992E-01 -3.60503E-01
    8993.467     -0.888   1.280  4.49978E-01  8.18461E-01 -3.68483E-01
    8993.863     -0.492   1.320  4.69936E-01  8.32589E-01 -3.62653E-01
    8994.272     -0.084   1.360  5.01925E-01  8.46345E-01 -3.44420E-01
    8994.692      0.337   1.400  5.40662E-01  8.59678E-01 -3.19016E-01
    8995.125      0.770   1.440  5.78408E-01  8.72576E-01 -2.94168E-01
    8995.570      1.215   1.480  6.10499E-01  8.84988E-01 -2.74489E-01
    8996.027      1.672   1.520  6.37221E-01  8.96926E-01 -2.59704E-01
    8996.497      2.141   1.560  6.59648E-01  9.08341E-01 -2.48692E-01
    8996.978      2.623   1.600  6.75004E-01  9.19225E-01 -2.44221E-01
    8997.472      3.117   1.640  6.85892E-01  9.29553E-01 -2.43661E-01
    8997.978      3.623   1.680  7.03446E-01  9.39320E-01 -2.35874E-01
    8998.496      4.141   1.720  7.35992E-01  9.48524E-01 -2.12533E-01
    8999.027      4.671   1.760  7.83143E-01  9.57144E-01 -1.74002E-01
    8999.569      5.214   1.800  8.40558E-01  9.65201E-01 -1.24643E-01
    9000.124      5.768   1.840  9.06847E-01  9.72678E-01 -6.58312E-02
    9000.691      6.335   1.880  9.90303E-01  9.79598E-01  1.07044E-02
    9001.270      6.914   1.920  1.09294E+00  9.85965E-01  1.06973E-01
    9001.861      7.506   1.960  1.19770E+00  9.91765E-01  2.05933E-01
    9002.465      8.109   2.000  1.28967E+00  9.97046E-01  2.92624E-01
    9003.080      8.725   2.040  1.36667E+00  1.00180E+00  3.64873E-01
    9003.708      9.353   2.080  1.43101E+00  1.00604E+00  4.24968E-01
    9004.348      9.993   2.120  1.47907E+00  1.00982E+00  4.69245E-01
    9005.001     10.645   2.160  1.49867E+00  1.01312E+00  4.85554E-01
    9005.665     11.310   2.200  1.47855E+00  1.01598E+00  4.62569E-01
    9006.342     11.986   2.240  1.42424E+00  1.01843E+00  4.05806E-01
    9007.031     12.675   2.280  1.35827E+00  1.02048E+00  3.37788E-01
    9007.732     13.376   2.320  1.29885E+00  1.02217E+00  2.76683E-01
    9008.445     14.089   2.360  1.25158E+00  1.02349E+00  2.28090E-01
    9009.170     14.815   2.400  1.21770E+00  1.02449E+00  1.93208E-01
    9009.908     15.552   2.440  1.19432E+00  1.02517E+00  1.69152E-01
    9010.658     16.302   2.480  1.17328E+00  1.02558E+00  1.47703E-01
    9011.420     17.064   2.520  1.15556E+00  1.02574E+00  1.29821E-01
    9012.194     17.838   2.560  1.14932E+00  1.02565E+00  1.23664E-01
    9012.980     18.625   2.600  1.15396E+00  1.02536E+00  1.28606E-01
    9013.779     19.423   2.640  1.16131E+00  1.02486E+00  1.36448E-01
    9014.590     20.234   2.680  1.16074E+00  1.02419E+00  1.36552E-01
    9015.413     21.057   2.720  1.14904E+00  1.02338E+00  1.25657E-01
    9016.248     21.892   2.760  1.13338E+00  1.02243E+00  1.10952E-01
    9017.095     22.740   2.800  1.11453E+00  1.02134E+00  9.31820E-02
    9017.955     23.599   2.840  1.09281E+00  1.02017E+00  7.26421E-02
    9018.826     24.471   2.880  1.06907E+00  1.01891E+00  5.01622E-02
    9019.710     25.355   2.920  1.04461E+00  1.01760E+00  2.70102E-02
    9020.606     26.251   2.960  1.02093E+00  1.01621E+00  4.71375E-03
    9021.515     27.159   3.000  9.98855E-01  1.01478E+00 -1.59288E-02
    9022.435     28.080   3.040  9.77747E-01  1.01332E+00 -3.55715E-02
    9023.368     29.012   3.080  9.56800E-01  1.01184E+00 -5.50444E-02
    9024.313     29.957   3.120  9.35656E-01  1.01037E+00 -7.47109E-02
    9025.270     30.914   3.160  9.14557E-01  1.00891E+00 -9.43547E-02
    9026.239     31.884   3.200  8.94259E-01  1.00744E+00 -1.13181E-01
    9027.220     32.865   3.240  8.76097E-01  1.00600E+00 -1.29902E-01
    9028.214     33.859   3.280  8.60593E-01  1.00459E+00 -1.44000E-01
    9029.220     34.864   3.320  8.47912E-01  1.00323E+00 -1.55314E-01
    9030.238     35.882   3.360  8.38195E-01  1.00190E+00 -1.63707E-01
    9031.268     36.913   3.400  8.31627E-01  1.00064E+00 -1.69016E-01
    9032.311     37.955   3.440  8.28396E-01  9.99410E-01 -1.71014E-01
    9033.365     39.010   3.480  8.28725E-01  9.98269E-01 -1.69544E-01
    9034.432     40.076   3.520  8.32665E-01  9.97179E-01 -1.64514E-01
    9035.511     41.155   3.560  8.39537E-01  9.96142E-01 -1.56605E-01
    9036.602     42.247   3.600  8.48696E-01  9.95202E-01 -1.46505E-01
    9037.706     43.350   3.640  8.59423E-01  9.94318E-01 -1.34894E-01
    9038.821     44.466   3.680  8.71169E-01  9.93512E-01 -1.22343E-01
    9039.949     45.593   3.720  8.83601E-01  9.92787E-01 -1.09187E-01
    9041.089     46.733   3.760  8.96751E-01  9.92143E-01 -9.53919E-02
    9042.241     47.885   3.800  9.10823E-01  9.91601E-01 -8.07774E-02
    9043.405     49.050   3.840  9.25854E-01  9.91118E-01 -6.52635E-02
    9044.582     50.226   3.880  9.41901E-01  9.90714E-01 -4.88131E-02
    9045.771     51.415   3.920  9.58917E-01  9.90391E-01 -3.14740E-02
    9046.971     52.616   3.960  9.76603E-01  9.90150E-01 -1.35472E-02
    9048.185     53.829   4.000  9.94515E-01  9.90011E-01  4.50340E-03
    9049.410     55.054   4.040  1.01202E+00  9.89930E-01  2.20926E-02
    9050.647     56.292   4.080  1.02834E+00  9.89927E-01  3.84136E-02
    9051.897     57.541   4.120  1.04258E+00  9.90000E-01  5.25759E-02
    9053.159     58.803   4.160  1.05394E+00  9.90129E-01  6.38148E-02
    9054.433     60.077   4.200  1.06196E+00  9.90355E-01  7.16080E-02
    9055.719     61.364   4.240  1.06636E+00  9.90634E-01  7.57257E-02
    9057.018     62.662   4.280  1.06743E+00  9.90964E-01  7.64667E-02
    9058.328     63.973   4.320  1.06586E+00  9.91387E-01  7.44743E-02
    9059.651     65.296   4.360  1.06246E+00  9.91839E-01  7.06226E-02
    9060.986     66.631   4.400  1.05819E+00  9.92359E-01  6.58339E-02
    9062.333     67.978   4.440  1.05385E+00  9.92946E-01  6.09084E-02
    9063.693     69.337   4.480  1.04998E+00  9.93555E-01  5.64237E-02
    9065.064     70.709   4.520  1.04700E+00  9.94227E-01  5.27721E-02
    9066.448     72.093   4.560  1.04521E+00  9.94917E-01  5.02936E-02
    9067.844     73.489   4.600  1.04484E+00  9.95666E-01  4.91743E-02
    9069.252     74.897   4.640  1.04583E+00  9.96429E-01  4.94015E-02
    9070.673     76.317   4.680  1.04789E+00  9.97224E-01  5.06624E-02
    9072.105     77.750   4.720  1.05038E+00  9.98030E-01  5.23538E-02
    9073.550     79.194   4.760  1.05259E+00  9.98864E-01  5.37248E-02
    9075.007     80.651   4.800  1.05379E+00  9.99703E-01  5.40824E-02
    9076.476     82.120   4.840  1.05341E+00  1.00055E+00  5.28659E-02
    9077.957     83.602   4.880  1.05121E+00  1.00141E+00  4.98004E-02
    9079.451     85.095   4.920  1.04730E+00  1.00225E+00  4.50453E-02
    9080.956     86.601   4.960  1.04221E+00  1.00309E+00  3.91113E-02
    9082.474     88.119   5.000  1.03657E+00  1.00393E+00  3.26416E-02
    9084.004     89.649   5.040  1.03093E+00  1.00476E+00  2.61720E-02
    9085.547     91.191   5.080  1.02553E+00  1.00556E+00  1.99749E-02
    9087.101     92.746   5.120  1.02047E+00  1.00634E+00  1.41285E-02
    9088.668     94.312   5.160  1.01569E+00  1.00710E+00  8.59273E-03
    9090.247     95.891   5.200  1.01113E+00  1.00784E+00  3.29212E-03
    9091.838     97.482   5.240  1.00664E+00  1.00851E+00 -1.87686E-03
    9093.441     99.086   5.280  1.00218E+00  1.00917E+00 -6.99331E-03
    9095.056    100.701   5.320  9.97791E-01  1.00977E+00 -1.19784E-02
    9096.684    102.329   5.360  9.93789E-01  1.01034E+00 -1.65551E-02
    9098.324    103.968   5.400  9.90474E-01  1.01085E+00 -2.03795E-02
    9099.976    105.620   5.440  9.88081E-01  1.01132E+00 -2.32355E-02
    9101.640    107.285   5.480  9.86544E-01  1.01174E+00 -2.51923E-02
    9103.317    108.961   5.520  9.85516E-01  1.01211E+00 -2.65931E-02
    9105.005    110.650   5.560  9.84522E-01  1.01241E+00 -2.78885E-02
    9106.706    112.350   5.600  9.83273E-01  1.01266E+00 -2.93904E-02
    9108.419    114.063   5.640  9.81714E-01  1.01285E+00 -3.11315E-02
    9110.144    115.788   5.680  9.80184E-01  1.01298E+00 -3.27953E-02
    9111.881    117.526   5.720  9.79136E-01  1.01306E+00 -3.39292E-02
    9113.631    119.275   5.760  9.78795E-01  1.01308E+00 -3.42826E-02
    9115.393    121.037   5.800  9.78968E-01  1.01302E+00 -3.40494E-02
    9117.167    122.811   5.840  9.79259E-01  1.01291E+00 -3.36509E-02
    9118.953    124.597   5.880  9.79404E-01  1.01276E+00 -3.33516E-02
    9120.751    126.395   5.920  9.79484E-01  1.01253E+00 -3.30452E-02
    9122.561    128.206   5.960  9.79805E-01  1.01222E+00 -3.24180E-02
    9124.384    130.029   6.000  9.80537E-01  1.01185E+00 -3.13151E-02
