# # comment:                                                     FEFF 9.9.1  
# # Source:
# # Structure
# # Reduced
# # space
# # abc:
# # angles:
# # sites:
# # POT  SCF 100  7.0000   0, screened core-hole, AFOLP (folp(0)= 1.150)
# # Abs   Z=29 Rmt= 1.157 Rnm= 1.242 K  shell
# # Pot 1 Z= 3 Rmt= 1.243 Rnm= 1.292
# # Pot 2 Z=29 Rmt= 1.157 Rnm= 1.243
# # Pot 3 Z=28 Rmt= 1.323 Rnm= 1.393
# # Pot 4 Z= 8 Rmt= 1.030 Rnm= 1.083
# # Gam_ch=1.729E+00 H-L exch Vi= 0.000E+00 Vr= 0.000E+00
# # Mu=-1.058E+01eV kf=2.139E+00 Vint=-1.874E+01eV Rs_int= 1.695
# FMS rfms= 9.0000
# # PATH  Rmax=-1.000,  Keep_limit= 0.00, Heap_limit 0.00  Pwcrit= 2.50%
#  S02=0.950  Temp=   0.00  Debye_temp=   0.00  Global_sig2= 0.00000
#  Energy zero shift, vr, vi    0.00000E+00   0.00000E+00
#  Curved wave amplitude ratio filter   4.000%
#     file         sig2 tot  cw amp ratio   deg  nlegs   reff  inp sig2
#     0/   0 paths used
#  xsedge+ 50, used to normalize mu           2.4582E-04
#  -----------------------------------------------------------------------
#  omega    e    k    mu    mu0     chi     @#
    8985.309    -14.388  -1.000  3.14145E-02  5.33680E-02 -2.19535E-02
    8985.607    -14.089  -0.960  3.27220E-02  5.71972E-02 -2.44752E-02
    8985.894    -13.802  -0.920  3.40988E-02  6.14468E-02 -2.73480E-02
    8986.168    -13.528  -0.880  3.55507E-02  6.61783E-02 -3.06276E-02
    8986.430    -13.266  -0.840  3.70842E-02  7.14628E-02 -3.43787E-02
    8986.680    -13.016  -0.800  3.87069E-02  7.73831E-02 -3.86761E-02
    8986.918    -12.778  -0.760  4.04276E-02  8.40336E-02 -4.36060E-02
    8987.144    -12.553  -0.720  4.22558E-02  9.15212E-02 -4.92654E-02
    8987.357    -12.339  -0.680  4.42022E-02  9.99636E-02 -5.57614E-02
    8987.558    -12.138  -0.640  4.62777E-02  1.09485E-01 -6.32068E-02
    8987.747    -11.949  -0.600  4.84925E-02  1.20206E-01 -7.17132E-02
    8987.924    -11.772  -0.560  5.08539E-02  1.32230E-01 -8.13765E-02
    8988.088    -11.608  -0.520  5.33641E-02  1.45620E-01 -9.22558E-02
    8988.241    -11.455  -0.480  5.60152E-02  1.60359E-01 -1.04344E-01
    8988.381    -11.315  -0.440  5.87854E-02  1.76320E-01 -1.17534E-01
    8988.509    -11.187  -0.400  6.16347E-02  1.93224E-01 -1.31590E-01
    8988.625    -11.071  -0.360  6.45039E-02  2.10641E-01 -1.46137E-01
    8988.729    -10.968  -0.320  6.73181E-02  2.28005E-01 -1.60687E-01
    8988.820    -10.876  -0.280  6.99954E-02  2.44692E-01 -1.74697E-01
    8988.899    -10.797  -0.240  7.24568E-02  2.60099E-01 -1.87642E-01
    8988.966    -10.730  -0.200  7.46350E-02  2.73719E-01 -1.99084E-01
    8989.021    -10.675  -0.160  7.64787E-02  2.85182E-01 -2.08703E-01
    8989.064    -10.632  -0.120  7.79515E-02  2.94247E-01 -2.16296E-01
    8989.094    -10.602  -0.080  7.90292E-02  3.00781E-01 -2.21751E-01
    8989.119    -10.578   0.000  7.99262E-02  3.06032E-01 -2.26106E-01
    8989.174    -10.523   0.120  8.19505E-02  3.17875E-01 -2.35925E-01
    8989.216    -10.480   0.160  8.34594E-02  3.27073E-01 -2.43614E-01
    8989.271    -10.425   0.200  8.54167E-02  3.38851E-01 -2.53434E-01
    8989.338    -10.358   0.240  8.77777E-02  3.53039E-01 -2.65261E-01
    8989.417    -10.279   0.280  9.05092E-02  3.69346E-01 -2.78837E-01
    8989.509    -10.187   0.320  9.35907E-02  3.87397E-01 -2.93806E-01
    8989.612    -10.084   0.360  9.69338E-02  4.06675E-01 -3.09741E-01
    8989.728     -9.968   0.400  1.00431E-01  4.26631E-01 -3.26200E-01
    8989.856     -9.840   0.440  1.03946E-01  4.46803E-01 -3.42857E-01
    8989.996     -9.700   0.480  1.07262E-01  4.66797E-01 -3.59534E-01
    8990.149     -9.547   0.520  1.10160E-01  4.86374E-01 -3.76214E-01
    8990.313     -9.383   0.560  1.12519E-01  5.05383E-01 -3.92864E-01
    8990.490     -9.206   0.600  1.14485E-01  5.23815E-01 -4.09330E-01
    8990.679     -9.017   0.640  1.16502E-01  5.41740E-01 -4.25238E-01
    8990.880     -8.816   0.680  1.19136E-01  5.59185E-01 -4.40049E-01
    8991.094     -8.603   0.720  1.22987E-01  5.76246E-01 -4.53259E-01
    8991.319     -8.377   0.760  1.28554E-01  5.93001E-01 -4.64447E-01
    8991.557     -8.139   0.800  1.36313E-01  6.09516E-01 -4.73203E-01
    8991.807     -7.889   0.840  1.46864E-01  6.25866E-01 -4.79002E-01
    8992.069     -7.627   0.880  1.61098E-01  6.42071E-01 -4.80973E-01
    8992.343     -7.353   0.920  1.80270E-01  6.58138E-01 -4.77869E-01
    8992.630     -7.066   0.960  2.06302E-01  6.74126E-01 -4.67824E-01
    8992.929     -6.768   1.000  2.41565E-01  6.89999E-01 -4.48434E-01
    8993.240     -6.457   1.040  2.88875E-01  7.05756E-01 -4.16882E-01
    8993.563     -6.134   1.080  3.51222E-01  7.21408E-01 -3.70186E-01
    8993.898     -5.798   1.120  4.28999E-01  7.36897E-01 -3.07899E-01
    8994.245     -5.451   1.160  5.11077E-01  7.52225E-01 -2.41147E-01
    8994.605     -5.091   1.200  5.75312E-01  7.67367E-01 -1.92054E-01
    8994.977     -4.719   1.240  6.16689E-01  7.82255E-01 -1.65566E-01
    8995.361     -4.335   1.280  6.50819E-01  7.96901E-01 -1.46081E-01
    8995.757     -3.939   1.320  6.78018E-01  8.11235E-01 -1.33216E-01
    8996.166     -3.531   1.360  6.81788E-01  8.25265E-01 -1.43477E-01
    8996.586     -3.110   1.400  6.63872E-01  8.38896E-01 -1.75024E-01
    8997.019     -2.677   1.440  6.45176E-01  8.52161E-01 -2.06985E-01
    8997.464     -2.232   1.480  6.37183E-01  8.64987E-01 -2.27803E-01
    8997.921     -1.775   1.520  6.41718E-01  8.77381E-01 -2.35664E-01
    8998.391     -1.306   1.560  6.57325E-01  8.89274E-01 -2.31950E-01
    8998.872     -0.824   1.600  6.81149E-01  9.00699E-01 -2.19550E-01
    8999.366     -0.330   1.640  7.11347E-01  9.11588E-01 -2.00241E-01
    8999.872      0.176   1.680  7.48651E-01  9.21955E-01 -1.73304E-01
    9000.390      0.694   1.720  8.00267E-01  9.31794E-01 -1.31527E-01
    9000.920      1.224   1.760  8.83056E-01  9.41063E-01 -5.80064E-02
    9001.463      1.767   1.800  1.00192E+00  9.49781E-01  5.21424E-02
    9002.018      2.321   1.840  1.13627E+00  9.57970E-01  1.78301E-01
    9002.585      2.888   1.880  1.25512E+00  9.65567E-01  2.89556E-01
    9003.164      3.468   1.920  1.34992E+00  9.72639E-01  3.77279E-01
    9003.755      4.059   1.960  1.44001E+00  9.79168E-01  4.60842E-01
    9004.359      4.662   2.000  1.54497E+00  9.85159E-01  5.59811E-01
    9004.974      5.278   2.040  1.64973E+00  9.90620E-01  6.59108E-01
    9005.602      5.906   2.080  1.70669E+00  9.95577E-01  7.11113E-01
    9006.242      6.546   2.120  1.66944E+00  1.00004E+00  6.69399E-01
    9006.895      7.198   2.160  1.53666E+00  1.00404E+00  5.32620E-01
    9007.559      7.863   2.200  1.36494E+00  1.00758E+00  3.57360E-01
    9008.236      8.539   2.240  1.21107E+00  1.01068E+00  2.00395E-01
    9008.925      9.228   2.280  1.09425E+00  1.01336E+00  8.08957E-02
    9009.626      9.929   2.320  1.01267E+00  1.01566E+00 -2.98895E-03
    9010.339     10.642   2.360  9.59760E-01  1.01756E+00 -5.78019E-02
    9011.064     11.368   2.400  9.28118E-01  1.01915E+00 -9.10281E-02
    9011.802     12.106   2.440  9.09342E-01  1.02038E+00 -1.11038E-01
    9012.552     12.855   2.480  9.00147E-01  1.02130E+00 -1.21149E-01
    9013.314     13.617   2.520  9.07427E-01  1.02194E+00 -1.14516E-01
    9014.088     14.392   2.560  9.46044E-01  1.02233E+00 -7.62904E-02
    9014.874     15.178   2.600  1.00000E+00  1.02246E+00 -2.24560E-02
    9015.673     15.976   2.640  1.05360E+00  1.02237E+00  3.12271E-02
    9016.484     16.787   2.680  1.10063E+00  1.02207E+00  7.85576E-02
    9017.306     17.610   2.720  1.13839E+00  1.02161E+00  1.16780E-01
    9018.142     18.445   2.760  1.16369E+00  1.02097E+00  1.42716E-01
    9018.989     19.293   2.800  1.17298E+00  1.02021E+00  1.52776E-01
    9019.848     20.152   2.840  1.16497E+00  1.01929E+00  1.45683E-01
    9020.720     21.024   2.880  1.14469E+00  1.01828E+00  1.26407E-01
    9021.604     21.908   2.920  1.11798E+00  1.01716E+00  1.00823E-01
    9022.500     22.804   2.960  1.08910E+00  1.01597E+00  7.31287E-02
    9023.409     23.712   3.000  1.05900E+00  1.01471E+00  4.42885E-02
    9024.329     24.633   3.040  1.02700E+00  1.01340E+00  1.35975E-02
    9025.262     25.565   3.080  9.93889E-01  1.01203E+00 -1.81420E-02
    9026.207     26.510   3.120  9.62086E-01  1.01064E+00 -4.85571E-02
    9027.164     27.467   3.160  9.33935E-01  1.00925E+00 -7.53137E-02
    9028.133     28.437   3.200  9.10911E-01  1.00785E+00 -9.69382E-02
    9029.114     29.418   3.240  8.93674E-01  1.00645E+00 -1.12775E-01
    9030.108     30.412   3.280  8.81838E-01  1.00505E+00 -1.23215E-01
    9031.114     31.418   3.320  8.74502E-01  1.00366E+00 -1.29162E-01
    9032.132     32.436   3.360  8.70606E-01  1.00231E+00 -1.31702E-01
    9033.162     33.466   3.400  8.69022E-01  1.00101E+00 -1.31989E-01
    9034.205     34.508   3.440  8.68408E-01  9.99731E-01 -1.31323E-01
    9035.259     35.563   3.480  8.68032E-01  9.98494E-01 -1.30461E-01
    9036.326     36.630   3.520  8.67810E-01  9.97322E-01 -1.29512E-01
    9037.405     37.709   3.560  8.67955E-01  9.96197E-01 -1.28242E-01
    9038.496     38.800   3.600  8.68850E-01  9.95121E-01 -1.26271E-01
    9039.599     39.903   3.640  8.70702E-01  9.94115E-01 -1.23413E-01
    9040.715     41.019   3.680  8.73412E-01  9.93185E-01 -1.19773E-01
    9041.843     42.146   3.720  8.76827E-01  9.92329E-01 -1.15502E-01
    9042.983     43.286   3.760  8.81317E-01  9.91527E-01 -1.10210E-01
    9044.135     44.439   3.800  8.87931E-01  9.90800E-01 -1.02869E-01
    9045.299     45.603   3.840  8.97916E-01  9.90151E-01 -9.22354E-02
    9046.476     46.779   3.880  9.11976E-01  9.89578E-01 -7.76018E-02
    9047.664     47.968   3.920  9.30027E-01  9.89061E-01 -5.90345E-02
    9048.865     49.169   3.960  9.51303E-01  9.88643E-01 -3.73402E-02
    9050.078     50.382   4.000  9.74362E-01  9.88281E-01 -1.39184E-02
    9051.304     51.607   4.040  9.97641E-01  9.87994E-01  9.64682E-03
    9052.541     52.845   4.080  1.01969E+00  9.87785E-01  3.19092E-02
    9053.791     54.095   4.120  1.03941E+00  9.87652E-01  5.17545E-02
    9055.053     55.356   4.160  1.05600E+00  9.87572E-01  6.84259E-02
    9056.327     56.631   4.200  1.06890E+00  9.87567E-01  8.13376E-02
    9057.613     57.917   4.240  1.07763E+00  9.87634E-01  8.99990E-02
    9058.911     59.215   4.280  1.08205E+00  9.87754E-01  9.42978E-02
    9060.222     60.526   4.320  1.08253E+00  9.87947E-01  9.45856E-02
    9061.545     61.849   4.360  1.07974E+00  9.88211E-01  9.15295E-02
    9062.880     63.184   4.400  1.07436E+00  9.88522E-01  8.58394E-02
    9064.227     64.531   4.440  1.06721E+00  9.88877E-01  7.83292E-02
    9065.587     65.890   4.480  1.05893E+00  9.89276E-01  6.96526E-02
    9066.958     67.262   4.520  1.04987E+00  9.89740E-01  6.01325E-02
    9068.342     68.646   4.560  1.03992E+00  9.90223E-01  4.96982E-02
    9069.738     70.042   4.600  1.02892E+00  9.90767E-01  3.81486E-02
    9071.146     71.450   4.640  1.01702E+00  9.91329E-01  2.56931E-02
    9072.566     72.870   4.680  1.00536E+00  9.91948E-01  1.34109E-02
    9073.999     74.303   4.720  9.95494E-01  9.92579E-01  2.91454E-03
    9075.444     75.747   4.760  9.89076E-01  9.93221E-01 -4.14459E-03
    9076.901     77.204   4.800  9.87320E-01  9.93893E-01 -6.57225E-03
    9078.370     78.674   4.840  9.90625E-01  9.94594E-01 -3.96859E-03
    9079.851     80.155   4.880  9.98517E-01  9.95299E-01  3.21810E-03
    9081.345     81.648   4.920  1.00994E+00  9.95986E-01  1.39575E-02
    9082.850     83.154   4.960  1.02365E+00  9.96716E-01  2.69288E-02
    9084.368     84.672   5.000  1.03811E+00  9.97424E-01  4.06869E-02
    9085.898     86.202   5.040  1.05180E+00  9.98105E-01  5.36996E-02
    9087.441     87.744   5.080  1.06325E+00  9.98804E-01  6.44483E-02
    9088.995     89.299   5.120  1.07127E+00  9.99476E-01  7.17957E-02
    9090.562     90.866   5.160  1.07529E+00  1.00014E+00  7.51468E-02
    9092.141     92.444   5.200  1.07509E+00  1.00080E+00  7.42892E-02
    9093.732     94.035   5.240  1.07071E+00  1.00142E+00  6.92882E-02
    9095.335     95.639   5.280  1.06257E+00  1.00201E+00  6.05633E-02
    9096.950     97.254   5.320  1.05164E+00  1.00258E+00  4.90659E-02
    9098.578     98.882   5.360  1.03932E+00  1.00309E+00  3.62286E-02
    9100.218    100.522   5.400  1.02699E+00  1.00359E+00  2.33999E-02
    9101.870    102.174   5.440  1.01528E+00  1.00404E+00  1.12352E-02
    9103.534    103.838   5.480  1.00415E+00  1.00446E+00 -3.00767E-04
    9105.210    105.514   5.520  9.93291E-01  1.00480E+00 -1.15129E-02
    9106.899    107.203   5.560  9.82343E-01  1.00513E+00 -2.27898E-02
    9108.600    108.903   5.600  9.70849E-01  1.00542E+00 -3.45705E-02
    9110.313    110.616   5.640  9.58405E-01  1.00564E+00 -4.72332E-02
    9112.038    112.342   5.680  9.45010E-01  1.00581E+00 -6.08014E-02
    9113.775    114.079   5.720  9.31070E-01  1.00594E+00 -7.48677E-02
    9115.525    115.829   5.760  9.17387E-01  1.00600E+00 -8.86083E-02
    9117.287    117.590   5.800  9.04910E-01  1.00601E+00 -1.01099E-01
    9119.060    119.364   5.840  8.94427E-01  1.00598E+00 -1.11549E-01
    9120.847    121.150   5.880  8.86404E-01  1.00588E+00 -1.19472E-01
    9122.645    122.949   5.920  8.81128E-01  1.00575E+00 -1.24626E-01
    9124.455    124.759   5.960  8.79058E-01  1.00553E+00 -1.26473E-01
    9126.278    126.582   6.000  8.82006E-01  1.00525E+00 -1.23246E-01
