# # comment:                                                     FEFF 9.9.1  
# # Source:
# # Structure
# # Reduced
# # space
# # abc:
# # angles:
# # sites:
# # POT  SCF 100  7.0000   0, screened core-hole, AFOLP (folp(0)= 1.150)
# # Abs   Z=29 Rmt= 1.234 Rnm= 1.318 K  shell
# # Pot 1 Z=56 Rmt= 1.916 Rnm= 1.972
# # Pot 2 Z=38 Rmt= 1.765 Rnm= 1.822
# # Pot 3 Z=29 Rmt= 1.234 Rnm= 1.318
# # Pot 4 Z= 8 Rmt= 1.080 Rnm= 1.129
# # Gam_ch=1.729E+00 H-L exch Vi= 0.000E+00 Vr= 0.000E+00
# # Mu=-9.118E+00eV kf=1.949E+00 Vint=-1.733E+01eV Rs_int= 1.861
# FMS rfms= 9.0000
# # PATH  Rmax=-1.000,  Keep_limit= 0.00, Heap_limit 0.00  Pwcrit= 2.50%
#  S02=0.950  Temp=   0.00  Debye_temp=   0.00  Global_sig2= 0.00000
#  Energy zero shift, vr, vi    0.00000E+00   0.00000E+00
#  Curved wave amplitude ratio filter   4.000%
#     file         sig2 tot  cw amp ratio   deg  nlegs   reff  inp sig2
#     0/   0 paths used
#  xsedge+ 50, used to normalize mu           2.4399E-04
#  -----------------------------------------------------------------------
#  omega    e    k    mu    mu0     chi     @#
    8985.126    -12.928  -1.000  4.28528E-02  5.76463E-02 -1.47935E-02
    8985.425    -12.629  -0.960  4.54824E-02  6.18980E-02 -1.64156E-02
    8985.712    -12.342  -0.920  4.83840E-02  6.66252E-02 -1.82412E-02
    8985.986    -12.068  -0.880  5.16000E-02  7.18978E-02 -2.02978E-02
    8986.248    -11.806  -0.840  5.51806E-02  7.77973E-02 -2.26166E-02
    8986.498    -11.556  -0.800  5.91851E-02  8.44179E-02 -2.52328E-02
    8986.736    -11.318  -0.760  6.36823E-02  9.18678E-02 -2.81855E-02
    8986.961    -11.093  -0.720  6.87513E-02  1.00269E-01 -3.15178E-02
    8987.175    -10.879  -0.680  7.44807E-02  1.09757E-01 -3.52758E-02
    8987.376    -10.678  -0.640  8.09654E-02  1.20472E-01 -3.95064E-02
    8987.565    -10.489  -0.600  8.83008E-02  1.32554E-01 -4.42535E-02
    8987.742    -10.312  -0.560  9.65709E-02  1.46123E-01 -4.95520E-02
    8987.906    -10.148  -0.520  1.05831E-01  1.61248E-01 -5.54173E-02
    8988.059     -9.995  -0.480  1.16081E-01  1.77914E-01 -6.18329E-02
    8988.199     -9.855  -0.440  1.27240E-01  1.95975E-01 -6.87345E-02
    8988.327     -9.727  -0.400  1.39118E-01  2.15116E-01 -7.59986E-02
    8988.443     -9.611  -0.360  1.51405E-01  2.34845E-01 -8.34397E-02
    8988.546     -9.508  -0.320  1.63697E-01  2.54520E-01 -9.08229E-02
    8988.638     -9.416  -0.280  1.75535E-01  2.73427E-01 -9.78924E-02
    8988.717     -9.337  -0.240  1.86478E-01  2.90883E-01 -1.04406E-01
    8988.784     -9.270  -0.200  1.96152E-01  3.06313E-01 -1.10161E-01
    8988.839     -9.215  -0.160  2.04286E-01  3.19294E-01 -1.15009E-01
    8988.882     -9.173  -0.120  2.10710E-01  3.29558E-01 -1.18848E-01
    8988.912     -9.142  -0.080  2.15335E-01  3.36953E-01 -1.21619E-01
    8988.936     -9.118   0.000  2.19042E-01  3.42895E-01 -1.23853E-01
    8988.991     -9.063   0.120  2.27198E-01  3.56302E-01 -1.29105E-01
    8989.034     -9.020   0.160  2.33548E-01  3.66720E-01 -1.33172E-01
    8989.089     -8.965   0.200  2.41590E-01  3.80024E-01 -1.38434E-01
    8989.156     -8.898   0.240  2.51123E-01  3.96038E-01 -1.44915E-01
    8989.235     -8.819   0.280  2.61804E-01  4.14450E-01 -1.52646E-01
    8989.327     -8.728   0.320  2.73035E-01  4.34758E-01 -1.61723E-01
    8989.430     -8.624   0.360  2.84112E-01  4.56432E-01 -1.72321E-01
    8989.546     -8.508   0.400  2.94035E-01  4.78821E-01 -1.84786E-01
    8989.674     -8.380   0.440  3.01750E-01  5.01344E-01 -1.99594E-01
    8989.814     -8.240   0.480  3.06370E-01  5.23591E-01 -2.17222E-01
    8989.967     -8.087   0.520  3.07366E-01  5.45244E-01 -2.37878E-01
    8990.131     -7.923   0.560  3.04922E-01  5.66153E-01 -2.61230E-01
    8990.308     -7.746   0.600  2.99884E-01  5.86300E-01 -2.86416E-01
    8990.497     -7.557   0.640  2.93417E-01  6.05744E-01 -3.12327E-01
    8990.698     -7.356   0.680  2.86473E-01  6.24498E-01 -3.38025E-01
    8990.911     -7.143   0.720  2.79972E-01  6.42713E-01 -3.62741E-01
    8991.137     -6.917   0.760  2.74791E-01  6.60434E-01 -3.85644E-01
    8991.375     -6.679   0.800  2.72180E-01  6.77739E-01 -4.05559E-01
    8991.625     -6.429   0.840  2.73770E-01  6.94691E-01 -4.20922E-01
    8991.887     -6.167   0.880  2.81342E-01  7.11338E-01 -4.29996E-01
    8992.161     -5.893   0.920  2.96554E-01  7.27713E-01 -4.31160E-01
    8992.448     -5.606   0.960  3.20456E-01  7.43797E-01 -4.23341E-01
    8992.746     -5.308   1.000  3.52669E-01  7.59619E-01 -4.06949E-01
    8993.057     -4.997   1.040  3.90020E-01  7.75159E-01 -3.85139E-01
    8993.380     -4.674   1.080  4.27347E-01  7.90410E-01 -3.63064E-01
    8993.716     -4.338   1.120  4.61516E-01  8.05339E-01 -3.43823E-01
    8994.063     -3.991   1.160  4.94567E-01  8.19948E-01 -3.25382E-01
    8994.423     -3.631   1.200  5.31334E-01  8.34174E-01 -3.02840E-01
    8994.795     -3.259   1.240  5.71407E-01  8.48012E-01 -2.76605E-01
    8995.179     -2.875   1.280  6.01014E-01  8.61417E-01 -2.60403E-01
    8995.575     -2.479   1.320  6.10798E-01  8.74361E-01 -2.63564E-01
    8995.983     -2.071   1.360  6.20018E-01  8.86838E-01 -2.66820E-01
    8996.404     -1.650   1.400  6.52360E-01  8.98820E-01 -2.46460E-01
    8996.837     -1.217   1.440  7.14929E-01  9.10261E-01 -1.95332E-01
    8997.282     -0.772   1.480  8.01715E-01  9.21176E-01 -1.19460E-01
    8997.739     -0.315   1.520  8.93982E-01  9.31517E-01 -3.75358E-02
    8998.208      0.154   1.560  9.65320E-01  9.41283E-01  2.40379E-02
    8998.690      0.636   1.600  1.00326E+00  9.50471E-01  5.27883E-02
    8999.184      1.130   1.640  1.02835E+00  9.59084E-01  6.92637E-02
    8999.690      1.636   1.680  1.08964E+00  9.67100E-01  1.22540E-01
    9000.208      2.154   1.720  1.22944E+00  9.74542E-01  2.54903E-01
    9000.738      2.684   1.760  1.45494E+00  9.81374E-01  4.73564E-01
    9001.281      3.227   1.800  1.68149E+00  9.87664E-01  6.93824E-01
    9001.835      3.781   1.840  1.73325E+00  9.93377E-01  7.39875E-01
    9002.402      4.348   1.880  1.62796E+00  9.98564E-01  6.29395E-01
    9002.981      4.927   1.920  1.52439E+00  1.00321E+00  5.21180E-01
    9003.573      5.519   1.960  1.45369E+00  1.00735E+00  4.46338E-01
    9004.176      6.122   2.000  1.37838E+00  1.01101E+00  3.67365E-01
    9004.792      6.738   2.040  1.27508E+00  1.01419E+00  2.60890E-01
    9005.420      7.366   2.080  1.16867E+00  1.01693E+00  1.51744E-01
    9006.060      8.006   2.120  1.08809E+00  1.01923E+00  6.88663E-02
    9006.712      8.658   2.160  1.04203E+00  1.02114E+00  2.08903E-02
    9007.377      9.323   2.200  1.02772E+00  1.02269E+00  5.02515E-03
    9008.053      9.999   2.240  1.03376E+00  1.02389E+00  9.87553E-03
    9008.742     10.688   2.280  1.04621E+00  1.02475E+00  2.14599E-02
    9009.443     11.389   2.320  1.06042E+00  1.02532E+00  3.50970E-02
    9010.156     12.102   2.360  1.07575E+00  1.02563E+00  5.01252E-02
    9010.882     12.828   2.400  1.08358E+00  1.02568E+00  5.79043E-02
    9011.619     13.565   2.440  1.08171E+00  1.02550E+00  5.62183E-02
    9012.369     14.315   2.480  1.08028E+00  1.02512E+00  5.51600E-02
    9013.131     15.077   2.520  1.08415E+00  1.02455E+00  5.95983E-02
    9013.905     15.851   2.560  1.09032E+00  1.02382E+00  6.65010E-02
    9014.692     16.638   2.600  1.09289E+00  1.02295E+00  6.99462E-02
    9015.490     17.436   2.640  1.08631E+00  1.02195E+00  6.43538E-02
    9016.301     18.247   2.680  1.06813E+00  1.02084E+00  4.72886E-02
    9017.124     19.070   2.720  1.03990E+00  1.01966E+00  2.02338E-02
    9017.959     19.905   2.760  1.00616E+00  1.01838E+00 -1.22246E-02
    9018.807     20.753   2.800  9.71173E-01  1.01708E+00 -4.59048E-02
    9019.666     21.612   2.840  9.38247E-01  1.01571E+00 -7.74601E-02
    9020.538     22.484   2.880  9.09668E-01  1.01432E+00 -1.04652E-01
    9021.422     23.368   2.920  8.86751E-01  1.01293E+00 -1.26175E-01
    9022.318     24.264   2.960  8.70182E-01  1.01151E+00 -1.41324E-01
    9023.226     25.172   3.000  8.59662E-01  1.01011E+00 -1.50446E-01
    9024.147     26.093   3.040  8.54105E-01  1.00872E+00 -1.54613E-01
    9025.079     27.025   3.080  8.52430E-01  1.00736E+00 -1.54931E-01
    9026.024     27.970   3.120  8.53701E-01  1.00604E+00 -1.52337E-01
    9026.981     28.927   3.160  8.57167E-01  1.00476E+00 -1.47590E-01
    9027.951     29.897   3.200  8.62356E-01  1.00352E+00 -1.41162E-01
    9028.932     30.878   3.240  8.68975E-01  1.00232E+00 -1.33349E-01
    9029.926     31.872   3.280  8.76411E-01  1.00120E+00 -1.24787E-01
    9030.932     32.877   3.320  8.84154E-01  1.00012E+00 -1.15969E-01
    9031.950     33.896   3.360  8.92299E-01  9.99123E-01 -1.06824E-01
    9032.980     34.926   3.400  9.01438E-01  9.98198E-01 -9.67600E-02
    9034.022     35.968   3.440  9.12311E-01  9.97350E-01 -8.50397E-02
    9035.077     37.023   3.480  9.25621E-01  9.96560E-01 -7.09389E-02
    9036.144     38.090   3.520  9.41560E-01  9.95870E-01 -5.43093E-02
    9037.223     39.169   3.560  9.59310E-01  9.95239E-01 -3.59291E-02
    9038.314     40.260   3.600  9.77579E-01  9.94710E-01 -1.71309E-02
    9039.417     41.363   3.640  9.95014E-01  9.94240E-01  7.73772E-04
    9040.533     42.479   3.680  1.01073E+00  9.93871E-01  1.68588E-02
    9041.660     43.606   3.720  1.02433E+00  9.93563E-01  3.07644E-02
    9042.800     44.746   3.760  1.03585E+00  9.93355E-01  4.24961E-02
    9043.953     45.898   3.800  1.04513E+00  9.93207E-01  5.19228E-02
    9045.117     47.063   3.840  1.05175E+00  9.93159E-01  5.85885E-02
    9046.293     48.239   3.880  1.05510E+00  9.93167E-01  6.19333E-02
    9047.482     49.428   3.920  1.05498E+00  9.93252E-01  6.17295E-02
    9048.683     50.629   3.960  1.05160E+00  9.93412E-01  5.81893E-02
    9049.896     51.842   4.000  1.04571E+00  9.93625E-01  5.20802E-02
    9051.121     53.067   4.040  1.03848E+00  9.93913E-01  4.45639E-02
    9052.359     54.305   4.080  1.03143E+00  9.94272E-01  3.71543E-02
    9053.609     55.555   4.120  1.02629E+00  9.94681E-01  3.16065E-02
    9054.870     56.816   4.160  1.02470E+00  9.95157E-01  2.95444E-02
    9056.144     58.090   4.200  1.02742E+00  9.95657E-01  3.17609E-02
    9057.431     59.377   4.240  1.03405E+00  9.96222E-01  3.78254E-02
    9058.729     60.675   4.280  1.04308E+00  9.96828E-01  4.62519E-02
    9060.040     61.986   4.320  1.05262E+00  9.97476E-01  5.51472E-02
    9061.363     63.309   4.360  1.06096E+00  9.98161E-01  6.27947E-02
    9062.698     64.644   4.400  1.06692E+00  9.98880E-01  6.80406E-02
    9064.045     65.991   4.440  1.07011E+00  9.99612E-01  7.04933E-02
    9065.404     67.350   4.480  1.07093E+00  1.00037E+00  7.05533E-02
    9066.776     68.722   4.520  1.07031E+00  1.00114E+00  6.91690E-02
    9068.160     70.106   4.560  1.06941E+00  1.00191E+00  6.74988E-02
    9069.556     71.502   4.600  1.06896E+00  1.00271E+00  6.62485E-02
    9070.964     72.910   4.640  1.06867E+00  1.00351E+00  6.51539E-02
    9072.384     74.330   4.680  1.06709E+00  1.00431E+00  6.27748E-02
    9073.817     75.763   4.720  1.06210E+00  1.00509E+00  5.70179E-02
    9075.261     77.207   4.760  1.05204E+00  1.00588E+00  4.61608E-02
    9076.718     78.664   4.800  1.03648E+00  1.00664E+00  2.98383E-02
    9078.188     80.133   4.840  1.01667E+00  1.00739E+00  9.28382E-03
    9079.669     81.615   4.880  9.95030E-01  1.00811E+00 -1.30785E-02
    9081.162     83.108   4.920  9.74471E-01  1.00879E+00 -3.43212E-02
    9082.668     84.614   4.960  9.57810E-01  1.00946E+00 -5.16510E-02
    9084.186     86.132   5.000  9.47100E-01  1.01009E+00 -6.29928E-02
    9085.716     87.662   5.040  9.43028E-01  1.01068E+00 -6.76554E-02
    9087.258     89.204   5.080  9.44785E-01  1.01123E+00 -6.64496E-02
    9088.813     90.759   5.120  9.50306E-01  1.01174E+00 -6.14365E-02
    9090.379     92.325   5.160  9.57065E-01  1.01221E+00 -5.51441E-02
    9091.958     93.904   5.200  9.63042E-01  1.01263E+00 -4.95898E-02
    9093.549     95.495   5.240  9.67312E-01  1.01301E+00 -4.56955E-02
    9095.153     97.099   5.280  9.70001E-01  1.01332E+00 -4.33148E-02
    9096.768     98.714   5.320  9.71880E-01  1.01358E+00 -4.16973E-02
    9098.396    100.342   5.360  9.73793E-01  1.01379E+00 -3.99987E-02
    9100.035    101.981   5.400  9.76210E-01  1.01396E+00 -3.77509E-02
    9101.688    103.633   5.440  9.79005E-01  1.01406E+00 -3.50547E-02
    9103.352    105.298   5.480  9.81646E-01  1.01411E+00 -3.24645E-02
    9105.028    106.974   5.520  9.83642E-01  1.01411E+00 -3.04726E-02
    9106.717    108.663   5.560  9.85033E-01  1.01405E+00 -2.90152E-02
    9108.417    110.363   5.600  9.86493E-01  1.01393E+00 -2.74389E-02
    9110.130    112.076   5.640  9.88597E-01  1.01375E+00 -2.51480E-02
    9111.856    113.802   5.680  9.91158E-01  1.01351E+00 -2.23561E-02
    9113.593    115.539   5.720  9.93474E-01  1.01324E+00 -1.97646E-02
    9115.342    117.288   5.760  9.95028E-01  1.01292E+00 -1.78936E-02
    9117.104    119.050   5.800  9.96134E-01  1.01256E+00 -1.64280E-02
    9118.878    120.824   5.840  9.97442E-01  1.01214E+00 -1.46948E-02
    9120.664    122.610   5.880  9.99276E-01  1.01170E+00 -1.24210E-02
    9122.463    124.409   5.920  1.00146E+00  1.01120E+00 -9.74018E-03
    9124.273    126.219   5.960  1.00394E+00  1.01066E+00 -6.71819E-03
    9126.096    128.042   6.000  1.00744E+00  1.01008E+00 -2.64538E-03
