# # comment:                                                     FEFF 9.9.1  
# # Source:
# # Structure
# # Reduced
# # space
# # abc:
# # angles:
# # sites:
# # POT  SCF 100  7.0000   0, screened core-hole, AFOLP (folp(0)= 1.150)
# # Abs   Z=29 Rmt= 1.238 Rnm= 1.311 K  shell
# # Pot 1 Z=12 Rmt= 1.379 Rnm= 1.454
# # Pot 2 Z=23 Rmt= 1.099 Rnm= 1.307
# # Pot 3 Z=29 Rmt= 1.235 Rnm= 1.320
# # Pot 4 Z= 8 Rmt= 0.922 Rnm= 1.086
# # Gam_ch=1.729E+00 H-L exch Vi= 0.000E+00 Vr= 0.000E+00
# # Mu=-8.625E+00eV kf=2.264E+00 Vint=-1.743E+01eV Rs_int= 1.602
# FMS rfms= 9.0000
# # PATH  Rmax=-1.000,  Keep_limit= 0.00, Heap_limit 0.00  Pwcrit= 2.50%
#  S02=0.950  Temp=   0.00  Debye_temp=   0.00  Global_sig2= 0.00000
#  Energy zero shift, vr, vi    0.00000E+00   0.00000E+00
#  Curved wave amplitude ratio filter   4.000%
#     file         sig2 tot  cw amp ratio   deg  nlegs   reff  inp sig2
#     0/   0 paths used
#  xsedge+ 50, used to normalize mu           2.4653E-04
#  -----------------------------------------------------------------------
#  omega    e    k    mu    mu0     chi     @#
    8984.337    -12.435  -1.000  3.91340E-02  5.35011E-02 -1.43671E-02
    8984.636    -12.136  -0.960  4.13836E-02  5.73767E-02 -1.59931E-02
    8984.922    -11.850  -0.920  4.38454E-02  6.16823E-02 -1.78369E-02
    8985.197    -11.575  -0.880  4.65500E-02  6.64811E-02 -1.99311E-02
    8985.459    -11.313  -0.840  4.95330E-02  7.18467E-02 -2.23137E-02
    8985.709    -11.063  -0.800  5.28361E-02  7.78643E-02 -2.50282E-02
    8985.947    -10.826  -0.760  5.65074E-02  8.46318E-02 -2.81244E-02
    8986.172    -10.600  -0.720  6.06018E-02  9.22596E-02 -3.16578E-02
    8986.385    -10.387  -0.680  6.51798E-02  1.00869E-01 -3.56896E-02
    8986.587    -10.186  -0.640  7.03058E-02  1.10589E-01 -4.02837E-02
    8986.776     -9.997  -0.600  7.60431E-02  1.21546E-01 -4.55028E-02
    8986.952     -9.820  -0.560  8.24459E-02  1.33846E-01 -5.14004E-02
    8987.117     -9.655  -0.520  8.95453E-02  1.47554E-01 -5.80091E-02
    8987.269     -9.503  -0.480  9.73318E-02  1.62656E-01 -6.53242E-02
    8987.410     -9.363  -0.440  1.05734E-01  1.79018E-01 -7.32846E-02
    8987.538     -9.235  -0.400  1.14600E-01  1.96357E-01 -8.17566E-02
    8987.653     -9.119  -0.360  1.23697E-01  2.14225E-01 -9.05278E-02
    8987.757     -9.015  -0.320  1.32723E-01  2.32041E-01 -9.93184E-02
    8987.849     -8.924  -0.280  1.41348E-01  2.49161E-01 -1.07812E-01
    8987.928     -8.844  -0.240  1.49264E-01  2.64963E-01 -1.15699E-01
    8987.995     -8.777  -0.200  1.56220E-01  2.78929E-01 -1.22709E-01
    8988.050     -8.722  -0.160  1.62042E-01  2.90678E-01 -1.28636E-01
    8988.092     -8.680  -0.120  1.66628E-01  2.99966E-01 -1.33339E-01
    8988.123     -8.649  -0.080  1.69927E-01  3.06658E-01 -1.36731E-01
    8988.147     -8.625   0.000  1.72578E-01  3.12035E-01 -1.39457E-01
    8988.202     -8.570   0.120  1.78302E-01  3.24153E-01 -1.45850E-01
    8988.245     -8.527   0.160  1.82764E-01  3.33570E-01 -1.50805E-01
    8988.300     -8.473   0.200  1.88429E-01  3.45602E-01 -1.57173E-01
    8988.367     -8.405   0.240  1.95229E-01  3.60090E-01 -1.64861E-01
    8988.446     -8.326   0.280  2.02972E-01  3.76724E-01 -1.73752E-01
    8988.537     -8.235   0.320  2.11478E-01  3.95064E-01 -1.83586E-01
    8988.641     -8.131   0.360  2.20558E-01  4.14631E-01 -1.94073E-01
    8988.757     -8.015   0.400  2.30014E-01  4.34826E-01 -2.04812E-01
    8988.885     -7.887   0.440  2.39751E-01  4.55164E-01 -2.15412E-01
    8989.025     -7.747   0.480  2.49640E-01  4.75190E-01 -2.25551E-01
    8989.177     -7.595   0.520  2.59579E-01  4.94697E-01 -2.35118E-01
    8989.342     -7.430   0.560  2.69304E-01  5.13548E-01 -2.44244E-01
    8989.519     -7.253   0.600  2.78443E-01  5.31711E-01 -2.53269E-01
    8989.708     -7.064   0.640  2.86704E-01  5.49202E-01 -2.62498E-01
    8989.909     -6.863   0.680  2.94279E-01  5.66152E-01 -2.71873E-01
    8990.122     -6.650   0.720  3.01640E-01  5.82606E-01 -2.80966E-01
    8990.348     -6.424   0.760  3.09210E-01  5.98687E-01 -2.89477E-01
    8990.586     -6.187   0.800  3.16551E-01  6.14427E-01 -2.97876E-01
    8990.836     -5.937   0.840  3.22711E-01  6.29928E-01 -3.07217E-01
    8991.098     -5.674   0.880  3.27130E-01  6.45219E-01 -3.18089E-01
    8991.372     -5.400   0.920  3.30170E-01  6.60332E-01 -3.30161E-01
    8991.659     -5.114   0.960  3.32796E-01  6.75310E-01 -3.42514E-01
    8991.957     -4.815   1.000  3.36231E-01  6.90125E-01 -3.53894E-01
    8992.268     -4.504   1.040  3.41830E-01  7.04820E-01 -3.62990E-01
    8992.591     -4.181   1.080  3.51133E-01  7.19351E-01 -3.68218E-01
    8992.926     -3.846   1.120  3.65505E-01  7.33747E-01 -3.68242E-01
    8993.274     -3.498   1.160  3.85147E-01  7.47953E-01 -3.62807E-01
    8993.634     -3.139   1.200  4.09965E-01  7.61971E-01 -3.52007E-01
    8994.005     -2.767   1.240  4.40300E-01  7.75777E-01 -3.35476E-01
    8994.390     -2.383   1.280  4.75601E-01  7.89326E-01 -3.13725E-01
    8994.786     -1.986   1.320  5.13275E-01  8.02612E-01 -2.89337E-01
    8995.194     -1.578   1.360  5.49782E-01  8.15588E-01 -2.65806E-01
    8995.615     -1.157   1.400  5.84372E-01  8.28245E-01 -2.43873E-01
    8996.048     -0.725   1.440  6.20991E-01  8.40555E-01 -2.19563E-01
    8996.493     -0.280   1.480  6.65489E-01  8.52509E-01 -1.87020E-01
    8996.950      0.178   1.520  7.21483E-01  8.64039E-01 -1.42556E-01
    8997.419      0.647   1.560  7.91055E-01  8.75179E-01 -8.41237E-02
    8997.901      1.129   1.600  8.74725E-01  8.85860E-01 -1.11346E-02
    8998.395      1.622   1.640  9.67511E-01  8.96117E-01  7.13937E-02
    8998.901      2.128   1.680  1.06283E+00  9.05907E-01  1.56928E-01
    8999.419      2.647   1.720  1.16376E+00  9.15225E-01  2.48538E-01
    8999.949      3.177   1.760  1.27586E+00  9.24048E-01  3.51808E-01
    9000.492      3.719   1.800  1.39701E+00  9.32416E-01  4.64592E-01
    9001.046      4.274   1.840  1.51422E+00  9.40267E-01  5.73953E-01
    9001.613      4.841   1.880  1.59965E+00  9.47666E-01  6.51982E-01
    9002.192      5.420   1.920  1.61909E+00  9.54552E-01  6.64543E-01
    9002.784      6.012   1.960  1.56941E+00  9.60989E-01  6.08421E-01
    9003.387      6.615   2.000  1.48874E+00  9.66943E-01  5.21801E-01
    9004.003      7.231   2.040  1.40574E+00  9.72437E-01  4.33302E-01
    9004.631      7.859   2.080  1.32375E+00  9.77478E-01  3.46270E-01
    9005.271      8.499   2.120  1.24789E+00  9.82093E-01  2.65794E-01
    9005.923      9.151   2.160  1.18767E+00  9.86291E-01  2.01379E-01
    9006.588      9.815   2.200  1.14170E+00  9.90077E-01  1.51626E-01
    9007.264     10.492   2.240  1.10191E+00  9.93460E-01  1.08446E-01
    9007.953     11.181   2.280  1.06446E+00  9.96471E-01  6.79884E-02
    9008.654     11.882   2.320  1.03437E+00  9.99136E-01  3.52325E-02
    9009.367     12.595   2.360  1.01544E+00  1.00145E+00  1.39919E-02
    9010.093     13.321   2.400  1.00351E+00  1.00345E+00  5.57498E-05
    9010.830     14.058   2.440  9.94044E-01  1.00516E+00 -1.11211E-02
    9011.580     14.808   2.480  9.86898E-01  1.00657E+00 -1.96710E-02
    9012.342     15.570   2.520  9.85284E-01  1.00772E+00 -2.24332E-02
    9013.116     16.344   2.560  9.92714E-01  1.00864E+00 -1.59244E-02
    9013.903     17.131   2.600  1.00644E+00  1.00930E+00 -2.86296E-03
    9014.701     17.929   2.640  1.01879E+00  1.00978E+00  9.01699E-03
    9015.512     18.740   2.680  1.01971E+00  1.01005E+00  9.65116E-03
    9016.335     19.563   2.720  1.00814E+00  1.01016E+00 -2.01545E-03
    9017.170     20.398   2.760  9.89763E-01  1.01010E+00 -2.03387E-02
    9018.018     21.245   2.800  9.69275E-01  1.00989E+00 -4.06157E-02
    9018.877     22.105   2.840  9.50058E-01  1.00957E+00 -5.95153E-02
    9019.749     22.977   2.880  9.33864E-01  1.00914E+00 -7.52720E-02
    9020.633     23.861   2.920  9.21082E-01  1.00859E+00 -8.75047E-02
    9021.529     24.757   2.960  9.11596E-01  1.00795E+00 -9.63563E-02
    9022.437     25.665   3.000  9.04724E-01  1.00726E+00 -1.02537E-01
    9023.358     26.585   3.040  8.99600E-01  1.00650E+00 -1.06898E-01
    9024.290     27.518   3.080  8.95706E-01  1.00569E+00 -1.09982E-01
    9025.235     28.463   3.120  8.92528E-01  1.00484E+00 -1.12308E-01
    9026.192     29.420   3.160  8.89823E-01  1.00397E+00 -1.14148E-01
    9027.161     30.389   3.200  8.87920E-01  1.00307E+00 -1.15153E-01
    9028.143     31.371   3.240  8.87559E-01  1.00217E+00 -1.14609E-01
    9029.137     32.364   3.280  8.89347E-01  1.00124E+00 -1.11892E-01
    9030.142     33.370   3.320  8.93871E-01  1.00033E+00 -1.06461E-01
    9031.160     34.388   3.360  9.01408E-01  9.99450E-01 -9.80425E-02
    9032.191     35.418   3.400  9.11512E-01  9.98556E-01 -8.70438E-02
    9033.233     36.461   3.440  9.23476E-01  9.97713E-01 -7.42370E-02
    9034.288     37.515   3.480  9.36351E-01  9.96883E-01 -6.05315E-02
    9035.354     38.582   3.520  9.49131E-01  9.96087E-01 -4.69556E-02
    9036.433     39.661   3.560  9.60912E-01  9.95307E-01 -3.43944E-02
    9037.525     40.752   3.600  9.71215E-01  9.94587E-01 -2.33719E-02
    9038.628     41.856   3.640  9.79828E-01  9.93909E-01 -1.40818E-02
    9039.744     42.971   3.680  9.86861E-01  9.93275E-01 -6.41440E-03
    9040.871     44.099   3.720  9.92738E-01  9.92705E-01  3.32956E-05
    9042.011     45.239   3.760  9.97985E-01  9.92158E-01  5.82705E-03
    9043.163     46.391   3.800  1.00308E+00  9.91677E-01  1.14063E-02
    9044.328     47.556   3.840  1.00829E+00  9.91264E-01  1.70294E-02
    9045.504     48.732   3.880  1.01367E+00  9.90876E-01  2.27899E-02
    9046.693     49.921   3.920  1.01913E+00  9.90553E-01  2.85786E-02
    9047.894     51.122   3.960  1.02438E+00  9.90298E-01  3.40807E-02
    9049.107     52.335   4.000  1.02902E+00  9.90069E-01  3.89551E-02
    9050.332     53.560   4.040  1.03282E+00  9.89906E-01  4.29135E-02
    9051.570     54.798   4.080  1.03563E+00  9.89810E-01  4.58238E-02
    9052.819     56.047   4.120  1.03754E+00  9.89738E-01  4.77977E-02
    9054.081     57.309   4.160  1.03888E+00  9.89730E-01  4.91494E-02
    9055.355     58.583   4.200  1.03990E+00  9.89768E-01  5.01319E-02
    9056.642     59.869   4.240  1.04073E+00  9.89870E-01  5.08582E-02
    9057.940     61.168   4.280  1.04140E+00  9.89993E-01  5.14032E-02
    9059.251     62.479   4.320  1.04196E+00  9.90176E-01  5.17891E-02
    9060.574     63.801   4.360  1.04234E+00  9.90377E-01  5.19613E-02
    9061.909     65.136   4.400  1.04245E+00  9.90617E-01  5.18319E-02
    9063.256     66.484   4.440  1.04226E+00  9.90916E-01  5.13466E-02
    9064.615     67.843   4.480  1.04172E+00  9.91229E-01  5.04858E-02
    9065.987     69.215   4.520  1.04080E+00  9.91576E-01  4.92242E-02
    9067.371     70.598   4.560  1.03937E+00  9.91935E-01  4.74306E-02
    9068.766     71.994   4.600  1.03717E+00  9.92325E-01  4.48402E-02
    9070.175     73.402   4.640  1.03398E+00  9.92747E-01  4.12299E-02
    9071.595     74.823   4.680  1.02973E+00  9.93175E-01  3.65565E-02
    9073.028     76.255   4.720  1.02458E+00  9.93609E-01  3.09665E-02
    9074.472     77.700   4.760  1.01875E+00  9.94069E-01  2.46787E-02
    9075.929     79.157   4.800  1.01239E+00  9.94531E-01  1.78581E-02
    9077.398     80.626   4.840  1.00557E+00  9.94971E-01  1.05989E-02
    9078.880     82.108   4.880  9.98488E-01  9.95433E-01  3.05504E-03
    9080.373     83.601   4.920  9.91382E-01  9.95896E-01 -4.51434E-03
    9081.879     85.107   4.960  9.84508E-01  9.96356E-01 -1.18478E-02
    9083.397     86.625   5.000  9.77961E-01  9.96812E-01 -1.88509E-02
    9084.927     88.155   5.040  9.71593E-01  9.97240E-01 -2.56473E-02
    9086.469     89.697   5.080  9.65235E-01  9.97661E-01 -3.24257E-02
    9088.024     91.252   5.120  9.58871E-01  9.98073E-01 -3.92017E-02
    9089.590     92.818   5.160  9.52793E-01  9.98453E-01 -4.56596E-02
    9091.169     94.397   5.200  9.47591E-01  9.98799E-01 -5.12087E-02
    9092.760     95.988   5.240  9.43867E-01  9.99135E-01 -5.52680E-02
    9094.363     97.591   5.280  9.41929E-01  9.99459E-01 -5.75301E-02
    9095.979     99.207   5.320  9.41724E-01  9.99725E-01 -5.80012E-02
    9097.607    100.834   5.360  9.43201E-01  9.99976E-01 -5.67744E-02
    9099.246    102.474   5.400  9.46384E-01  1.00019E+00 -5.38052E-02
    9100.898    104.126   5.440  9.51500E-01  1.00037E+00 -4.88662E-02
    9102.563    105.790   5.480  9.58737E-01  1.00053E+00 -4.17894E-02
    9104.239    107.467   5.520  9.67921E-01  1.00063E+00 -3.27058E-02
    9105.928    109.155   5.560  9.78560E-01  1.00071E+00 -2.21497E-02
    9107.628    110.856   5.600  9.89848E-01  1.00073E+00 -1.08813E-02
    9109.341    112.569   5.640  1.00104E+00  1.00073E+00  3.10649E-04
    9111.066    114.294   5.680  1.01142E+00  1.00070E+00  1.07247E-02
    9112.804    116.032   5.720  1.02029E+00  1.00062E+00  1.96718E-02
    9114.553    117.781   5.760  1.02695E+00  1.00048E+00  2.64699E-02
    9116.315    119.543   5.800  1.03083E+00  1.00033E+00  3.05083E-02
    9118.089    121.317   5.840  1.03151E+00  1.00013E+00  3.13738E-02
    9119.875    123.103   5.880  1.02890E+00  9.99905E-01  2.89975E-02
    9121.673    124.901   5.920  1.02349E+00  9.99639E-01  2.38537E-02
    9123.484    126.712   5.960  1.01633E+00  9.99336E-01  1.69967E-02
    9125.307    128.534   6.000  1.00860E+00  9.98970E-01  9.63405E-03
