# # comment:                                                     FEFF 9.9.1  
# # Source:
# # Structure
# # Reduced
# # space
# # abc:
# # angles:
# # sites:
# # POT  SCF 100  7.0000   0, screened core-hole, AFOLP (folp(0)= 1.150)
# # Abs   Z=29 Rmt= 1.264 Rnm= 1.355 K  shell
# # Pot 1 Z=81 Rmt= 1.771 Rnm= 1.847
# # Pot 2 Z=29 Rmt= 1.264 Rnm= 1.355
# # Pot 3 Z=52 Rmt= 1.286 Rnm= 1.443
# # Pot 4 Z= 8 Rmt= 1.019 Rnm= 1.104
# # Gam_ch=1.729E+00 H-L exch Vi= 0.000E+00 Vr= 0.000E+00
# # Mu=-5.837E+00eV kf=1.958E+00 Vint=-1.314E+01eV Rs_int= 1.852
# FMS rfms= 9.0000
# # PATH  Rmax=-1.000,  Keep_limit= 0.00, Heap_limit 0.00  Pwcrit= 2.50%
#  S02=0.950  Temp=   0.00  Debye_temp=   0.00  Global_sig2= 0.00000
#  Energy zero shift, vr, vi    0.00000E+00   0.00000E+00
#  Curved wave amplitude ratio filter   4.000%
#     file         sig2 tot  cw amp ratio   deg  nlegs   reff  inp sig2
#     0/   0 paths used
#  xsedge+ 50, used to normalize mu           2.4247E-04
#  -----------------------------------------------------------------------
#  omega    e    k    mu    mu0     chi     @#
    8983.358     -9.647  -1.000  3.82177E-02  5.67281E-02 -1.85104E-02
    8983.656     -9.348  -0.960  4.01115E-02  6.08929E-02 -2.07813E-02
    8983.943     -9.062  -0.920  4.21312E-02  6.55207E-02 -2.33895E-02
    8984.217     -8.787  -0.880  4.42878E-02  7.06793E-02 -2.63915E-02
    8984.479     -8.525  -0.840  4.65943E-02  7.64475E-02 -2.98533E-02
    8984.729     -8.275  -0.800  4.90644E-02  8.29165E-02 -3.38521E-02
    8984.967     -8.038  -0.760  5.17137E-02  9.01907E-02 -3.84771E-02
    8985.193     -7.812  -0.720  5.45587E-02  9.83882E-02 -4.38295E-02
    8985.406     -7.599  -0.680  5.76168E-02  1.07638E-01 -5.00217E-02
    8985.607     -7.398  -0.640  6.09052E-02  1.18078E-01 -5.71732E-02
    8985.796     -7.209  -0.600  6.44391E-02  1.29842E-01 -6.54030E-02
    8985.973     -7.032  -0.560  6.82289E-02  1.43044E-01 -7.48148E-02
    8986.137     -6.867  -0.520  7.22758E-02  1.57751E-01 -8.54751E-02
    8986.290     -6.715  -0.480  7.65660E-02  1.73948E-01 -9.73817E-02
    8986.430     -6.575  -0.440  8.10642E-02  1.91492E-01 -1.10428E-01
    8986.558     -6.447  -0.400  8.57075E-02  2.10081E-01 -1.24374E-01
    8986.674     -6.331  -0.360  9.04041E-02  2.29238E-01 -1.38834E-01
    8986.777     -6.227  -0.320  9.50368E-02  2.48342E-01 -1.53305E-01
    8986.869     -6.136  -0.280  9.94744E-02  2.66705E-01 -1.67231E-01
    8986.948     -6.056  -0.240  1.03585E-01  2.83663E-01 -1.80078E-01
    8987.015     -5.989  -0.200  1.07252E-01  2.98658E-01 -1.91406E-01
    8987.070     -5.935  -0.160  1.10378E-01  3.11280E-01 -2.00903E-01
    8987.113     -5.892  -0.120  1.12888E-01  3.21264E-01 -2.08376E-01
    8987.143     -5.861  -0.080  1.14731E-01  3.28460E-01 -2.13729E-01
    8987.168     -5.837   0.000  1.16260E-01  3.34243E-01 -2.17983E-01
    8987.222     -5.782   0.120  1.19658E-01  3.47289E-01 -2.27631E-01
    8987.265     -5.739   0.160  1.22310E-01  3.57447E-01 -2.35137E-01
    8987.320     -5.685   0.200  1.25709E-01  3.70415E-01 -2.44707E-01
    8987.387     -5.618   0.240  1.29918E-01  3.86053E-01 -2.56136E-01
    8987.466     -5.538   0.280  1.34928E-01  4.04048E-01 -2.69120E-01
    8987.558     -5.447   0.320  1.40722E-01  4.23947E-01 -2.83226E-01
    8987.661     -5.343   0.360  1.47324E-01  4.45231E-01 -2.97908E-01
    8987.777     -5.227   0.400  1.54699E-01  4.67281E-01 -3.12582E-01
    8987.905     -5.099   0.440  1.62853E-01  4.89567E-01 -3.26714E-01
    8988.045     -4.959   0.480  1.71793E-01  5.11678E-01 -3.39885E-01
    8988.198     -4.807   0.520  1.81452E-01  5.33286E-01 -3.51834E-01
    8988.362     -4.642   0.560  1.91892E-01  5.54288E-01 -3.62395E-01
    8988.539     -4.465   0.600  2.03207E-01  5.74642E-01 -3.71435E-01
    8988.728     -4.276   0.640  2.15583E-01  5.94337E-01 -3.78754E-01
    8988.929     -4.075   0.680  2.29489E-01  6.13460E-01 -3.83971E-01
    8989.143     -3.862   0.720  2.45625E-01  6.32107E-01 -3.86482E-01
    8989.368     -3.636   0.760  2.64708E-01  6.50293E-01 -3.85584E-01
    8989.606     -3.399   0.800  2.87427E-01  6.68103E-01 -3.80675E-01
    8989.856     -3.149   0.840  3.14153E-01  6.85588E-01 -3.71436E-01
    8990.118     -2.887   0.880  3.44723E-01  7.02746E-01 -3.58022E-01
    8990.392     -2.612   0.920  3.78489E-01  7.19599E-01 -3.41110E-01
    8990.679     -2.326   0.960  4.14508E-01  7.36159E-01 -3.21651E-01
    8990.978     -2.027   1.000  4.52066E-01  7.52386E-01 -3.00321E-01
    8991.289     -1.716   1.040  4.91302E-01  7.68293E-01 -2.76992E-01
    8991.612     -1.393   1.080  5.32939E-01  7.83847E-01 -2.50908E-01
    8991.947     -1.058   1.120  5.77283E-01  7.99009E-01 -2.21726E-01
    8992.294     -0.710   1.160  6.22987E-01  8.13755E-01 -1.90768E-01
    8992.654     -0.351   1.200  6.67041E-01  8.28038E-01 -1.60996E-01
    8993.026      0.021   1.240  7.06321E-01  8.41833E-01 -1.35512E-01
    8993.410      0.405   1.280  7.38167E-01  8.55133E-01 -1.16966E-01
    8993.806      0.802   1.320  7.58576E-01  8.67867E-01 -1.09291E-01
    8994.215      1.210   1.360  7.64835E-01  8.80051E-01 -1.15216E-01
    8994.635      1.631   1.400  7.64776E-01  8.91637E-01 -1.26861E-01
    8995.068      2.063   1.440  7.75621E-01  9.02602E-01 -1.26981E-01
    8995.513      2.508   1.480  8.07383E-01  9.12963E-01 -1.05579E-01
    8995.970      2.966   1.520  8.54549E-01  9.22698E-01 -6.81490E-02
    8996.440      3.435   1.560  9.06212E-01  9.31808E-01 -2.55958E-02
    8996.921      3.917   1.600  9.59360E-01  9.40274E-01  1.90863E-02
    8997.415      4.410   1.640  1.02126E+00  9.48102E-01  7.31574E-02
    8997.921      4.916   1.680  1.10423E+00  9.55339E-01  1.48892E-01
    8998.439      5.434   1.720  1.21328E+00  9.61952E-01  2.51328E-01
    8998.969      5.965   1.760  1.32677E+00  9.67991E-01  3.58777E-01
    8999.512      6.507   1.800  1.39732E+00  9.73445E-01  4.23873E-01
    9000.067      7.062   1.840  1.40045E+00  9.78347E-01  4.22102E-01
    9000.634      7.629   1.880  1.35936E+00  9.82730E-01  3.76627E-01
    9001.213      8.208   1.920  1.30654E+00  9.86630E-01  3.19909E-01
    9001.804      8.799   1.960  1.26102E+00  9.90037E-01  2.70985E-01
    9002.408      9.403   2.000  1.23253E+00  9.92987E-01  2.39541E-01
    9003.023     10.019   2.040  1.22146E+00  9.95536E-01  2.25923E-01
    9003.651     10.647   2.080  1.21854E+00  9.97677E-01  2.20868E-01
    9004.291     11.287   2.120  1.21148E+00  9.99466E-01  2.12016E-01
    9004.943     11.939   2.160  1.19320E+00  1.00092E+00  1.92283E-01
    9005.608     12.603   2.200  1.16404E+00  1.00205E+00  1.61989E-01
    9006.285     13.280   2.240  1.12912E+00  1.00292E+00  1.26207E-01
    9006.973     13.969   2.280  1.09585E+00  1.00353E+00  9.23213E-02
    9007.674     14.670   2.320  1.07341E+00  1.00392E+00  6.94881E-02
    9008.388     15.383   2.360  1.06865E+00  1.00410E+00  6.45446E-02
    9009.113     16.109   2.400  1.07758E+00  1.00411E+00  7.34646E-02
    9009.851     16.846   2.440  1.08430E+00  1.00396E+00  8.03339E-02
    9010.601     17.596   2.480  1.08318E+00  1.00368E+00  7.94975E-02
    9011.363     18.358   2.520  1.07285E+00  1.00328E+00  6.95769E-02
    9012.137     19.132   2.560  1.05450E+00  1.00280E+00  5.16978E-02
    9012.923     19.918   2.600  1.03105E+00  1.00223E+00  2.88230E-02
    9013.722     20.717   2.640  1.00594E+00  1.00160E+00  4.33977E-03
    9014.532     21.528   2.680  9.80924E-01  1.00093E+00 -2.00045E-02
    9015.355     22.351   2.720  9.58178E-01  1.00024E+00 -4.20627E-02
    9016.191     23.186   2.760  9.39232E-01  9.99524E-01 -6.02922E-02
    9017.038     24.033   2.800  9.24652E-01  9.98805E-01 -7.41535E-02
    9017.897     24.893   2.840  9.14797E-01  9.98110E-01 -8.33128E-02
    9018.769     25.765   2.880  9.09337E-01  9.97422E-01 -8.80850E-02
    9019.653     26.648   2.920  9.07192E-01  9.96766E-01 -8.95734E-02
    9020.549     27.545   2.960  9.06922E-01  9.96126E-01 -8.92039E-02
    9021.457     28.453   3.000  9.06724E-01  9.95550E-01 -8.88261E-02
    9022.378     29.373   3.040  9.05265E-01  9.95018E-01 -8.97536E-02
    9023.311     30.306   3.080  9.02211E-01  9.94556E-01 -9.23448E-02
    9024.256     31.251   3.120  8.98025E-01  9.94143E-01 -9.61180E-02
    9025.213     32.208   3.160  8.93637E-01  9.93803E-01 -1.00166E-01
    9026.182     33.177   3.200  8.89887E-01  9.93515E-01 -1.03628E-01
    9027.163     34.159   3.240  8.87351E-01  9.93303E-01 -1.05952E-01
    9028.157     35.152   3.280  8.86090E-01  9.93169E-01 -1.07080E-01
    9029.163     36.158   3.320  8.86112E-01  9.93113E-01 -1.07001E-01
    9030.181     37.176   3.360  8.87503E-01  9.93135E-01 -1.05632E-01
    9031.211     38.206   3.400  8.90336E-01  9.93214E-01 -1.02878E-01
    9032.253     39.249   3.440  8.94569E-01  9.93392E-01 -9.88233E-02
    9033.308     40.303   3.480  9.00175E-01  9.93628E-01 -9.34523E-02
    9034.375     41.370   3.520  9.07168E-01  9.93941E-01 -8.67726E-02
    9035.454     42.449   3.560  9.15515E-01  9.94332E-01 -7.88168E-02
    9036.545     43.540   3.600  9.25292E-01  9.94800E-01 -6.95085E-02
    9037.648     44.644   3.640  9.36709E-01  9.95343E-01 -5.86342E-02
    9038.764     45.759   3.680  9.50027E-01  9.95938E-01 -4.59111E-02
    9039.892     46.887   3.720  9.65359E-01  9.96582E-01 -3.12236E-02
    9041.032     48.027   3.760  9.82680E-01  9.97297E-01 -1.46166E-02
    9042.184     49.179   3.800  1.00142E+00  9.98082E-01  3.33985E-03
    9043.348     50.344   3.840  1.02047E+00  9.98914E-01  2.15569E-02
    9044.525     51.520   3.880  1.03869E+00  9.99788E-01  3.89067E-02
    9045.713     52.709   3.920  1.05526E+00  1.00070E+00  5.45587E-02
    9046.914     53.910   3.960  1.06971E+00  1.00163E+00  6.80784E-02
    9048.127     55.123   4.000  1.08195E+00  1.00262E+00  7.93307E-02
    9049.353     56.348   4.040  1.09185E+00  1.00365E+00  8.82012E-02
    9050.590     57.586   4.080  1.09912E+00  1.00468E+00  9.44360E-02
    9051.840     58.835   4.120  1.10345E+00  1.00575E+00  9.76967E-02
    9053.102     60.097   4.160  1.10483E+00  1.00682E+00  9.80079E-02
    9054.376     61.371   4.200  1.10355E+00  1.00789E+00  9.56541E-02
    9055.662     62.657   4.240  1.10014E+00  1.00897E+00  9.11779E-02
    9056.960     63.956   4.280  1.09529E+00  1.01004E+00  8.52557E-02
    9058.271     65.266   4.320  1.08961E+00  1.01111E+00  7.85021E-02
    9059.594     66.589   4.360  1.08349E+00  1.01217E+00  7.13190E-02
    9060.929     67.924   4.400  1.07722E+00  1.01322E+00  6.39988E-02
    9062.276     69.272   4.440  1.07108E+00  1.01422E+00  5.68542E-02
    9063.636     70.631   4.480  1.06537E+00  1.01523E+00  5.01350E-02
    9065.007     72.002   4.520  1.06016E+00  1.01618E+00  4.39862E-02
    9066.391     73.386   4.560  1.05546E+00  1.01711E+00  3.83542E-02
    9067.787     74.782   4.600  1.05101E+00  1.01797E+00  3.30382E-02
    9069.195     76.190   4.640  1.04663E+00  1.01882E+00  2.78079E-02
    9070.615     77.611   4.680  1.04209E+00  1.01962E+00  2.24659E-02
    9072.048     79.043   4.720  1.03717E+00  1.02035E+00  1.68150E-02
    9073.493     80.488   4.760  1.03172E+00  1.02103E+00  1.06890E-02
    9074.950     81.945   4.800  1.02570E+00  1.02165E+00  4.05404E-03
    9076.419     83.414   4.840  1.01923E+00  1.02220E+00 -2.97325E-03
    9077.900     84.895   4.880  1.01259E+00  1.02272E+00 -1.01276E-02
    9079.394     86.389   4.920  1.00609E+00  1.02315E+00 -1.70588E-02
    9080.899     87.895   4.960  1.00013E+00  1.02354E+00 -2.34019E-02
    9082.417     89.413   5.000  9.95047E-01  1.02384E+00 -2.87977E-02
    9083.947     90.943   5.040  9.91087E-01  1.02408E+00 -3.29890E-02
    9085.490     92.485   5.080  9.88352E-01  1.02425E+00 -3.59024E-02
    9087.044     94.039   5.120  9.86679E-01  1.02436E+00 -3.76784E-02
    9088.611     95.606   5.160  9.85687E-01  1.02441E+00 -3.87196E-02
    9090.190     97.185   5.200  9.84876E-01  1.02438E+00 -3.95049E-02
    9091.781     98.776   5.240  9.83809E-01  1.02428E+00 -4.04709E-02
    9093.384    100.379   5.280  9.82271E-01  1.02413E+00 -4.18570E-02
    9094.999    101.995   5.320  9.80253E-01  1.02392E+00 -4.36718E-02
    9096.627    103.622   5.360  9.77944E-01  1.02365E+00 -4.57040E-02
    9098.267    105.262   5.400  9.75694E-01  1.02330E+00 -4.76070E-02
    9099.919    106.914   5.440  9.73935E-01  1.02293E+00 -4.89938E-02
    9101.583    108.578   5.480  9.72966E-01  1.02249E+00 -4.95218E-02
    9103.259    110.255   5.520  9.73027E-01  1.02200E+00 -4.89726E-02
    9104.948    111.943   5.560  9.74123E-01  1.02144E+00 -4.73215E-02
    9106.649    113.644   5.600  9.76194E-01  1.02087E+00 -4.46766E-02
    9108.362    115.357   5.640  9.79076E-01  1.02026E+00 -4.11800E-02
    9110.087    117.082   5.680  9.82701E-01  1.01958E+00 -3.68781E-02
    9111.824    118.820   5.720  9.87150E-01  1.01889E+00 -3.17380E-02
    9113.574    120.569   5.760  9.92510E-01  1.01819E+00 -2.56781E-02
    9115.335    122.331   5.800  9.98781E-01  1.01743E+00 -1.86513E-02
    9117.109    124.105   5.840  1.00593E+00  1.01667E+00 -1.07405E-02
    9118.896    125.891   5.880  1.01364E+00  1.01590E+00 -2.26536E-03
    9120.694    127.689   5.920  1.02129E+00  1.01512E+00  6.17178E-03
    9122.504    129.500   5.960  1.02812E+00  1.01435E+00  1.37727E-02
    9124.327    131.322   6.000  1.03343E+00  1.01357E+00  1.98645E-02
