# # comment:                                                     FEFF 9.9.1  
# # Source:
# # Structure
# # Reduced
# # space
# # abc:
# # angles:
# # sites:
# # POT  SCF 100  7.0000   0, screened core-hole, AFOLP (folp(0)= 1.150)
# # Abs   Z=29 Rmt= 1.119 Rnm= 1.315 K  shell
# # Pot 1 Z=56 Rmt= 1.966 Rnm= 2.022
# # Pot 2 Z=39 Rmt= 1.632 Rnm= 1.709
# # Pot 3 Z=29 Rmt= 1.118 Rnm= 1.314
# # Pot 4 Z= 8 Rmt= 1.072 Rnm= 1.131
# # Gam_ch=1.729E+00 H-L exch Vi= 0.000E+00 Vr= 0.000E+00
# # Mu=-8.679E+00eV kf=1.978E+00 Vint=-1.687E+01eV Rs_int= 1.833
# FMS rfms= 9.0000
# # PATH  Rmax=-1.000,  Keep_limit= 0.00, Heap_limit 0.00  Pwcrit= 2.50%
#  S02=0.950  Temp=   0.00  Debye_temp=   0.00  Global_sig2= 0.00000
#  Energy zero shift, vr, vi    0.00000E+00   0.00000E+00
#  Curved wave amplitude ratio filter   4.000%
#     file         sig2 tot  cw amp ratio   deg  nlegs   reff  inp sig2
#     0/   0 paths used
#  xsedge+ 50, used to normalize mu           2.4648E-04
#  -----------------------------------------------------------------------
#  omega    e    k    mu    mu0     chi     @#
    8984.705    -12.489  -1.000  4.12015E-02  5.43433E-02 -1.31417E-02
    8985.003    -12.190  -0.960  4.36429E-02  5.82419E-02 -1.45990E-02
    8985.290    -11.903  -0.920  4.63161E-02  6.25678E-02 -1.62517E-02
    8985.564    -11.629  -0.880  4.92537E-02  6.73833E-02 -1.81295E-02
    8985.826    -11.367  -0.840  5.24939E-02  7.27606E-02 -2.02667E-02
    8986.076    -11.117  -0.800  5.60810E-02  7.87837E-02 -2.27027E-02
    8986.314    -10.879  -0.760  6.00664E-02  8.55485E-02 -2.54821E-02
    8986.539    -10.654  -0.720  6.45083E-02  9.31633E-02 -2.86550E-02
    8986.753    -10.440  -0.680  6.94713E-02  1.01747E-01 -3.22762E-02
    8986.954    -10.239  -0.640  7.50239E-02  1.11427E-01 -3.64027E-02
    8987.143    -10.050  -0.600  8.12336E-02  1.22324E-01 -4.10903E-02
    8987.320     -9.873  -0.560  8.81576E-02  1.34544E-01 -4.63867E-02
    8987.484     -9.709  -0.520  9.58289E-02  1.48150E-01 -5.23207E-02
    8987.637     -9.556  -0.480  1.04237E-01  1.63125E-01 -5.88879E-02
    8987.777     -9.416  -0.440  1.13304E-01  1.79339E-01 -6.60343E-02
    8987.905     -9.288  -0.400  1.22870E-01  1.96511E-01 -7.36411E-02
    8988.021     -9.172  -0.360  1.32682E-01  2.14201E-01 -8.15197E-02
    8988.124     -9.069  -0.320  1.42418E-01  2.31839E-01 -8.94207E-02
    8988.216     -8.977  -0.280  1.51727E-01  2.48788E-01 -9.70611E-02
    8988.295     -8.898  -0.240  1.60277E-01  2.64437E-01 -1.04160E-01
    8988.362     -8.831  -0.200  1.67798E-01  2.78273E-01 -1.10475E-01
    8988.417     -8.776  -0.160  1.74099E-01  2.89917E-01 -1.15818E-01
    8988.460     -8.734  -0.120  1.79061E-01  2.99127E-01 -1.20066E-01
    8988.490     -8.703  -0.080  1.82618E-01  3.05765E-01 -1.23146E-01
    8988.515     -8.679   0.000  1.85451E-01  3.11101E-01 -1.25649E-01
    8988.569     -8.624   0.120  1.92077E-01  3.23131E-01 -1.31054E-01
    8988.612     -8.581   0.160  1.97169E-01  3.32483E-01 -1.35313E-01
    8988.667     -8.526   0.200  2.03657E-01  3.44447E-01 -1.40790E-01
    8988.734     -8.459   0.240  2.11450E-01  3.58871E-01 -1.47422E-01
    8988.813     -8.380   0.280  2.20320E-01  3.75443E-01 -1.55122E-01
    8988.905     -8.289   0.320  2.30059E-01  3.93800E-01 -1.63740E-01
    8989.008     -8.185   0.360  2.40302E-01  4.13400E-01 -1.73098E-01
    8989.124     -8.069   0.400  2.50602E-01  4.33709E-01 -1.83106E-01
    8989.252     -7.941   0.440  2.60447E-01  4.54257E-01 -1.93810E-01
    8989.392     -7.801   0.480  2.69175E-01  4.74626E-01 -2.05451E-01
    8989.545     -7.648   0.520  2.76145E-01  4.94574E-01 -2.18429E-01
    8989.709     -7.484   0.560  2.80966E-01  5.13971E-01 -2.33005E-01
    8989.886     -7.307   0.600  2.83808E-01  5.32825E-01 -2.49017E-01
    8990.075     -7.118   0.640  2.85635E-01  5.51130E-01 -2.65496E-01
    8990.276     -6.917   0.680  2.88327E-01  5.69013E-01 -2.80686E-01
    8990.490     -6.704   0.720  2.94011E-01  5.86494E-01 -2.92482E-01
    8990.715     -6.478   0.760  3.04523E-01  6.03709E-01 -2.99187E-01
    8990.953     -6.240   0.800  3.20360E-01  6.20688E-01 -3.00328E-01
    8991.203     -5.990   0.840  3.40314E-01  6.37526E-01 -2.97212E-01
    8991.465     -5.728   0.880  3.61182E-01  6.54225E-01 -2.93044E-01
    8991.739     -5.454   0.920  3.79554E-01  6.70813E-01 -2.91260E-01
    8992.026     -5.167   0.960  3.94941E-01  6.87328E-01 -2.92388E-01
    8992.325     -4.869   1.000  4.10917E-01  7.03756E-01 -2.92839E-01
    8992.635     -4.558   1.040  4.32880E-01  7.20094E-01 -2.87214E-01
    8992.959     -4.235   1.080  4.65857E-01  7.36313E-01 -2.70455E-01
    8993.294     -3.899   1.120  5.15121E-01  7.52416E-01 -2.37296E-01
    8993.641     -3.552   1.160  5.87289E-01  7.68363E-01 -1.81074E-01
    8994.001     -3.192   1.200  6.87467E-01  7.84129E-01 -9.66619E-02
    8994.373     -2.820   1.240  8.05627E-01  7.99664E-01  5.96297E-03
    8994.757     -2.436   1.280  8.98970E-01  8.14939E-01  8.40314E-02
    8995.153     -2.040   1.320  9.17773E-01  8.29901E-01  8.78727E-02
    8995.562     -1.632   1.360  8.69577E-01  8.44558E-01  2.50198E-02
    8995.982     -1.211   1.400  8.17142E-01  8.58835E-01 -4.16927E-02
    8996.415     -0.778   1.440  8.12137E-01  8.72719E-01 -6.05823E-02
    8996.860     -0.333   1.480  8.47850E-01  8.86157E-01 -3.83077E-02
    8997.317      0.124   1.520  8.64248E-01  8.99116E-01 -3.48681E-02
    8997.787      0.593   1.560  8.24933E-01  9.11604E-01 -8.66715E-02
    8998.268      1.075   1.600  7.59779E-01  9.23552E-01 -1.63773E-01
    8998.762      1.569   1.640  7.08733E-01  9.34969E-01 -2.26236E-01
    8999.268      2.075   1.680  6.89229E-01  9.45829E-01 -2.56600E-01
    8999.786      2.593   1.720  7.00523E-01  9.56105E-01 -2.55582E-01
    9000.316      3.123   1.760  7.32472E-01  9.65791E-01 -2.33319E-01
    9000.859      3.666   1.800  7.73254E-01  9.74887E-01 -2.01633E-01
    9001.414      4.220   1.840  8.31325E-01  9.83390E-01 -1.52065E-01
    9001.981      4.787   1.880  9.25366E-01  9.91281E-01 -6.59143E-02
    9002.560      5.366   1.920  1.04296E+00  9.98582E-01  4.43762E-02
    9003.151      5.958   1.960  1.12840E+00  1.00530E+00  1.23099E-01
    9003.755      6.561   2.000  1.14974E+00  1.01143E+00  1.38315E-01
    9004.370      7.177   2.040  1.13322E+00  1.01696E+00  1.16254E-01
    9004.998      7.805   2.080  1.11497E+00  1.02197E+00  9.29928E-02
    9005.638      8.445   2.120  1.11192E+00  1.02642E+00  8.55012E-02
    9006.290      9.097   2.160  1.12178E+00  1.03033E+00  9.14462E-02
    9006.955      9.762   2.200  1.13276E+00  1.03375E+00  9.90134E-02
    9007.632     10.438   2.240  1.13894E+00  1.03667E+00  1.02267E-01
    9008.320     11.127   2.280  1.14850E+00  1.03913E+00  1.09367E-01
    9009.021     11.828   2.320  1.17363E+00  1.04115E+00  1.32482E-01
    9009.735     12.541   2.360  1.21760E+00  1.04275E+00  1.74852E-01
    9010.460     13.267   2.400  1.26987E+00  1.04394E+00  2.25925E-01
    9011.198     14.004   2.440  1.30660E+00  1.04476E+00  2.61834E-01
    9011.948     14.754   2.480  1.31644E+00  1.04525E+00  2.71196E-01
    9012.710     15.516   2.520  1.29847E+00  1.04540E+00  2.53063E-01
    9013.484     16.290   2.560  1.25711E+00  1.04524E+00  2.11870E-01
    9014.270     17.077   2.600  1.20283E+00  1.04482E+00  1.58010E-01
    9015.069     17.875   2.640  1.14662E+00  1.04413E+00  1.02495E-01
    9015.879     18.686   2.680  1.09652E+00  1.04321E+00  5.33079E-02
    9016.702     19.509   2.720  1.05690E+00  1.04209E+00  1.48143E-02
    9017.538     20.344   2.760  1.02871E+00  1.04077E+00 -1.20590E-02
    9018.385     21.192   2.800  1.01083E+00  1.03927E+00 -2.84476E-02
    9019.244     22.051   2.840  1.00203E+00  1.03762E+00 -3.55894E-02
    9020.116     22.923   2.880  1.00071E+00  1.03585E+00 -3.51377E-02
    9021.000     23.807   2.920  1.00427E+00  1.03395E+00 -2.96753E-02
    9021.896     24.703   2.960  1.01019E+00  1.03196E+00 -2.17672E-02
    9022.804     25.611   3.000  1.01638E+00  1.02989E+00 -1.35065E-02
    9023.725     26.532   3.040  1.02179E+00  1.02776E+00 -5.96979E-03
    9024.658     27.464   3.080  1.02632E+00  1.02557E+00  7.50833E-04
    9025.602     28.409   3.120  1.03022E+00  1.02334E+00  6.88959E-03
    9026.560     29.366   3.160  1.03332E+00  1.02109E+00  1.22351E-02
    9027.529     30.336   3.200  1.03457E+00  1.01883E+00  1.57322E-02
    9028.510     31.317   3.240  1.03228E+00  1.01656E+00  1.57199E-02
    9029.504     32.311   3.280  1.02504E+00  1.01431E+00  1.07350E-02
    9030.510     33.317   3.320  1.01222E+00  1.01209E+00  1.36500E-04
    9031.528     34.335   3.360  9.94453E-01  1.00988E+00 -1.54240E-02
    9032.558     35.365   3.400  9.73748E-01  1.00770E+00 -3.39562E-02
    9033.600     36.407   3.440  9.52640E-01  1.00557E+00 -5.29349E-02
    9034.655     37.462   3.480  9.33459E-01  1.00351E+00 -7.00520E-02
    9035.722     38.529   3.520  9.17797E-01  1.00150E+00 -8.36982E-02
    9036.801     39.608   3.560  9.06379E-01  9.99551E-01 -9.31721E-02
    9037.892     40.699   3.600  8.99124E-01  9.97660E-01 -9.85365E-02
    9038.995     41.802   3.640  8.95749E-01  9.95846E-01 -1.00097E-01
    9040.111     42.918   3.680  8.95929E-01  9.94132E-01 -9.82039E-02
    9041.239     44.045   3.720  8.99088E-01  9.92478E-01 -9.33901E-02
    9042.379     45.185   3.760  9.04512E-01  9.90906E-01 -8.63940E-02
    9043.531     46.338   3.800  9.11213E-01  9.89439E-01 -7.82257E-02
    9044.695     47.502   3.840  9.18222E-01  9.88056E-01 -6.98345E-02
    9045.872     48.678   3.880  9.25073E-01  9.86759E-01 -6.16867E-02
    9047.060     49.867   3.920  9.32001E-01  9.85549E-01 -5.35474E-02
    9048.261     51.068   3.960  9.39634E-01  9.84446E-01 -4.48121E-02
    9049.474     52.281   4.000  9.48492E-01  9.83453E-01 -3.49607E-02
    9050.700     53.506   4.040  9.58699E-01  9.82527E-01 -2.38281E-02
    9051.937     54.744   4.080  9.69859E-01  9.81709E-01 -1.18502E-02
    9053.187     55.994   4.120  9.80788E-01  9.81000E-01 -2.11816E-04
    9054.449     57.255   4.160  9.89691E-01  9.80378E-01  9.31252E-03
    9055.723     58.529   4.200  9.94835E-01  9.79843E-01  1.49920E-02
    9057.009     59.816   4.240  9.95406E-01  9.79393E-01  1.60134E-02
    9058.307     61.114   4.280  9.92070E-01  9.79049E-01  1.30207E-02
    9059.618     62.425   4.320  9.86605E-01  9.78790E-01  7.81467E-03
    9060.941     63.748   4.360  9.81170E-01  9.78616E-01  2.55427E-03
    9062.276     65.083   4.400  9.77543E-01  9.78524E-01 -9.81668E-04
    9063.623     66.430   4.440  9.76768E-01  9.78535E-01 -1.76765E-03
    9064.982     67.789   4.480  9.79212E-01  9.78605E-01  6.07154E-04
    9066.354     69.161   4.520  9.84993E-01  9.78752E-01  6.24030E-03
    9067.738     70.545   4.560  9.94021E-01  9.78978E-01  1.50427E-02
    9069.134     71.941   4.600  1.00571E+00  9.79280E-01  2.64288E-02
    9070.542     73.349   4.640  1.01855E+00  9.79656E-01  3.88898E-02
    9071.962     74.769   4.680  1.03010E+00  9.80082E-01  5.00156E-02
    9073.395     76.202   4.720  1.03777E+00  9.80558E-01  5.72157E-02
    9074.840     77.646   4.760  1.03994E+00  9.81103E-01  5.88348E-02
    9076.297     79.103   4.800  1.03671E+00  9.81715E-01  5.49999E-02
    9077.766     80.572   4.840  1.02973E+00  9.82349E-01  4.73808E-02
    9079.247     82.054   4.880  1.02119E+00  9.83046E-01  3.81398E-02
    9080.741     83.547   4.920  1.01295E+00  9.83759E-01  2.91864E-02
    9082.246     85.053   4.960  1.00651E+00  9.84510E-01  2.19979E-02
    9083.764     86.571   5.000  1.00280E+00  9.85318E-01  1.74814E-02
    9085.294     88.101   5.040  1.00195E+00  9.86116E-01  1.58303E-02
    9086.837     89.643   5.080  1.00355E+00  9.86966E-01  1.65877E-02
    9088.391     91.198   5.120  1.00693E+00  9.87801E-01  1.91312E-02
    9089.958     92.764   5.160  1.01162E+00  9.88661E-01  2.29635E-02
    9091.537     94.343   5.200  1.01697E+00  9.89525E-01  2.74444E-02
    9093.128     95.934   5.240  1.02168E+00  9.90389E-01  3.12883E-02
    9094.731     97.538   5.280  1.02398E+00  9.91251E-01  3.27266E-02
    9096.346     99.153   5.320  1.02264E+00  9.92111E-01  3.05264E-02
    9097.974    100.781   5.360  1.01785E+00  9.92964E-01  2.48880E-02
    9099.614    102.420   5.400  1.01126E+00  9.93787E-01  1.74707E-02
    9101.266    104.072   5.440  1.00437E+00  9.94576E-01  9.79363E-03
    9102.930    105.737   5.480  9.98047E-01  9.95354E-01  2.69235E-03
    9104.606    107.413   5.520  9.92586E-01  9.96120E-01 -3.53389E-03
    9106.295    109.102   5.560  9.88102E-01  9.96827E-01 -8.72532E-03
    9107.996    110.802   5.600  9.84763E-01  9.97515E-01 -1.27528E-02
    9109.709    112.515   5.640  9.82668E-01  9.98141E-01 -1.54732E-02
    9111.434    114.241   5.680  9.82069E-01  9.98748E-01 -1.66792E-02
    9113.171    115.978   5.720  9.82855E-01  9.99290E-01 -1.64359E-02
    9114.921    117.727   5.760  9.84571E-01  9.99811E-01 -1.52399E-02
    9116.682    119.489   5.800  9.86135E-01  1.00026E+00 -1.41253E-02
    9118.456    121.263   5.840  9.86616E-01  1.00064E+00 -1.40215E-02
    9120.242    123.049   5.880  9.85724E-01  1.00097E+00 -1.52418E-02
    9122.041    124.848   5.920  9.83610E-01  1.00124E+00 -1.76327E-02
    9123.851    126.658   5.960  9.80577E-01  1.00143E+00 -2.08557E-02
    9125.674    128.481   6.000  9.77134E-01  1.00154E+00 -2.44010E-02
