# # comment:                                                     FEFF 9.9.1  
# # Source:
# # Structure
# # Reduced
# # space
# # abc:
# # angles:
# # sites:
# # POT  SCF 100  7.0000   0, screened core-hole, AFOLP (folp(0)= 1.150)
# # Abs   Z=29 Rmt= 1.331 Rnm= 1.397 K  shell
# # Pot 1 Z= 3 Rmt= 1.262 Rnm= 1.322
# # Pot 2 Z=29 Rmt= 1.366 Rnm= 1.427
# # Pot 3 Z=16 Rmt= 0.891 Rnm= 1.103
# # Pot 4 Z= 8 Rmt= 0.905 Rnm= 1.020
# # Gam_ch=1.729E+00 H-L exch Vi= 0.000E+00 Vr= 0.000E+00
# # Mu=-5.000E+00eV kf=2.533E+00 Vint=-1.792E+01eV Rs_int= 1.432
# FMS rfms= 9.0000
# # PATH  Rmax=-1.000,  Keep_limit= 0.00, Heap_limit 0.00  Pwcrit= 2.50%
#  S02=0.950  Temp=   0.00  Debye_temp=   0.00  Global_sig2= 0.00000
#  Energy zero shift, vr, vi    0.00000E+00   0.00000E+00
#  Curved wave amplitude ratio filter   4.000%
#     file         sig2 tot  cw amp ratio   deg  nlegs   reff  inp sig2
#     0/   0 paths used
#  xsedge+ 50, used to normalize mu           2.4694E-04
#  -----------------------------------------------------------------------
#  omega    e    k    mu    mu0     chi     @#
    8983.483     -8.810  -1.000  5.84877E-02  5.59592E-02  2.52847E-03
    8983.782     -8.512  -0.960  6.27148E-02  6.00947E-02  2.62009E-03
    8984.068     -8.225  -0.920  6.73990E-02  6.46988E-02  2.70020E-03
    8984.342     -7.951  -0.880  7.26054E-02  6.98415E-02  2.76386E-03
    8984.604     -7.689  -0.840  7.84093E-02  7.56045E-02  2.80479E-03
    8984.854     -7.439  -0.800  8.48979E-02  8.20827E-02  2.81515E-03
    8985.092     -7.201  -0.760  9.21703E-02  8.93851E-02  2.78522E-03
    8985.318     -6.976  -0.720  1.00338E-01  9.76349E-02  2.70326E-03
    8985.531     -6.762  -0.680  1.09524E-01  1.06968E-01  2.55539E-03
    8985.732     -6.561  -0.640  1.19855E-01  1.17529E-01  2.32582E-03
    8985.921     -6.372  -0.600  1.31457E-01  1.29459E-01  1.99764E-03
    8986.098     -6.195  -0.560  1.44435E-01  1.42880E-01  1.55427E-03
    8986.263     -6.031  -0.520  1.58847E-01  1.57865E-01  9.82086E-04
    8986.415     -5.878  -0.480  1.74673E-01  1.74399E-01  2.74075E-04
    8986.555     -5.738  -0.440  1.91771E-01  1.92336E-01 -5.65679E-04
    8986.683     -5.610  -0.400  2.09844E-01  2.11362E-01 -1.51797E-03
    8986.799     -5.494  -0.360  2.28431E-01  2.30978E-01 -2.54677E-03
    8986.903     -5.391  -0.320  2.46938E-01  2.50540E-01 -3.60178E-03
    8986.994     -5.299  -0.280  2.64705E-01  2.69331E-01 -4.62578E-03
    8987.073     -5.220  -0.240  2.81101E-01  2.86666E-01 -5.56475E-03
    8987.140     -5.153  -0.200  2.95596E-01  3.01973E-01 -6.37687E-03
    8987.195     -5.098  -0.160  3.07799E-01  3.14836E-01 -7.03686E-03
    8987.238     -5.055  -0.120  3.17458E-01  3.24994E-01 -7.53604E-03
    8987.268     -5.025  -0.080  3.24426E-01  3.32306E-01 -7.88003E-03
    8987.293     -5.000   0.000  3.30022E-01  3.38175E-01 -8.15368E-03
    8987.348     -4.946   0.120  3.42444E-01  3.51403E-01 -8.95877E-03
    8987.390     -4.903   0.160  3.52186E-01  3.61665E-01 -9.47942E-03
    8987.445     -4.848   0.200  3.64716E-01  3.74749E-01 -1.00330E-02
    8987.512     -4.781   0.240  3.79916E-01  3.90437E-01 -1.05211E-02
    8987.591     -4.702   0.280  3.97629E-01  4.08405E-01 -1.07754E-02
    8987.683     -4.610   0.320  4.17598E-01  4.28135E-01 -1.05367E-02
    8987.787     -4.507   0.360  4.39544E-01  4.49035E-01 -9.49041E-03
    8987.902     -4.391   0.400  4.63197E-01  4.70418E-01 -7.22076E-03
    8988.030     -4.263   0.440  4.88452E-01  4.91715E-01 -3.26370E-03
    8988.171     -4.123   0.480  5.15255E-01  5.12472E-01  2.78232E-03
    8988.323     -3.970   0.520  5.43505E-01  5.32382E-01  1.11222E-02
    8988.488     -3.806   0.560  5.72858E-01  5.51315E-01  2.15426E-02
    8988.664     -3.629   0.600  6.02453E-01  5.69241E-01  3.32123E-02
    8988.853     -3.440   0.640  6.30942E-01  5.86252E-01  4.46904E-02
    8989.055     -3.239   0.680  6.56809E-01  6.02439E-01  5.43699E-02
    8989.268     -3.025   0.720  6.79089E-01  6.17912E-01  6.11777E-02
    8989.493     -2.800   0.760  6.97858E-01  6.32820E-01  6.50376E-02
    8989.731     -2.562   0.800  7.13806E-01  6.47222E-01  6.65845E-02
    8989.981     -2.312   0.840  7.27440E-01  6.61263E-01  6.61763E-02
    8990.243     -2.050   0.880  7.38046E-01  6.74995E-01  6.30512E-02
    8990.518     -1.776   0.920  7.44355E-01  6.88493E-01  5.58620E-02
    8990.804     -1.489   0.960  7.46446E-01  7.01819E-01  4.46272E-02
    8991.103     -1.190   1.000  7.45809E-01  7.14983E-01  3.08265E-02
    8991.414     -0.880   1.040  7.43567E-01  7.28004E-01  1.55626E-02
    8991.737     -0.556   1.080  7.41149E-01  7.40954E-01  1.94933E-04
    8992.072     -0.221   1.120  7.41154E-01  7.53777E-01 -1.26230E-02
    8992.420      0.126   1.160  7.45974E-01  7.66512E-01 -2.05374E-02
    8992.779      0.486   1.200  7.56887E-01  7.79168E-01 -2.22808E-02
    8993.151      0.858   1.240  7.76172E-01  7.91693E-01 -1.55214E-02
    8993.535      1.242   1.280  8.08679E-01  8.04113E-01  4.56657E-03
    8993.931      1.638   1.320  8.58622E-01  8.16407E-01  4.22146E-02
    8994.340      2.047   1.360  9.24016E-01  8.28534E-01  9.54819E-02
    8994.760      2.467   1.400  9.94834E-01  8.40509E-01  1.54325E-01
    8995.193      2.900   1.440  1.06149E+00  8.52288E-01  2.09200E-01
    8995.638      3.345   1.480  1.12389E+00  8.63844E-01  2.60047E-01
    8996.095      3.802   1.520  1.18224E+00  8.75168E-01  3.07068E-01
    8996.565      4.272   1.560  1.22606E+00  8.86215E-01  3.39844E-01
    8997.046      4.753   1.600  1.24380E+00  8.97014E-01  3.46784E-01
    8997.540      5.247   1.640  1.23263E+00  9.07477E-01  3.25157E-01
    8998.046      5.753   1.680  1.20064E+00  9.17634E-01  2.83009E-01
    8998.564      6.271   1.720  1.16646E+00  9.27439E-01  2.39017E-01
    8999.095      6.801   1.760  1.13933E+00  9.36863E-01  2.02471E-01
    8999.637      7.344   1.800  1.11461E+00  9.45918E-01  1.68696E-01
    9000.192      7.899   1.840  1.09382E+00  9.54578E-01  1.39238E-01
    9000.759      8.466   1.880  1.08489E+00  9.62817E-01  1.22069E-01
    9001.338      9.045   1.920  1.08728E+00  9.70628E-01  1.16654E-01
    9001.929      9.636   1.960  1.09488E+00  9.77987E-01  1.16893E-01
    9002.533     10.239   2.000  1.10213E+00  9.84913E-01  1.17216E-01
    9003.148     10.855   2.040  1.10771E+00  9.91382E-01  1.16330E-01
    9003.776     11.483   2.080  1.11393E+00  9.97414E-01  1.16513E-01
    9004.416     12.123   2.120  1.12081E+00  1.00297E+00  1.17838E-01
    9005.069     12.775   2.160  1.12303E+00  1.00809E+00  1.14948E-01
    9005.733     13.440   2.200  1.11475E+00  1.01273E+00  1.02026E-01
    9006.410     14.117   2.240  1.09487E+00  1.01694E+00  7.79310E-02
    9007.099     14.805   2.280  1.06828E+00  1.02070E+00  4.75784E-02
    9007.800     15.506   2.320  1.04287E+00  1.02404E+00  1.88276E-02
    9008.513     16.220   2.360  1.02307E+00  1.02696E+00 -3.89054E-03
    9009.238     16.945   2.400  1.00741E+00  1.02945E+00 -2.20384E-02
    9009.976     17.683   2.440  9.92492E-01  1.03155E+00 -3.90571E-02
    9010.726     18.432   2.480  9.77490E-01  1.03328E+00 -5.57867E-02
    9011.488     19.194   2.520  9.65186E-01  1.03462E+00 -6.94291E-02
    9012.262     19.969   2.560  9.58105E-01  1.03563E+00 -7.75282E-02
    9013.048     20.755   2.600  9.53333E-01  1.03630E+00 -8.29675E-02
    9013.847     21.554   2.640  9.45502E-01  1.03667E+00 -9.11640E-02
    9014.658     22.364   2.680  9.34331E-01  1.03672E+00 -1.02389E-01
    9015.481     23.187   2.720  9.23625E-01  1.03651E+00 -1.12889E-01
    9016.316     24.022   2.760  9.15337E-01  1.03606E+00 -1.20720E-01
    9017.163     24.870   2.800  9.10031E-01  1.03536E+00 -1.25327E-01
    9018.023     25.729   2.840  9.09278E-01  1.03445E+00 -1.25170E-01
    9018.894     26.601   2.880  9.14543E-01  1.03334E+00 -1.18793E-01
    9019.778     27.485   2.920  9.27064E-01  1.03205E+00 -1.04989E-01
    9020.674     28.381   2.960  9.41598E-01  1.03061E+00 -8.90098E-02
    9021.583     29.289   3.000  9.53352E-01  1.02901E+00 -7.56587E-02
    9022.503     30.210   3.040  9.61742E-01  1.02731E+00 -6.55704E-02
    9023.436     31.143   3.080  9.67279E-01  1.02552E+00 -5.82431E-02
    9024.381     32.087   3.120  9.70789E-01  1.02362E+00 -5.28359E-02
    9025.338     33.045   3.160  9.73186E-01  1.02167E+00 -4.84848E-02
    9026.307     34.014   3.200  9.75457E-01  1.01965E+00 -4.41921E-02
    9027.288     34.995   3.240  9.78652E-01  1.01761E+00 -3.89541E-02
    9028.282     35.989   3.280  9.83475E-01  1.01553E+00 -3.20535E-02
    9029.288     36.995   3.320  9.90060E-01  1.01342E+00 -2.33635E-02
    9030.306     38.013   3.360  9.98123E-01  1.01134E+00 -1.32180E-02
    9031.336     39.043   3.400  1.00707E+00  1.00929E+00 -2.22093E-03
    9032.379     40.085   3.440  1.01604E+00  1.00724E+00  8.79948E-03
    9033.433     41.140   3.480  1.02436E+00  1.00524E+00  1.91213E-02
    9034.500     42.207   3.520  1.03161E+00  1.00328E+00  2.83369E-02
    9035.579     43.286   3.560  1.03758E+00  1.00138E+00  3.62022E-02
    9036.670     44.377   3.600  1.04194E+00  9.99538E-01  4.24000E-02
    9037.774     45.480   3.640  1.04446E+00  9.97792E-01  4.66688E-02
    9038.889     46.596   3.680  1.04501E+00  9.96103E-01  4.89061E-02
    9040.017     47.724   3.720  1.04381E+00  9.94497E-01  4.93178E-02
    9041.157     48.864   3.760  1.04148E+00  9.92995E-01  4.84854E-02
    9042.309     50.016   3.800  1.03854E+00  9.91581E-01  4.69627E-02
    9043.473     51.180   3.840  1.03533E+00  9.90255E-01  4.50723E-02
    9044.650     52.357   3.880  1.03193E+00  9.89040E-01  4.28932E-02
    9045.839     53.545   3.920  1.02833E+00  9.87939E-01  4.03951E-02
    9047.039     54.746   3.960  1.02450E+00  9.86931E-01  3.75736E-02
    9048.253     55.959   4.000  1.02060E+00  9.86038E-01  3.45663E-02
    9049.478     57.185   4.040  1.01691E+00  9.85263E-01  3.16508E-02
    9050.715     58.422   4.080  1.01366E+00  9.84602E-01  2.90540E-02
    9051.965     59.672   4.120  1.01092E+00  9.84035E-01  2.68805E-02
    9053.227     60.934   4.160  1.00866E+00  9.83585E-01  2.50764E-02
    9054.501     62.208   4.200  1.00672E+00  9.83250E-01  2.34693E-02
    9055.787     63.494   4.240  1.00486E+00  9.83029E-01  2.18283E-02
    9057.086     64.792   4.280  1.00283E+00  9.82899E-01  1.99323E-02
    9058.396     66.103   4.320  1.00048E+00  9.82859E-01  1.76219E-02
    9059.719     67.426   4.360  9.97744E-01  9.82951E-01  1.47932E-02
    9061.054     68.761   4.400  9.94548E-01  9.83110E-01  1.14376E-02
    9062.401     70.108   4.440  9.91007E-01  9.83376E-01  7.63102E-03
    9063.761     71.467   4.480  9.87231E-01  9.83725E-01  3.50599E-03
    9065.132     72.839   4.520  9.83407E-01  9.84156E-01 -7.48973E-04
    9066.516     74.223   4.560  9.79797E-01  9.84667E-01 -4.87049E-03
    9067.912     75.619   4.600  9.76625E-01  9.85256E-01 -8.63124E-03
    9069.320     77.027   4.640  9.73995E-01  9.85919E-01 -1.19239E-02
    9070.741     78.447   4.680  9.71822E-01  9.86631E-01 -1.48089E-02
    9072.173     79.880   4.720  9.69925E-01  9.87389E-01 -1.74640E-02
    9073.618     81.325   4.760  9.68200E-01  9.88213E-01 -2.00134E-02
    9075.075     82.782   4.800  9.66704E-01  9.89078E-01 -2.23742E-02
    9076.544     84.251   4.840  9.65656E-01  9.89957E-01 -2.43016E-02
    9078.025     85.732   4.880  9.65416E-01  9.90872E-01 -2.54557E-02
    9079.519     87.226   4.920  9.66221E-01  9.91819E-01 -2.55982E-02
    9081.024     88.731   4.960  9.68058E-01  9.92796E-01 -2.47381E-02
    9082.542     90.249   5.000  9.70614E-01  9.93756E-01 -2.31410E-02
    9084.072     91.779   5.040  9.73512E-01  9.94734E-01 -2.12225E-02
    9085.615     93.322   5.080  9.76333E-01  9.95687E-01 -1.93544E-02
    9087.169     94.876   5.120  9.78905E-01  9.96632E-01 -1.77272E-02
    9088.736     96.443   5.160  9.81178E-01  9.97547E-01 -1.63690E-02
    9090.315     98.022   5.200  9.83235E-01  9.98449E-01 -1.52142E-02
    9091.906     99.613   5.240  9.85142E-01  9.99315E-01 -1.41729E-02
    9093.509    101.216   5.280  9.87017E-01  1.00014E+00 -1.31228E-02
    9095.124    102.831   5.320  9.89030E-01  1.00092E+00 -1.18935E-02
    9096.752    104.459   5.360  9.91386E-01  1.00166E+00 -1.02757E-02
    9098.392    106.099   5.400  9.94272E-01  1.00233E+00 -8.05886E-03
    9100.044    107.751   5.440  9.97872E-01  1.00295E+00 -5.07832E-03
    9101.708    109.415   5.480  1.00221E+00  1.00352E+00 -1.31160E-03
    9103.385    111.091   5.520  1.00698E+00  1.00399E+00  2.99041E-03
    9105.073    112.780   5.560  1.01168E+00  1.00440E+00  7.27618E-03
    9106.774    114.481   5.600  1.01554E+00  1.00474E+00  1.07986E-02
    9108.487    116.194   5.640  1.01787E+00  1.00500E+00  1.28733E-02
    9110.212    117.919   5.680  1.01836E+00  1.00518E+00  1.31884E-02
    9111.949    119.656   5.720  1.01721E+00  1.00527E+00  1.19425E-02
    9113.699    121.406   5.760  1.01497E+00  1.00529E+00  9.68544E-03
    9115.461    123.167   5.800  1.01222E+00  1.00523E+00  6.99911E-03
    9117.235    124.941   5.840  1.00938E+00  1.00508E+00  4.29784E-03
    9119.021    126.727   5.880  1.00674E+00  1.00486E+00  1.87808E-03
    9120.819    128.526   5.920  1.00464E+00  1.00456E+00  7.86402E-05
    9122.630    130.336   5.960  1.00348E+00  1.00417E+00 -6.88992E-04
    9124.452    132.159   6.000  1.00357E+00  1.00365E+00 -8.04323E-05
