# # comment:                                                     FEFF 9.9.1  
# # Source:
# # Structure
# # Reduced
# # space
# # abc:
# # angles:
# # sites:
# # POT  SCF 100  7.0000   0, screened core-hole, AFOLP (folp(0)= 1.150)
# # Abs   Z=29 Rmt= 1.353 Rnm= 1.411 K  shell
# # Pot 1 Z= 3 Rmt= 1.251 Rnm= 1.312
# # Pot 2 Z=29 Rmt= 1.339 Rnm= 1.400
# # Pot 3 Z=15 Rmt= 0.947 Rnm= 1.157
# # Pot 4 Z= 8 Rmt= 0.942 Rnm= 1.040
# # Gam_ch=1.729E+00 H-L exch Vi= 0.000E+00 Vr= 0.000E+00
# # Mu=-6.354E+00eV kf=2.372E+00 Vint=-1.736E+01eV Rs_int= 1.529
# FMS rfms= 9.0000
# # PATH  Rmax=-1.000,  Keep_limit= 0.00, Heap_limit 0.00  Pwcrit= 2.50%
#  S02=0.950  Temp=   0.00  Debye_temp=   0.00  Global_sig2= 0.00000
#  Energy zero shift, vr, vi    0.00000E+00   0.00000E+00
#  Curved wave amplitude ratio filter   4.000%
#     file         sig2 tot  cw amp ratio   deg  nlegs   reff  inp sig2
#     0/   0 paths used
#  xsedge+ 50, used to normalize mu           2.4682E-04
#  -----------------------------------------------------------------------
#  omega    e    k    mu    mu0     chi     @#
    8983.709    -10.164  -1.000  4.97577E-02  5.46826E-02 -4.92488E-03
    8984.007     -9.865  -0.960  5.29615E-02  5.86862E-02 -5.72474E-03
    8984.294     -9.579  -0.920  5.64744E-02  6.31396E-02 -6.66520E-03
    8984.568     -9.305  -0.880  6.03369E-02  6.81095E-02 -7.77256E-03
    8984.830     -9.042  -0.840  6.45956E-02  7.36737E-02 -9.07813E-03
    8985.080     -8.792  -0.800  6.93035E-02  7.99226E-02 -1.06190E-02
    8985.318     -8.555  -0.760  7.45209E-02  8.69598E-02 -1.24389E-02
    8985.544     -8.329  -0.720  8.03147E-02  9.49026E-02 -1.45879E-02
    8985.757     -8.116  -0.680  8.67574E-02  1.03880E-01 -1.71231E-02
    8985.958     -7.915  -0.640  9.39242E-02  1.14030E-01 -2.01057E-02
    8986.147     -7.726  -0.600  1.01887E-01  1.25485E-01 -2.35981E-02
    8986.324     -7.549  -0.560  1.10706E-01  1.38362E-01 -2.76559E-02
    8986.488     -7.384  -0.520  1.20412E-01  1.52728E-01 -3.23162E-02
    8986.641     -7.232  -0.480  1.30989E-01  1.68570E-01 -3.75812E-02
    8986.781     -7.092  -0.440  1.42350E-01  1.85748E-01 -4.33989E-02
    8986.909     -6.964  -0.400  1.54314E-01  2.03962E-01 -4.96475E-02
    8987.025     -6.848  -0.360  1.66606E-01  2.22737E-01 -5.61311E-02
    8987.129     -6.744  -0.320  1.78862E-01  2.41458E-01 -6.25967E-02
    8987.220     -6.653  -0.280  1.90675E-01  2.59444E-01 -6.87697E-02
    8987.299     -6.574  -0.240  2.01641E-01  2.76040E-01 -7.43986E-02
    8987.366     -6.506  -0.200  2.11407E-01  2.90699E-01 -7.92910E-02
    8987.421     -6.452  -0.160  2.19693E-01  3.03022E-01 -8.33289E-02
    8987.464     -6.409  -0.120  2.26295E-01  3.12757E-01 -8.64620E-02
    8987.494     -6.378  -0.080  2.31082E-01  3.19767E-01 -8.86856E-02
    8987.519     -6.354   0.000  2.34942E-01  3.25397E-01 -9.04548E-02
    8987.574     -6.299   0.120  2.43872E-01  3.38094E-01 -9.42223E-02
    8987.616     -6.257   0.160  2.50848E-01  3.47941E-01 -9.70933E-02
    8987.671     -6.202   0.200  2.59883E-01  3.60517E-01 -1.00634E-01
    8987.738     -6.135   0.240  2.70937E-01  3.75600E-01 -1.04663E-01
    8987.817     -6.055   0.280  2.83974E-01  3.92890E-01 -1.08916E-01
    8987.909     -5.964   0.320  2.98872E-01  4.11926E-01 -1.13054E-01
    8988.012     -5.860   0.360  3.15498E-01  4.32134E-01 -1.16636E-01
    8988.128     -5.744   0.400  3.33663E-01  4.52868E-01 -1.19205E-01
    8988.256     -5.616   0.440  3.53280E-01  4.73617E-01 -1.20338E-01
    8988.396     -5.476   0.480  3.74193E-01  4.93934E-01 -1.19741E-01
    8988.549     -5.324   0.520  3.96121E-01  5.13508E-01 -1.17386E-01
    8988.713     -5.159   0.560  4.18577E-01  5.32256E-01 -1.13679E-01
    8988.890     -4.983   0.600  4.40579E-01  5.50129E-01 -1.09550E-01
    8989.079     -4.794   0.640  4.60873E-01  5.67213E-01 -1.06340E-01
    8989.280     -4.592   0.680  4.78065E-01  5.83569E-01 -1.05503E-01
    8989.494     -4.379   0.720  4.91261E-01  5.99296E-01 -1.08035E-01
    8989.719     -4.153   0.760  5.00802E-01  6.14556E-01 -1.13755E-01
    8989.957     -3.916   0.800  5.08611E-01  6.29395E-01 -1.20784E-01
    8990.207     -3.666   0.840  5.18153E-01  6.43928E-01 -1.25775E-01
    8990.469     -3.404   0.880  5.32932E-01  6.58199E-01 -1.25267E-01
    8990.743     -3.129   0.920  5.54693E-01  6.72273E-01 -1.17580E-01
    8991.030     -2.843   0.960  5.81673E-01  6.86164E-01 -1.04492E-01
    8991.329     -2.544   1.000  6.08107E-01  6.99957E-01 -9.18507E-02
    8991.640     -2.233   1.040  6.27038E-01  7.13604E-01 -8.65657E-02
    8991.963     -1.910   1.080  6.37273E-01  7.27151E-01 -8.98788E-02
    8992.298     -1.575   1.120  6.45901E-01  7.40596E-01 -9.46946E-02
    8992.645     -1.227   1.160  6.63236E-01  7.53932E-01 -9.06961E-02
    8993.005     -0.868   1.200  6.96865E-01  7.67147E-01 -7.02824E-02
    8993.377     -0.496   1.240  7.48685E-01  7.80223E-01 -3.15382E-02
    8993.761     -0.112   1.280  8.12283E-01  7.93140E-01  1.91429E-02
    8994.157      0.284   1.320  8.75628E-01  8.05898E-01  6.97303E-02
    8994.566      0.693   1.360  9.30445E-01  8.18451E-01  1.11994E-01
    8994.986      1.113   1.400  9.74603E-01  8.30795E-01  1.43808E-01
    8995.419      1.546   1.440  1.00929E+00  8.42903E-01  1.66386E-01
    8995.864      1.991   1.480  1.04253E+00  8.54744E-01  1.87789E-01
    8996.321      2.448   1.520  1.08609E+00  8.66292E-01  2.19798E-01
    8996.791      2.918   1.560  1.14218E+00  8.77517E-01  2.64661E-01
    8997.272      3.399   1.600  1.20150E+00  8.88433E-01  3.13071E-01
    8997.766      3.893   1.640  1.25696E+00  8.98969E-01  3.57988E-01
    8998.272      4.399   1.680  1.30305E+00  9.09159E-01  3.93893E-01
    8998.790      4.917   1.720  1.32856E+00  9.18935E-01  4.09628E-01
    8999.320      5.448   1.760  1.32686E+00  9.28310E-01  3.98553E-01
    8999.863      5.990   1.800  1.29400E+00  9.37261E-01  3.56743E-01
    9000.418      6.545   1.840  1.22794E+00  9.45801E-01  2.82137E-01
    9000.985      7.112   1.880  1.14925E+00  9.53865E-01  1.95383E-01
    9001.564      7.691   1.920  1.08608E+00  9.61493E-01  1.24589E-01
    9002.155      8.282   1.960  1.05203E+00  9.68682E-01  8.33479E-02
    9002.759      8.886   2.000  1.04328E+00  9.75390E-01  6.78884E-02
    9003.374      9.502   2.040  1.04902E+00  9.81639E-01  6.73820E-02
    9004.002     10.129   2.080  1.05801E+00  9.87450E-01  7.05565E-02
    9004.642     10.769   2.120  1.06317E+00  9.92785E-01  7.03837E-02
    9005.295     11.422   2.160  1.06167E+00  9.97687E-01  6.39810E-02
    9005.959     12.086   2.200  1.05152E+00  1.00214E+00  4.93814E-02
    9006.636     12.763   2.240  1.03459E+00  1.00615E+00  2.84391E-02
    9007.324     13.452   2.280  1.01626E+00  1.00976E+00  6.49717E-03
    9008.026     14.153   2.320  1.00120E+00  1.01294E+00 -1.17429E-02
    9008.739     14.866   2.360  9.88921E-01  1.01574E+00 -2.68172E-02
    9009.464     15.591   2.400  9.75208E-01  1.01816E+00 -4.29496E-02
    9010.202     16.329   2.440  9.58887E-01  1.02019E+00 -6.13006E-02
    9010.952     17.079   2.480  9.44997E-01  1.02190E+00 -7.69018E-02
    9011.714     17.841   2.520  9.38389E-01  1.02326E+00 -8.48710E-02
    9012.488     18.615   2.560  9.38569E-01  1.02432E+00 -8.57492E-02
    9013.274     19.401   2.600  9.41873E-01  1.02506E+00 -8.31911E-02
    9014.073     20.200   2.640  9.45388E-01  1.02555E+00 -8.01605E-02
    9014.883     21.011   2.680  9.47917E-01  1.02578E+00 -7.78620E-02
    9015.706     21.834   2.720  9.48142E-01  1.02575E+00 -7.76026E-02
    9016.542     22.669   2.760  9.43847E-01  1.02552E+00 -8.16712E-02
    9017.389     23.516   2.800  9.36920E-01  1.02507E+00 -8.81473E-02
    9018.248     24.376   2.840  9.31777E-01  1.02444E+00 -9.26627E-02
    9019.120     25.247   2.880  9.30172E-01  1.02365E+00 -9.34743E-02
    9020.004     26.131   2.920  9.31668E-01  1.02272E+00 -9.10488E-02
    9020.900     27.027   2.960  9.34552E-01  1.02164E+00 -8.70865E-02
    9021.809     27.936   3.000  9.37835E-01  1.02044E+00 -8.26042E-02
    9022.729     28.856   3.040  9.41053E-01  1.01915E+00 -7.80950E-02
    9023.662     29.789   3.080  9.44078E-01  1.01779E+00 -7.37160E-02
    9024.607     30.734   3.120  9.47049E-01  1.01634E+00 -6.92947E-02
    9025.564     31.691   3.160  9.50289E-01  1.01484E+00 -6.45543E-02
    9026.533     32.660   3.200  9.53949E-01  1.01330E+00 -5.93513E-02
    9027.514     33.642   3.240  9.58274E-01  1.01174E+00 -5.34684E-02
    9028.508     34.635   3.280  9.63326E-01  1.01016E+00 -4.68288E-02
    9029.514     35.641   3.320  9.69006E-01  1.00856E+00 -3.95565E-02
    9030.532     36.659   3.360  9.75111E-01  1.00697E+00 -3.18591E-02
    9031.562     37.689   3.400  9.81431E-01  1.00541E+00 -2.39756E-02
    9032.604     38.732   3.440  9.87771E-01  1.00385E+00 -1.60840E-02
    9033.659     39.786   3.480  9.94292E-01  1.00236E+00 -8.06708E-03
    9034.726     40.853   3.520  1.00125E+00  1.00088E+00  3.71022E-04
    9035.805     41.932   3.560  1.00901E+00  9.99445E-01  9.55998E-03
    9036.896     43.023   3.600  1.01779E+00  9.98078E-01  1.97153E-02
    9037.999     44.127   3.640  1.02766E+00  9.96781E-01  3.08831E-02
    9039.115     45.242   3.680  1.03848E+00  9.95535E-01  4.29406E-02
    9040.243     46.370   3.720  1.04987E+00  9.94343E-01  5.55297E-02
    9041.383     47.510   3.760  1.06140E+00  9.93247E-01  6.81545E-02
    9042.535     48.662   3.800  1.07236E+00  9.92232E-01  8.01333E-02
    9043.699     49.826   3.840  1.08186E+00  9.91276E-01  9.05859E-02
    9044.876     51.003   3.880  1.08912E+00  9.90421E-01  9.87018E-02
    9046.064     52.192   3.920  1.09355E+00  9.89648E-01  1.03898E-01
    9047.265     53.393   3.960  1.09483E+00  9.88958E-01  1.05871E-01
    9048.478     54.606   4.000  1.09290E+00  9.88352E-01  1.04553E-01
    9049.704     55.831   4.040  1.08801E+00  9.87827E-01  1.00183E-01
    9050.941     57.068   4.080  1.08047E+00  9.87407E-01  9.30644E-02
    9052.191     58.318   4.120  1.07054E+00  9.87049E-01  8.34876E-02
    9053.453     59.580   4.160  1.05851E+00  9.86795E-01  7.17118E-02
    9054.727     60.854   4.200  1.04467E+00  9.86624E-01  5.80413E-02
    9056.013     62.140   4.240  1.02933E+00  9.86534E-01  4.27926E-02
    9057.311     63.439   4.280  1.01292E+00  9.86525E-01  2.63957E-02
    9058.622     64.749   4.320  9.95993E-01  9.86596E-01  9.39735E-03
    9059.945     66.072   4.360  9.79197E-01  9.86743E-01 -7.54618E-03
    9061.280     67.407   4.400  9.63371E-01  9.86967E-01 -2.35967E-02
    9062.627     68.754   4.440  9.49377E-01  9.87244E-01 -3.78668E-02
    9063.987     70.114   4.480  9.37873E-01  9.87590E-01 -4.97174E-02
    9065.358     71.485   4.520  9.29125E-01  9.87987E-01 -5.88619E-02
    9066.742     72.869   4.560  9.23137E-01  9.88453E-01 -6.53154E-02
    9068.138     74.265   4.600  9.19699E-01  9.88963E-01 -6.92644E-02
    9069.546     75.673   4.640  9.18589E-01  9.89516E-01 -7.09271E-02
    9070.966     77.094   4.680  9.19630E-01  9.90110E-01 -7.04806E-02
    9072.399     78.526   4.720  9.22589E-01  9.90765E-01 -6.81767E-02
    9073.844     79.971   4.760  9.27175E-01  9.91434E-01 -6.42592E-02
    9075.301     81.428   4.800  9.33152E-01  9.92114E-01 -5.89614E-02
    9076.770     82.897   4.840  9.40302E-01  9.92823E-01 -5.25215E-02
    9078.251     84.378   4.880  9.48415E-01  9.93563E-01 -4.51472E-02
    9079.745     85.872   4.920  9.57276E-01  9.94305E-01 -3.70288E-02
    9081.250     87.378   4.960  9.66606E-01  9.95025E-01 -2.84195E-02
    9082.768     88.896   5.000  9.76169E-01  9.95767E-01 -1.95984E-02
    9084.298     90.426   5.040  9.85560E-01  9.96506E-01 -1.09458E-02
    9085.841     91.968   5.080  9.94324E-01  9.97217E-01 -2.89342E-03
    9087.395     93.522   5.120  1.00209E+00  9.97919E-01  4.17052E-03
    9088.962     95.089   5.160  1.00859E+00  9.98588E-01  9.99986E-03
    9090.541     96.668   5.200  1.01377E+00  9.99245E-01  1.45224E-02
    9092.132     98.259   5.240  1.01767E+00  9.99865E-01  1.78063E-02
    9093.735     99.862   5.280  1.02040E+00  1.00045E+00  1.99533E-02
    9095.350    101.478   5.320  1.02200E+00  1.00099E+00  2.10194E-02
    9096.978    103.105   5.360  1.02241E+00  1.00148E+00  2.09322E-02
    9098.618    104.745   5.400  1.02139E+00  1.00191E+00  1.94850E-02
    9100.270    106.397   5.440  1.01877E+00  1.00232E+00  1.64595E-02
    9101.934    108.061   5.480  1.01448E+00  1.00265E+00  1.18336E-02
    9103.610    109.738   5.520  1.00881E+00  1.00291E+00  5.89670E-03
    9105.299    111.426   5.560  1.00234E+00  1.00313E+00 -7.94044E-04
    9107.000    113.127   5.600  9.95801E-01  1.00330E+00 -7.49612E-03
    9108.713    114.840   5.640  9.90008E-01  1.00339E+00 -1.33832E-02
    9110.438    116.565   5.680  9.85722E-01  1.00341E+00 -1.76885E-02
    9112.175    118.302   5.720  9.83499E-01  1.00338E+00 -1.98822E-02
    9113.925    120.052   5.760  9.83539E-01  1.00330E+00 -1.97633E-02
    9115.687    121.814   5.800  9.85758E-01  1.00313E+00 -1.73692E-02
    9117.460    123.588   5.840  9.90082E-01  1.00290E+00 -1.28216E-02
    9119.247    125.374   5.880  9.96350E-01  1.00263E+00 -6.28318E-03
    9121.045    127.172   5.920  1.00426E+00  1.00229E+00  1.96938E-03
    9122.855    128.983   5.960  1.01325E+00  1.00187E+00  1.13712E-02
    9124.678    130.805   6.000  1.02243E+00  1.00137E+00  2.10660E-02
