# # comment:                                                     FEFF 9.9.1  
# # Source:
# # Structure
# # Reduced
# # space
# # abc:
# # angles:
# # sites:
# # POT  SCF 100  7.0000   0, screened core-hole, AFOLP (folp(0)= 1.150)
# # Abs   Z=29 Rmt= 1.278 Rnm= 1.348 K  shell
# # Pot 1 Z=29 Rmt= 1.278 Rnm= 1.348
# # Pot 2 Z=47 Rmt= 1.609 Rnm= 1.668
# # Pot 3 Z=15 Rmt= 0.938 Rnm= 1.156
# # Pot 4 Z= 8 Rmt= 0.874 Rnm= 1.042
# # Gam_ch=1.729E+00 H-L exch Vi= 0.000E+00 Vr= 0.000E+00
# # Mu=-6.102E+00eV kf=2.491E+00 Vint=-1.704E+01eV Rs_int= 1.456
# FMS rfms= 9.0000
# # PATH  Rmax=-1.000,  Keep_limit= 0.00, Heap_limit 0.00  Pwcrit= 2.50%
#  S02=0.950  Temp=   0.00  Debye_temp=   0.00  Global_sig2= 0.00000
#  Energy zero shift, vr, vi    0.00000E+00   0.00000E+00
#  Curved wave amplitude ratio filter   4.000%
#     file         sig2 tot  cw amp ratio   deg  nlegs   reff  inp sig2
#     0/   0 paths used
#  xsedge+ 50, used to normalize mu           2.4836E-04
#  -----------------------------------------------------------------------
#  omega    e    k    mu    mu0     chi     @#
    8983.309     -9.912  -1.000  4.40609E-02  5.36594E-02 -9.59858E-03
    8983.607     -9.614  -0.960  4.66007E-02  5.75918E-02 -1.09910E-02
    8983.894     -9.327  -0.920  4.93455E-02  6.19668E-02 -1.26213E-02
    8984.168     -9.053  -0.880  5.23166E-02  6.68505E-02 -1.45338E-02
    8984.430     -8.791  -0.840  5.55380E-02  7.23195E-02 -1.67815E-02
    8984.680     -8.541  -0.800  5.90364E-02  7.84630E-02 -1.94267E-02
    8984.918     -8.303  -0.760  6.28407E-02  8.53834E-02 -2.25427E-02
    8985.144     -8.077  -0.720  6.69824E-02  9.31964E-02 -2.62140E-02
    8985.357     -7.864  -0.680  7.14943E-02  1.02030E-01 -3.05354E-02
    8985.558     -7.663  -0.640  7.64089E-02  1.12018E-01 -3.56093E-02
    8985.747     -7.474  -0.600  8.17555E-02  1.23295E-01 -4.15393E-02
    8985.924     -7.297  -0.560  8.75553E-02  1.35973E-01 -4.84176E-02
    8986.088     -7.132  -0.520  9.38143E-02  1.50121E-01 -5.63065E-02
    8986.241     -6.980  -0.480  1.00514E-01  1.65725E-01 -6.52107E-02
    8986.381     -6.840  -0.440  1.07600E-01  1.82647E-01 -7.50470E-02
    8986.509     -6.712  -0.400  1.14973E-01  2.00590E-01 -8.56178E-02
    8986.625     -6.596  -0.360  1.22485E-01  2.19089E-01 -9.66043E-02
    8986.729     -6.492  -0.320  1.29945E-01  2.37535E-01 -1.07591E-01
    8986.820     -6.401  -0.280  1.37135E-01  2.55257E-01 -1.18123E-01
    8986.899     -6.322  -0.240  1.43833E-01  2.71608E-01 -1.27775E-01
    8986.966     -6.255  -0.200  1.49836E-01  2.86050E-01 -1.36214E-01
    8987.021     -6.200  -0.160  1.54971E-01  2.98190E-01 -1.43219E-01
    8987.064     -6.157  -0.120  1.59103E-01  3.07780E-01 -1.48677E-01
    8987.094     -6.127  -0.080  1.62134E-01  3.14685E-01 -1.52551E-01
    8987.119     -6.102   0.000  1.64631E-01  3.20230E-01 -1.55599E-01
    8987.174     -6.047   0.120  1.70260E-01  3.32736E-01 -1.62475E-01
    8987.216     -6.005   0.160  1.74671E-01  3.42424E-01 -1.67753E-01
    8987.271     -5.950   0.200  1.80417E-01  3.54789E-01 -1.74372E-01
    8987.338     -5.883   0.240  1.87579E-01  3.69646E-01 -1.82068E-01
    8987.417     -5.804   0.280  1.96183E-01  3.86661E-01 -1.90478E-01
    8987.509     -5.712   0.320  2.06283E-01  4.05395E-01 -1.99112E-01
    8987.612     -5.608   0.360  2.17853E-01  4.25241E-01 -2.07388E-01
    8987.728     -5.493   0.400  2.30914E-01  4.45620E-01 -2.14706E-01
    8987.856     -5.365   0.440  2.45458E-01  4.65983E-01 -2.20526E-01
    8987.996     -5.224   0.480  2.61450E-01  4.85890E-01 -2.24440E-01
    8988.149     -5.072   0.520  2.78884E-01  5.05053E-01 -2.26169E-01
    8988.313     -4.907   0.560  2.97950E-01  5.23370E-01 -2.25420E-01
    8988.490     -4.731   0.600  3.19001E-01  5.40811E-01 -2.21810E-01
    8988.679     -4.542   0.640  3.42545E-01  5.57419E-01 -2.14874E-01
    8988.880     -4.341   0.680  3.69008E-01  5.73318E-01 -2.04310E-01
    8989.094     -4.127   0.720  3.98180E-01  5.88565E-01 -1.90384E-01
    8989.319     -3.902   0.760  4.29250E-01  6.03317E-01 -1.74067E-01
    8989.557     -3.664   0.800  4.60891E-01  6.17641E-01 -1.56750E-01
    8989.807     -3.414   0.840  4.92061E-01  6.31634E-01 -1.39573E-01
    8990.069     -3.152   0.880  5.22046E-01  6.45337E-01 -1.23291E-01
    8990.343     -2.877   0.920  5.50416E-01  6.58835E-01 -1.08419E-01
    8990.630     -2.591   0.960  5.77665E-01  6.72143E-01 -9.44774E-02
    8990.929     -2.292   1.000  6.06353E-01  6.85326E-01 -7.89727E-02
    8991.240     -1.981   1.040  6.39401E-01  6.98357E-01 -5.89561E-02
    8991.563     -1.658   1.080  6.77073E-01  7.11262E-01 -3.41895E-02
    8991.898     -1.323   1.120  7.17225E-01  7.24062E-01 -6.83724E-03
    8992.245     -0.976   1.160  7.57931E-01  7.36749E-01  2.11816E-02
    8992.605     -0.616   1.200  7.96399E-01  7.49313E-01  4.70858E-02
    8992.977     -0.244   1.240  8.26506E-01  7.61739E-01  6.47678E-02
    8993.361      0.140   1.280  8.42259E-01  7.74010E-01  6.82494E-02
    8993.757      0.536   1.320  8.45317E-01  7.86105E-01  5.92122E-02
    8994.166      0.945   1.360  8.43757E-01  7.98042E-01  4.57153E-02
    8994.586      1.365   1.400  8.44128E-01  8.09757E-01  3.43714E-02
    8995.019      1.798   1.440  8.52870E-01  8.21266E-01  3.16038E-02
    8995.464      2.243   1.480  8.78910E-01  8.32522E-01  4.63881E-02
    8995.921      2.700   1.520  9.26138E-01  8.43520E-01  8.26178E-02
    8996.391      3.170   1.560  9.81812E-01  8.54255E-01  1.27558E-01
    8996.872      3.651   1.600  1.02040E+00  8.64679E-01  1.55718E-01
    8997.366      4.145   1.640  1.02748E+00  8.74786E-01  1.52690E-01
    8997.872      4.651   1.680  1.01325E+00  8.84569E-01  1.28685E-01
    8998.390      5.169   1.720  9.96010E-01  8.94025E-01  1.01984E-01
    8998.920      5.700   1.760  9.89235E-01  9.03108E-01  8.61267E-02
    8999.463      6.242   1.800  1.00388E+00  9.11834E-01  9.20499E-02
    9000.018      6.797   1.840  1.04424E+00  9.20179E-01  1.24059E-01
    9000.585      7.364   1.880  1.09779E+00  9.28139E-01  1.69649E-01
    9001.164      7.943   1.920  1.14032E+00  9.35693E-01  2.04628E-01
    9001.755      8.534   1.960  1.15859E+00  9.42859E-01  2.15735E-01
    9002.359      9.138   2.000  1.16164E+00  9.49638E-01  2.12005E-01
    9002.974      9.753   2.040  1.15948E+00  9.56011E-01  2.03470E-01
    9003.602     10.381   2.080  1.14822E+00  9.61996E-01  1.86228E-01
    9004.242     11.021   2.120  1.13008E+00  9.67577E-01  1.62499E-01
    9004.895     11.674   2.160  1.11623E+00  9.72775E-01  1.43457E-01
    9005.559     12.338   2.200  1.10994E+00  9.77574E-01  1.32368E-01
    9006.236     13.015   2.240  1.10858E+00  9.81998E-01  1.26577E-01
    9006.924     13.704   2.280  1.11065E+00  9.86051E-01  1.24602E-01
    9007.626     14.405   2.320  1.11216E+00  9.89758E-01  1.22404E-01
    9008.339     15.118   2.360  1.11082E+00  9.93105E-01  1.17718E-01
    9009.064     15.843   2.400  1.11283E+00  9.96097E-01  1.16734E-01
    9009.802     16.581   2.440  1.12515E+00  9.98781E-01  1.26370E-01
    9010.552     17.331   2.480  1.14402E+00  1.00114E+00  1.42874E-01
    9011.314     18.093   2.520  1.15782E+00  1.00319E+00  1.54633E-01
    9012.088     18.867   2.560  1.15747E+00  1.00497E+00  1.52503E-01
    9012.874     19.653   2.600  1.14004E+00  1.00646E+00  1.33581E-01
    9013.673     20.452   2.640  1.10600E+00  1.00769E+00  9.83138E-02
    9014.483     21.263   2.680  1.06036E+00  1.00869E+00  5.16733E-02
    9015.306     22.086   2.720  1.01159E+00  1.00942E+00  2.16821E-03
    9016.142     22.921   2.760  9.67756E-01  1.00997E+00 -4.22183E-02
    9016.989     23.768   2.800  9.35862E-01  1.01032E+00 -7.44578E-02
    9017.848     24.628   2.840  9.16043E-01  1.01047E+00 -9.44273E-02
    9018.720     25.499   2.880  9.06757E-01  1.01045E+00 -1.03695E-01
    9019.604     26.383   2.920  9.04248E-01  1.01027E+00 -1.06022E-01
    9020.500     27.279   2.960  9.02463E-01  1.00996E+00 -1.07493E-01
    9021.408     28.188   3.000  8.98442E-01  1.00949E+00 -1.11051E-01
    9022.329     29.108   3.040  8.92124E-01  1.00893E+00 -1.16805E-01
    9023.262     30.041   3.080  8.84997E-01  1.00825E+00 -1.23252E-01
    9024.207     30.986   3.120  8.78724E-01  1.00746E+00 -1.28736E-01
    9025.164     31.943   3.160  8.74085E-01  1.00661E+00 -1.32525E-01
    9026.133     32.912   3.200  8.71002E-01  1.00568E+00 -1.34681E-01
    9027.114     33.893   3.240  8.69637E-01  1.00471E+00 -1.35070E-01
    9028.108     34.887   3.280  8.70760E-01  1.00368E+00 -1.32925E-01
    9029.114     35.893   3.320  8.74998E-01  1.00260E+00 -1.27602E-01
    9030.132     36.911   3.360  8.82924E-01  1.00150E+00 -1.18576E-01
    9031.162     37.941   3.400  8.94688E-01  1.00039E+00 -1.05700E-01
    9032.204     38.984   3.440  9.09656E-01  9.99250E-01 -8.95936E-02
    9033.259     40.038   3.480  9.26518E-01  9.98109E-01 -7.15910E-02
    9034.326     41.105   3.520  9.43729E-01  9.96989E-01 -5.32597E-02
    9035.405     42.184   3.560  9.59693E-01  9.95850E-01 -3.61574E-02
    9036.496     43.275   3.600  9.72937E-01  9.94740E-01 -2.18028E-02
    9037.599     44.379   3.640  9.82632E-01  9.93663E-01 -1.10307E-02
    9038.715     45.494   3.680  9.88544E-01  9.92617E-01 -4.07268E-03
    9039.843     46.622   3.720  9.91130E-01  9.91585E-01 -4.55192E-04
    9040.983     47.762   3.760  9.91735E-01  9.90590E-01  1.14443E-03
    9042.135     48.914   3.800  9.92220E-01  9.89636E-01  2.58386E-03
    9043.299     50.078   3.840  9.94245E-01  9.88743E-01  5.50195E-03
    9044.476     51.255   3.880  9.98522E-01  9.87872E-01  1.06499E-02
    9045.664     52.443   3.920  1.00489E+00  9.87067E-01  1.78255E-02
    9046.865     53.644   3.960  1.01248E+00  9.86308E-01  2.61686E-02
    9048.078     54.858   4.000  1.02021E+00  9.85616E-01  3.45915E-02
    9049.304     56.083   4.040  1.02729E+00  9.84973E-01  4.23160E-02
    9050.541     57.320   4.080  1.03345E+00  9.84398E-01  4.90517E-02
    9051.791     58.570   4.120  1.03874E+00  9.83871E-01  5.48681E-02
    9053.053     59.832   4.160  1.04347E+00  9.83391E-01  6.00832E-02
    9054.327     61.106   4.200  1.04795E+00  9.82982E-01  6.49665E-02
    9055.613     62.392   4.240  1.05219E+00  9.82643E-01  6.95439E-02
    9056.911     63.691   4.280  1.05604E+00  9.82353E-01  7.36841E-02
    9058.222     65.001   4.320  1.05939E+00  9.82110E-01  7.72819E-02
    9059.545     66.324   4.360  1.06200E+00  9.81937E-01  8.00620E-02
    9060.880     67.659   4.400  1.06348E+00  9.81835E-01  8.16420E-02
    9062.227     69.006   4.440  1.06334E+00  9.81778E-01  8.15633E-02
    9063.587     70.366   4.480  1.06101E+00  9.81766E-01  7.92397E-02
    9064.958     71.737   4.520  1.05600E+00  9.81799E-01  7.42024E-02
    9066.342     73.121   4.560  1.04834E+00  9.81897E-01  6.64455E-02
    9067.738     74.517   4.600  1.03853E+00  9.82039E-01  5.64895E-02
    9069.146     75.925   4.640  1.02747E+00  9.82222E-01  4.52528E-02
    9070.566     77.346   4.680  1.01607E+00  9.82445E-01  3.36227E-02
    9071.999     78.778   4.720  1.00488E+00  9.82707E-01  2.21770E-02
    9073.444     80.223   4.760  9.94194E-01  9.83005E-01  1.11889E-02
    9074.901     81.680   4.800  9.84158E-01  9.83319E-01  8.39015E-04
    9076.370     83.149   4.840  9.75010E-01  9.83688E-01 -8.67815E-03
    9077.851     84.630   4.880  9.66989E-01  9.84072E-01 -1.70833E-02
    9079.345     86.124   4.920  9.60429E-01  9.84487E-01 -2.40577E-02
    9080.850     87.629   4.960  9.55519E-01  9.84910E-01 -2.93912E-02
    9082.368     89.147   5.000  9.52237E-01  9.85362E-01 -3.31248E-02
    9083.898     90.677   5.040  9.50176E-01  9.85819E-01 -3.56428E-02
    9085.441     92.220   5.080  9.48803E-01  9.86278E-01 -3.74753E-02
    9086.995     93.774   5.120  9.47721E-01  9.86740E-01 -3.90189E-02
    9088.562     95.341   5.160  9.46730E-01  9.87225E-01 -4.04942E-02
    9090.141     96.920   5.200  9.45670E-01  9.87685E-01 -4.20156E-02
    9091.732     98.511   5.240  9.44386E-01  9.88143E-01 -4.37567E-02
    9093.335    100.114   5.280  9.42730E-01  9.88597E-01 -4.58668E-02
    9094.950    101.729   5.320  9.40712E-01  9.89048E-01 -4.83356E-02
    9096.578    103.357   5.360  9.38581E-01  9.89489E-01 -5.09080E-02
    9098.218    104.997   5.400  9.36750E-01  9.89879E-01 -5.31288E-02
    9099.870    106.649   5.440  9.35856E-01  9.90280E-01 -5.44241E-02
    9101.534    108.313   5.480  9.36475E-01  9.90648E-01 -5.41732E-02
    9103.210    109.989   5.520  9.39122E-01  9.90981E-01 -5.18595E-02
    9104.899    111.678   5.560  9.43994E-01  9.91278E-01 -4.72843E-02
    9106.600    113.379   5.600  9.50872E-01  9.91561E-01 -4.06886E-02
    9108.313    115.092   5.640  9.59078E-01  9.91805E-01 -3.27271E-02
    9110.038    116.817   5.680  9.67725E-01  9.91987E-01 -2.42621E-02
    9111.775    118.554   5.720  9.76001E-01  9.92153E-01 -1.61527E-02
    9113.525    120.304   5.760  9.83206E-01  9.92281E-01 -9.07506E-03
    9115.287    122.066   5.800  9.88952E-01  9.92369E-01 -3.41691E-03
    9117.060    123.840   5.840  9.93202E-01  9.92417E-01  7.85614E-04
    9118.847    125.626   5.880  9.96223E-01  9.92422E-01  3.80118E-03
    9120.645    127.424   5.920  9.98452E-01  9.92362E-01  6.08952E-03
    9122.455    129.234   5.960  1.00040E+00  9.92281E-01  8.12222E-03
    9124.278    131.057   6.000  1.00245E+00  9.92105E-01  1.03438E-02
