# # comment:                                                     FEFF 9.9.1  
# # Source:
# # Structure
# # Reduced
# # space
# # abc:
# # angles:
# # sites:
# # POT  SCF 100  7.0000   0, screened core-hole, AFOLP (folp(0)= 1.150)
# # Abs   Z=29 Rmt= 1.276 Rnm= 1.345 K  shell
# # Pot 1 Z=73 Rmt= 1.323 Rnm= 1.467
# # Pot 2 Z=29 Rmt= 1.269 Rnm= 1.339
# # Pot 3 Z= 8 Rmt= 0.998 Rnm= 1.082
# # Gam_ch=1.729E+00 H-L exch Vi= 0.000E+00 Vr= 0.000E+00
# # Mu=-5.924E+00eV kf=2.251E+00 Vint=-1.655E+01eV Rs_int= 1.611
# FMS rfms= 9.0000
# # PATH  Rmax=-1.000,  Keep_limit= 0.00, Heap_limit 0.00  Pwcrit= 2.50%
#  S02=0.950  Temp=   0.00  Debye_temp=   0.00  Global_sig2= 0.00000
#  Energy zero shift, vr, vi    0.00000E+00   0.00000E+00
#  Curved wave amplitude ratio filter   4.000%
#     file         sig2 tot  cw amp ratio   deg  nlegs   reff  inp sig2
#     0/   0 paths used
#  xsedge+ 50, used to normalize mu           2.4628E-04
#  -----------------------------------------------------------------------
#  omega    e    k    mu    mu0     chi     @#
    8983.608     -9.734  -1.000  5.32827E-02  5.80082E-02 -4.72546E-03
    8983.907     -9.436  -0.960  5.68124E-02  6.23632E-02 -5.55085E-03
    8984.193     -9.149  -0.920  6.06700E-02  6.72156E-02 -6.54553E-03
    8984.468     -8.875  -0.880  6.48929E-02  7.26397E-02 -7.74680E-03
    8984.730     -8.613  -0.840  6.95221E-02  7.87224E-02 -9.20027E-03
    8984.980     -8.363  -0.800  7.46031E-02  8.55644E-02 -1.09613E-02
    8985.217     -8.125  -0.760  8.01850E-02  9.32815E-02 -1.30965E-02
    8985.443     -7.900  -0.720  8.63203E-02  1.02005E-01 -1.56843E-02
    8985.656     -7.686  -0.680  9.30631E-02  1.11878E-01 -1.88153E-02
    8985.857     -7.485  -0.640  1.00466E-01  1.23056E-01 -2.25894E-02
    8986.046     -7.296  -0.600  1.08577E-01  1.35686E-01 -2.71098E-02
    8986.223     -7.119  -0.560  1.17428E-01  1.49900E-01 -3.24717E-02
    8986.388     -6.955  -0.520  1.27032E-01  1.65774E-01 -3.87420E-02
    8986.540     -6.802  -0.480  1.37360E-01  1.83293E-01 -4.59326E-02
    8986.680     -6.662  -0.440  1.48335E-01  2.02303E-01 -5.39680E-02
    8986.808     -6.534  -0.400  1.59810E-01  2.22470E-01 -6.26595E-02
    8986.924     -6.418  -0.360  1.71567E-01  2.43266E-01 -7.16992E-02
    8987.028     -6.315  -0.320  1.83319E-01  2.64007E-01 -8.06887E-02
    8987.119     -6.223  -0.280  1.94733E-01  2.83935E-01 -8.92023E-02
    8987.199     -6.144  -0.240  2.05459E-01  3.02322E-01 -9.68632E-02
    8987.266     -6.077  -0.200  2.15157E-01  3.18560E-01 -1.03403E-01
    8987.320     -6.022  -0.160  2.23526E-01  3.32208E-01 -1.08682E-01
    8987.363     -5.979  -0.120  2.30314E-01  3.42987E-01 -1.12673E-01
    8987.394     -5.949  -0.080  2.35328E-01  3.50747E-01 -1.15419E-01
    8987.418     -5.924   0.000  2.39492E-01  3.56976E-01 -1.17484E-01
    8987.473     -5.870   0.120  2.48838E-01  3.71008E-01 -1.22169E-01
    8987.516     -5.827   0.160  2.56284E-01  3.81919E-01 -1.25635E-01
    8987.570     -5.772   0.200  2.66053E-01  3.95791E-01 -1.29738E-01
    8987.637     -5.705   0.240  2.78428E-01  4.12477E-01 -1.34049E-01
    8987.717     -5.626   0.280  2.93524E-01  4.31556E-01 -1.38032E-01
    8987.808     -5.534   0.320  3.11575E-01  4.52526E-01 -1.40951E-01
    8987.912     -5.431   0.360  3.32748E-01  4.74745E-01 -1.41997E-01
    8988.028     -5.315   0.400  3.57069E-01  4.97510E-01 -1.40441E-01
    8988.156     -5.187   0.440  3.84480E-01  5.20198E-01 -1.35717E-01
    8988.296     -5.047   0.480  4.14709E-01  5.42308E-01 -1.27599E-01
    8988.448     -4.894   0.520  4.47462E-01  5.63537E-01 -1.16075E-01
    8988.613     -4.730   0.560  4.82758E-01  5.83721E-01 -1.00963E-01
    8988.790     -4.553   0.600  5.21580E-01  6.02848E-01 -8.12680E-02
    8988.979     -4.364   0.640  5.66176E-01  6.20947E-01 -5.47711E-02
    8989.180     -4.163   0.680  6.19568E-01  6.38150E-01 -1.85824E-02
    8989.393     -3.949   0.720  6.83259E-01  6.54550E-01  2.87098E-02
    8989.619     -3.724   0.760  7.53055E-01  6.70254E-01  8.28007E-02
    8989.856     -3.486   0.800  8.16010E-01  6.85403E-01  1.30606E-01
    8990.106     -3.236   0.840  8.56041E-01  7.00042E-01  1.55999E-01
    8990.368     -2.974   0.880  8.65027E-01  7.14278E-01  1.50749E-01
    8990.643     -2.700   0.920  8.45845E-01  7.28127E-01  1.17718E-01
    8990.929     -2.413   0.960  8.08410E-01  7.41667E-01  6.67430E-02
    8991.228     -2.114   1.000  7.64488E-01  7.54925E-01  9.56249E-03
    8991.539     -1.804   1.040  7.25162E-01  7.67901E-01 -4.27385E-02
    8991.862     -1.480   1.080  6.98494E-01  7.80602E-01 -8.21080E-02
    8992.197     -1.145   1.120  6.86121E-01  7.93048E-01 -1.06927E-01
    8992.545     -0.798   1.160  6.82447E-01  8.05237E-01 -1.22790E-01
    8992.904     -0.438   1.200  6.82098E-01  8.17160E-01 -1.35062E-01
    8993.276     -0.066   1.240  6.91953E-01  8.28781E-01 -1.36828E-01
    8993.660      0.318   1.280  7.22939E-01  8.40127E-01 -1.17188E-01
    8994.056      0.714   1.320  7.72046E-01  8.51159E-01 -7.91132E-02
    8994.465      1.123   1.360  8.29510E-01  8.61877E-01 -3.23662E-02
    8994.886      1.543   1.400  8.94646E-01  8.72280E-01  2.23655E-02
    8995.318      1.976   1.440  9.69339E-01  8.82307E-01  8.70311E-02
    8995.763      2.421   1.480  1.03717E+00  8.91976E-01  1.45190E-01
    8996.221      2.878   1.520  1.07389E+00  9.01285E-01  1.72601E-01
    8996.690      3.348   1.560  1.07617E+00  9.10211E-01  1.65958E-01
    8997.172      3.829   1.600  1.05224E+00  9.18733E-01  1.33507E-01
    8997.665      4.323   1.640  1.01190E+00  9.26850E-01  8.50514E-02
    8998.171      4.829   1.680  9.73949E-01  9.34582E-01  3.93666E-02
    8998.689      5.347   1.720  9.51454E-01  9.41887E-01  9.56668E-03
    8999.220      5.877   1.760  9.47076E-01  9.48787E-01 -1.71103E-03
    8999.762      6.420   1.800  9.67447E-01  9.55265E-01  1.21824E-02
    9000.317      6.975   1.840  1.01326E+00  9.61340E-01  5.19148E-02
    9000.884      7.542   1.880  1.06810E+00  9.66998E-01  1.01106E-01
    9001.463      8.121   1.920  1.11067E+00  9.72261E-01  1.38408E-01
    9002.054      8.712   1.960  1.14313E+00  9.77134E-01  1.66000E-01
    9002.658      9.315   2.000  1.18208E+00  9.81601E-01  2.00478E-01
    9003.274      9.931   2.040  1.22182E+00  9.85710E-01  2.36111E-01
    9003.901     10.559   2.080  1.24320E+00  9.89446E-01  2.53757E-01
    9004.542     11.199   2.120  1.24290E+00  9.92813E-01  2.50086E-01
    9005.194     11.851   2.160  1.23623E+00  9.95861E-01  2.40366E-01
    9005.858     12.516   2.200  1.24298E+00  9.98557E-01  2.44419E-01
    9006.535     13.193   2.240  1.27558E+00  1.00095E+00  2.74635E-01
    9007.224     13.881   2.280  1.33214E+00  1.00304E+00  3.29099E-01
    9007.925     14.582   2.320  1.38352E+00  1.00485E+00  3.78670E-01
    9008.638     15.296   2.360  1.38115E+00  1.00640E+00  3.74750E-01
    9009.363     16.021   2.400  1.30939E+00  1.00769E+00  3.01699E-01
    9010.101     16.759   2.440  1.20129E+00  1.00874E+00  1.92549E-01
    9010.851     17.508   2.480  1.09691E+00  1.00958E+00  8.73371E-02
    9011.613     18.270   2.520  1.01730E+00  1.01018E+00  7.11397E-03
    9012.387     19.045   2.560  9.64141E-01  1.01063E+00 -4.64914E-02
    9013.173     19.831   2.600  9.29626E-01  1.01089E+00 -8.12609E-02
    9013.972     20.630   2.640  9.03192E-01  1.01098E+00 -1.07786E-01
    9014.783     21.440   2.680  8.80237E-01  1.01093E+00 -1.30694E-01
    9015.606     22.263   2.720  8.61741E-01  1.01073E+00 -1.48993E-01
    9016.441     23.098   2.760  8.48992E-01  1.01044E+00 -1.61443E-01
    9017.288     23.946   2.800  8.39753E-01  1.01002E+00 -1.70269E-01
    9018.148     24.805   2.840  8.32204E-01  1.00952E+00 -1.77315E-01
    9019.019     25.677   2.880  8.26595E-01  1.00893E+00 -1.82338E-01
    9019.903     26.561   2.920  8.24141E-01  1.00829E+00 -1.84150E-01
    9020.800     27.457   2.960  8.25528E-01  1.00758E+00 -1.82048E-01
    9021.708     28.365   3.000  8.29982E-01  1.00682E+00 -1.76833E-01
    9022.628     29.286   3.040  8.36298E-01  1.00601E+00 -1.69716E-01
    9023.561     30.219   3.080  8.43641E-01  1.00520E+00 -1.61556E-01
    9024.506     31.163   3.120  8.51546E-01  1.00435E+00 -1.52800E-01
    9025.463     32.121   3.160  8.59839E-01  1.00347E+00 -1.43628E-01
    9026.432     33.090   3.200  8.69002E-01  1.00260E+00 -1.33602E-01
    9027.414     34.071   3.240  8.79883E-01  1.00174E+00 -1.21859E-01
    9028.407     35.065   3.280  8.92938E-01  1.00088E+00 -1.07947E-01
    9029.413     36.071   3.320  9.08396E-01  1.00005E+00 -9.16567E-02
    9030.431     37.089   3.360  9.26219E-01  9.99229E-01 -7.30100E-02
    9031.461     38.119   3.400  9.46084E-01  9.98415E-01 -5.23314E-02
    9032.504     39.161   3.440  9.67420E-01  9.97657E-01 -3.02372E-02
    9033.558     40.216   3.480  9.89655E-01  9.96915E-01 -7.25987E-03
    9034.625     41.283   3.520  1.01219E+00  9.96230E-01  1.59566E-02
    9035.704     42.362   3.560  1.03374E+00  9.95564E-01  3.81759E-02
    9036.795     43.453   3.600  1.05249E+00  9.94938E-01  5.75516E-02
    9037.899     44.556   3.640  1.06628E+00  9.94376E-01  7.19058E-02
    9039.014     45.672   3.680  1.07332E+00  9.93857E-01  7.94604E-02
    9040.142     46.800   3.720  1.07327E+00  9.93379E-01  7.98883E-02
    9041.282     47.940   3.760  1.06735E+00  9.92945E-01  7.44001E-02
    9042.434     49.092   3.800  1.05759E+00  9.92556E-01  6.50380E-02
    9043.598     50.256   3.840  1.04609E+00  9.92231E-01  5.38546E-02
    9044.775     51.433   3.880  1.03438E+00  9.91954E-01  4.24246E-02
    9045.964     52.621   3.920  1.02376E+00  9.91743E-01  3.20176E-02
    9047.165     53.822   3.960  1.01548E+00  9.91553E-01  2.39267E-02
    9048.378     55.035   4.000  1.01083E+00  9.91429E-01  1.93969E-02
    9049.603     56.261   4.040  1.01058E+00  9.91351E-01  1.92320E-02
    9050.840     57.498   4.080  1.01466E+00  9.91337E-01  2.33241E-02
    9052.090     58.748   4.120  1.02207E+00  9.91345E-01  3.07287E-02
    9053.352     60.010   4.160  1.03133E+00  9.91416E-01  3.99165E-02
    9054.626     61.284   4.200  1.04074E+00  9.91529E-01  4.92160E-02
    9055.912     62.570   4.240  1.04886E+00  9.91679E-01  5.71814E-02
    9057.211     63.868   4.280  1.05463E+00  9.91848E-01  6.27856E-02
    9058.521     65.179   4.320  1.05755E+00  9.92077E-01  6.54747E-02
    9059.844     66.502   4.360  1.05737E+00  9.92342E-01  6.50246E-02
    9061.179     67.837   4.400  1.05416E+00  9.92622E-01  6.15412E-02
    9062.526     69.184   4.440  1.04857E+00  9.92935E-01  5.56361E-02
    9063.886     70.543   4.480  1.04172E+00  9.93282E-01  4.84334E-02
    9065.257     71.915   4.520  1.03498E+00  9.93640E-01  4.13389E-02
    9066.641     73.299   4.560  1.02961E+00  9.94027E-01  3.55814E-02
    9068.037     74.695   4.600  1.02611E+00  9.94422E-01  3.16885E-02
    9069.445     76.103   4.640  1.02414E+00  9.94846E-01  2.92903E-02
    9070.866     77.523   4.680  1.02253E+00  9.95274E-01  2.72566E-02
    9072.298     78.956   4.720  1.01993E+00  9.95707E-01  2.42232E-02
    9073.743     80.401   4.760  1.01547E+00  9.96164E-01  1.93047E-02
    9075.200     81.858   4.800  1.00901E+00  9.96600E-01  1.24095E-02
    9076.669     83.327   4.840  1.00102E+00  9.97056E-01  3.96058E-03
    9078.150     84.808   4.880  9.91880E-01  9.97489E-01 -5.60959E-03
    9079.644     86.302   4.920  9.81882E-01  9.97940E-01 -1.60582E-02
    9081.150     87.807   4.960  9.71128E-01  9.98363E-01 -2.72352E-02
    9082.668     89.325   5.000  9.59829E-01  9.98758E-01 -3.89294E-02
    9084.198     90.855   5.040  9.48339E-01  9.99167E-01 -5.08281E-02
    9085.740     92.398   5.080  9.37154E-01  9.99546E-01 -6.23918E-02
    9087.294     93.952   5.120  9.27105E-01  9.99892E-01 -7.27869E-02
    9088.861     95.519   5.160  9.19188E-01  1.00023E+00 -8.10394E-02
    9090.440     97.098   5.200  9.14226E-01  1.00053E+00 -8.63042E-02
    9092.031     98.689   5.240  9.12686E-01  1.00082E+00 -8.81338E-02
    9093.634    100.292   5.280  9.14570E-01  1.00107E+00 -8.65041E-02
    9095.250    101.907   5.320  9.19547E-01  1.00129E+00 -8.17475E-02
    9096.877    103.535   5.360  9.27124E-01  1.00150E+00 -7.43756E-02
    9098.517    105.175   5.400  9.36713E-01  1.00167E+00 -6.49528E-02
    9100.169    106.827   5.440  9.47764E-01  1.00177E+00 -5.40074E-02
    9101.833    108.491   5.480  9.59935E-01  1.00186E+00 -4.19274E-02
    9103.510    110.167   5.520  9.72964E-01  1.00194E+00 -2.89736E-02
    9105.198    111.856   5.560  9.86527E-01  1.00195E+00 -1.54239E-02
    9106.899    113.557   5.600  1.00033E+00  1.00192E+00 -1.59532E-03
    9108.612    115.270   5.640  1.01418E+00  1.00185E+00  1.23257E-02
    9110.337    116.995   5.680  1.02814E+00  1.00177E+00  2.63633E-02
    9112.075    118.732   5.720  1.04201E+00  1.00163E+00  4.03850E-02
    9113.824    120.482   5.760  1.05496E+00  1.00147E+00  5.34849E-02
    9115.586    122.243   5.800  1.06508E+00  1.00127E+00  6.38022E-02
    9117.360    124.017   5.840  1.07020E+00  1.00104E+00  6.91546E-02
    9119.146    125.803   5.880  1.06889E+00  1.00075E+00  6.81470E-02
    9120.944    127.602   5.920  1.06154E+00  1.00047E+00  6.10739E-02
    9122.755    129.412   5.960  1.05000E+00  1.00013E+00  4.98698E-02
    9124.577    131.235   6.000  1.03644E+00  9.99726E-01  3.67186E-02
