# # comment:                                                     FEFF 9.9.1  
# # Source:
# # Structure
# # Reduced
# # space
# # abc:
# # angles:
# # sites:
# # POT  SCF 100  7.0000   0, screened core-hole, AFOLP (folp(0)= 1.150)
# # Abs   Z=29 Rmt= 1.287 Rnm= 1.354 K  shell
# # Pot 1 Z=29 Rmt= 1.287 Rnm= 1.354
# # Pot 2 Z= 1 Rmt= 0.683 Rnm= 0.851
# # Pot 3 Z= 6 Rmt= 0.723 Rnm= 0.958
# # Pot 4 Z= 8 Rmt= 0.817 Rnm= 1.015
# # Gam_ch=1.729E+00 H-L exch Vi= 0.000E+00 Vr= 0.000E+00
# # Mu=-7.450E+00eV kf=2.613E+00 Vint=-1.747E+01eV Rs_int= 1.388
# FMS rfms= 9.0000
# # PATH  Rmax=-1.000,  Keep_limit= 0.00, Heap_limit 0.00  Pwcrit= 2.50%
#  S02=0.950  Temp=   0.00  Debye_temp=   0.00  Global_sig2= 0.00000
#  Energy zero shift, vr, vi    0.00000E+00   0.00000E+00
#  Curved wave amplitude ratio filter   4.000%
#     file         sig2 tot  cw amp ratio   deg  nlegs   reff  inp sig2
#     0/   0 paths used
#  xsedge+ 50, used to normalize mu           2.5022E-04
#  -----------------------------------------------------------------------
#  omega    e    k    mu    mu0     chi     @#
    8983.246    -11.260  -1.000  3.87008E-02  4.94565E-02 -1.07556E-02
    8983.545    -10.962  -0.960  4.09262E-02  5.29670E-02 -1.20408E-02
    8983.831    -10.675  -0.920  4.33554E-02  5.68641E-02 -1.35087E-02
    8984.106    -10.401  -0.880  4.60160E-02  6.12044E-02 -1.51883E-02
    8984.368    -10.139  -0.840  4.89404E-02  6.60541E-02 -1.71137E-02
    8984.618     -9.889  -0.800  5.21658E-02  7.14900E-02 -1.93242E-02
    8984.855     -9.651  -0.760  5.57350E-02  7.76001E-02 -2.18651E-02
    8985.081     -9.426  -0.720  5.96964E-02  8.44839E-02 -2.47875E-02
    8985.294     -9.212  -0.680  6.41032E-02  9.22509E-02 -2.81478E-02
    8985.495     -9.011  -0.640  6.90115E-02  1.01017E-01 -3.20056E-02
    8985.684     -8.822  -0.600  7.44760E-02  1.10896E-01 -3.64198E-02
    8985.861     -8.645  -0.560  8.05427E-02  1.21984E-01 -4.14415E-02
    8986.026     -8.481  -0.520  8.72373E-02  1.34340E-01 -4.71026E-02
    8986.178     -8.328  -0.480  9.45492E-02  1.47950E-01 -5.34007E-02
    8986.318     -8.188  -0.440  1.02413E-01  1.62695E-01 -6.02814E-02
    8986.446     -8.060  -0.400  1.10694E-01  1.78317E-01 -6.76233E-02
    8986.562     -7.944  -0.360  1.19182E-01  1.94415E-01 -7.52331E-02
    8986.666     -7.841  -0.320  1.27605E-01  2.10463E-01 -8.28578E-02
    8986.757     -7.749  -0.280  1.35666E-01  2.25881E-01 -9.02150E-02
    8986.837     -7.670  -0.240  1.43078E-01  2.40109E-01 -9.70309E-02
    8986.904     -7.603  -0.200  1.49606E-01  2.52680E-01 -1.03074E-01
    8986.959     -7.548  -0.160  1.55082E-01  2.63253E-01 -1.08170E-01
    8987.001     -7.505  -0.120  1.59402E-01  2.71609E-01 -1.12207E-01
    8987.032     -7.475  -0.080  1.62511E-01  2.77629E-01 -1.15117E-01
    8987.056     -7.450   0.000  1.65007E-01  2.82466E-01 -1.17459E-01
    8987.111     -7.396   0.120  1.70521E-01  2.93356E-01 -1.22836E-01
    8987.154     -7.353   0.160  1.74820E-01  3.01836E-01 -1.27016E-01
    8987.208     -7.298   0.200  1.80267E-01  3.12638E-01 -1.32371E-01
    8987.276     -7.231   0.240  1.86816E-01  3.25650E-01 -1.38834E-01
    8987.355     -7.152   0.280  1.94286E-01  3.40568E-01 -1.46283E-01
    8987.446     -7.060   0.320  2.02523E-01  3.57028E-01 -1.54505E-01
    8987.550     -6.957   0.360  2.11305E-01  3.74533E-01 -1.63228E-01
    8987.666     -6.841   0.400  2.20512E-01  3.92598E-01 -1.72086E-01
    8987.794     -6.713   0.440  2.30086E-01  4.10740E-01 -1.80654E-01
    8987.934     -6.573   0.480  2.40114E-01  4.28601E-01 -1.88488E-01
    8988.086     -6.420   0.520  2.50773E-01  4.45939E-01 -1.95167E-01
    8988.251     -6.256   0.560  2.62283E-01  4.62673E-01 -2.00390E-01
    8988.428     -6.079   0.600  2.74760E-01  4.78772E-01 -2.04012E-01
    8988.617     -5.890   0.640  2.88209E-01  4.94273E-01 -2.06064E-01
    8988.818     -5.689   0.680  3.02448E-01  5.09285E-01 -2.06837E-01
    8989.031     -5.475   0.720  3.16830E-01  5.23867E-01 -2.07037E-01
    8989.257     -5.250   0.760  3.30211E-01  5.38141E-01 -2.07930E-01
    8989.494     -5.012   0.800  3.41129E-01  5.52177E-01 -2.11048E-01
    8989.744     -4.762   0.840  3.48718E-01  5.66016E-01 -2.17298E-01
    8990.007     -4.500   0.880  3.53715E-01  5.79765E-01 -2.26050E-01
    8990.281     -4.226   0.920  3.58308E-01  5.93443E-01 -2.35134E-01
    8990.567     -3.939   0.960  3.64982E-01  6.07072E-01 -2.42090E-01
    8990.866     -3.641   1.000  3.75087E-01  6.20691E-01 -2.45605E-01
    8991.177     -3.330   1.040  3.88743E-01  6.34287E-01 -2.45544E-01
    8991.500     -3.007   1.080  4.06260E-01  6.47919E-01 -2.41659E-01
    8991.835     -2.671   1.120  4.28477E-01  6.61521E-01 -2.33045E-01
    8992.183     -2.324   1.160  4.55662E-01  6.75146E-01 -2.19484E-01
    8992.542     -1.964   1.200  4.85516E-01  6.88736E-01 -2.03220E-01
    8992.914     -1.592   1.240  5.13873E-01  7.02313E-01 -1.88440E-01
    8993.298     -1.208   1.280  5.38675E-01  7.15837E-01 -1.77162E-01
    8993.695     -0.812   1.320  5.64728E-01  7.29285E-01 -1.64557E-01
    8994.103     -0.404   1.360  6.01691E-01  7.42649E-01 -1.40958E-01
    8994.524      0.017   1.400  6.55149E-01  7.55904E-01 -1.00754E-01
    8994.956      0.450   1.440  7.19468E-01  7.69020E-01 -4.95520E-02
    8995.401      0.895   1.480  7.81056E-01  7.81969E-01 -9.13193E-04
    8995.859      1.352   1.520  8.33465E-01  7.94740E-01  3.87242E-02
    8996.328      1.821   1.560  8.83035E-01  8.07283E-01  7.57523E-02
    8996.810      2.303   1.600  9.34066E-01  8.19568E-01  1.14497E-01
    8997.303      2.797   1.640  9.79001E-01  8.31605E-01  1.47395E-01
    8997.809      3.303   1.680  1.00833E+00  8.43365E-01  1.64968E-01
    8998.328      3.821   1.720  1.02457E+00  8.54797E-01  1.69772E-01
    8998.858      4.351   1.760  1.03611E+00  8.65911E-01  1.70202E-01
    8999.400      4.894   1.800  1.04791E+00  8.76659E-01  1.71248E-01
    8999.955      5.449   1.840  1.06342E+00  8.87053E-01  1.76370E-01
    9000.522      6.016   1.880  1.08048E+00  8.97046E-01  1.83436E-01
    9001.101      6.595   1.920  1.09134E+00  9.06651E-01  1.84691E-01
    9001.692      7.186   1.960  1.09618E+00  9.15821E-01  1.80360E-01
    9002.296      7.789   2.000  1.10057E+00  9.24575E-01  1.75994E-01
    9002.912      8.405   2.040  1.10609E+00  9.32907E-01  1.73181E-01
    9003.540      9.033   2.080  1.11016E+00  9.40795E-01  1.69368E-01
    9004.180      9.673   2.120  1.11476E+00  9.48259E-01  1.66499E-01
    9004.832     10.325   2.160  1.12992E+00  9.55256E-01  1.74666E-01
    9005.496     10.990   2.200  1.15704E+00  9.61826E-01  1.95218E-01
    9006.173     11.666   2.240  1.18221E+00  9.67931E-01  2.14278E-01
    9006.862     12.355   2.280  1.19671E+00  9.73611E-01  2.23094E-01
    9007.563     13.056   2.320  1.20123E+00  9.78851E-01  2.22383E-01
    9008.276     13.770   2.360  1.19524E+00  9.83654E-01  2.11590E-01
    9009.002     14.495   2.400  1.18049E+00  9.88065E-01  1.92422E-01
    9009.739     15.233   2.440  1.16377E+00  9.92048E-01  1.71726E-01
    9010.489     15.982   2.480  1.14938E+00  9.95629E-01  1.53756E-01
    9011.251     16.744   2.520  1.13326E+00  9.98813E-01  1.34447E-01
    9012.025     17.519   2.560  1.11132E+00  1.00165E+00  1.09673E-01
    9012.812     18.305   2.600  1.08735E+00  1.00410E+00  8.32530E-02
    9013.610     19.104   2.640  1.06544E+00  1.00622E+00  5.92209E-02
    9014.421     19.914   2.680  1.04566E+00  1.00801E+00  3.76539E-02
    9015.244     20.737   2.720  1.02567E+00  1.00948E+00  1.61895E-02
    9016.079     21.572   2.760  1.00169E+00  1.01066E+00 -8.97167E-03
    9016.926     22.420   2.800  9.73118E-01  1.01154E+00 -3.84242E-02
    9017.786     23.279   2.840  9.46541E-01  1.01216E+00 -6.56235E-02
    9018.658     24.151   2.880  9.29080E-01  1.01254E+00 -8.34628E-02
    9019.542     25.035   2.920  9.21427E-01  1.01271E+00 -9.12793E-02
    9020.438     25.931   2.960  9.18764E-01  1.01264E+00 -9.38747E-02
    9021.346     26.839   3.000  9.17709E-01  1.01237E+00 -9.46601E-02
    9022.266     27.760   3.040  9.14609E-01  1.01191E+00 -9.72986E-02
    9023.199     28.693   3.080  9.08800E-01  1.01130E+00 -1.02502E-01
    9024.144     29.637   3.120  9.00388E-01  1.01054E+00 -1.10151E-01
    9025.101     30.594   3.160  8.90461E-01  1.00963E+00 -1.19167E-01
    9026.070     31.564   3.200  8.80641E-01  1.00861E+00 -1.27973E-01
    9027.052     32.545   3.240  8.72410E-01  1.00747E+00 -1.35055E-01
    9028.045     33.539   3.280  8.67208E-01  1.00625E+00 -1.39042E-01
    9029.051     34.545   3.320  8.65555E-01  1.00496E+00 -1.39400E-01
    9030.069     35.563   3.360  8.67438E-01  1.00359E+00 -1.36149E-01
    9031.099     36.593   3.400  8.72623E-01  1.00217E+00 -1.29546E-01
    9032.142     37.635   3.440  8.80618E-01  1.00071E+00 -1.20092E-01
    9033.196     38.690   3.480  8.90951E-01  9.99215E-01 -1.08264E-01
    9034.263     39.757   3.520  9.03384E-01  9.97707E-01 -9.43235E-02
    9035.342     40.836   3.560  9.17632E-01  9.96173E-01 -7.85413E-02
    9036.433     41.927   3.600  9.33080E-01  9.94657E-01 -6.15776E-02
    9037.537     43.030   3.640  9.49242E-01  9.93123E-01 -4.38808E-02
    9038.652     44.146   3.680  9.65583E-01  9.91616E-01 -2.60333E-02
    9039.780     45.274   3.720  9.81395E-01  9.90142E-01 -8.74736E-03
    9040.920     46.414   3.760  9.96045E-01  9.88702E-01  7.34324E-03
    9042.072     47.566   3.800  1.00901E+00  9.87277E-01  2.17306E-02
    9043.237     48.730   3.840  1.01984E+00  9.85913E-01  3.39229E-02
    9044.413     49.907   3.880  1.02827E+00  9.84571E-01  4.37004E-02
    9045.602     51.095   3.920  1.03435E+00  9.83315E-01  5.10367E-02
    9046.803     52.296   3.960  1.03813E+00  9.82086E-01  5.60420E-02
    9048.016     53.509   4.000  1.03992E+00  9.80926E-01  5.89985E-02
    9049.241     54.735   4.040  1.04015E+00  9.79837E-01  6.03090E-02
    9050.479     55.972   4.080  1.03915E+00  9.78800E-01  6.03521E-02
    9051.728     57.222   4.120  1.03724E+00  9.77838E-01  5.93993E-02
    9052.990     58.484   4.160  1.03471E+00  9.76952E-01  5.77576E-02
    9054.264     59.758   4.200  1.03183E+00  9.76142E-01  5.56927E-02
    9055.550     61.044   4.240  1.02892E+00  9.75409E-01  5.35063E-02
    9056.849     62.342   4.280  1.02633E+00  9.74753E-01  5.15732E-02
    9058.160     63.653   4.320  1.02443E+00  9.74153E-01  5.02778E-02
    9059.482     64.976   4.360  1.02350E+00  9.73649E-01  4.98526E-02
    9060.817     66.311   4.400  1.02349E+00  9.73202E-01  5.02870E-02
    9062.165     67.658   4.440  1.02414E+00  9.72830E-01  5.13133E-02
    9063.524     69.017   4.480  1.02493E+00  9.72535E-01  5.23953E-02
    9064.896     70.389   4.520  1.02519E+00  9.72316E-01  5.28775E-02
    9066.279     71.773   4.560  1.02434E+00  9.72172E-01  5.21727E-02
    9067.675     73.169   4.600  1.02196E+00  9.72080E-01  4.98777E-02
    9069.083     74.577   4.640  1.01790E+00  9.72061E-01  4.58411E-02
    9070.504     75.997   4.680  1.01229E+00  9.72114E-01  4.01718E-02
    9071.936     77.430   4.720  1.00533E+00  9.72214E-01  3.31128E-02
    9073.381     78.875   4.760  9.97311E-01  9.72363E-01  2.49477E-02
    9074.838     80.332   4.800  9.88567E-01  9.72580E-01  1.59869E-02
    9076.307     81.801   4.840  9.79402E-01  9.72865E-01  6.53762E-03
    9077.789     83.282   4.880  9.70093E-01  9.73171E-01 -3.07823E-03
    9079.282     84.776   4.920  9.61039E-01  9.73540E-01 -1.25008E-02
    9080.788     86.281   4.960  9.52590E-01  9.73949E-01 -2.13591E-02
    9082.306     87.799   5.000  9.45135E-01  9.74375E-01 -2.92397E-02
    9083.836     89.329   5.040  9.39078E-01  9.74857E-01 -3.57794E-02
    9085.378     90.871   5.080  9.34633E-01  9.75353E-01 -4.07196E-02
    9086.933     92.426   5.120  9.31905E-01  9.75879E-01 -4.39743E-02
    9088.499     93.993   5.160  9.30776E-01  9.76413E-01 -4.56372E-02
    9090.078     95.571   5.200  9.31050E-01  9.76954E-01 -4.59036E-02
    9091.669     97.163   5.240  9.32449E-01  9.77521E-01 -4.50725E-02
    9093.272     98.766   5.280  9.34653E-01  9.78094E-01 -4.34407E-02
    9094.888    100.381   5.320  9.37383E-01  9.78689E-01 -4.13066E-02
    9096.515    102.009   5.360  9.40334E-01  9.79261E-01 -3.89273E-02
    9098.155    103.649   5.400  9.43295E-01  9.79827E-01 -3.65318E-02
    9099.807    105.301   5.440  9.46092E-01  9.80365E-01 -3.42726E-02
    9101.471    106.965   5.480  9.48683E-01  9.80895E-01 -3.22129E-02
    9103.148    108.641   5.520  9.51112E-01  9.81420E-01 -3.03080E-02
    9104.836    110.330   5.560  9.53491E-01  9.81934E-01 -2.84430E-02
    9106.537    112.031   5.600  9.55929E-01  9.82392E-01 -2.64631E-02
    9108.250    113.744   5.640  9.58598E-01  9.82835E-01 -2.42372E-02
    9109.975    115.469   5.680  9.61542E-01  9.83242E-01 -2.16995E-02
    9111.713    117.206   5.720  9.64735E-01  9.83609E-01 -1.88738E-02
    9113.462    118.956   5.760  9.68112E-01  9.83936E-01 -1.58235E-02
    9115.224    120.717   5.800  9.71592E-01  9.84223E-01 -1.26305E-02
    9116.998    122.491   5.840  9.75094E-01  9.84469E-01 -9.37551E-03
    9118.784    124.277   5.880  9.78514E-01  9.84673E-01 -6.15910E-03
    9120.582    126.076   5.920  9.81716E-01  9.84831E-01 -3.11529E-03
    9122.393    127.886   5.960  9.84505E-01  9.84911E-01 -4.06745E-04
    9124.215    129.709   6.000  9.86829E-01  9.84919E-01  1.91069E-03
