# # comment:                                                     FEFF 9.9.1  
# # Source:
# # Structure
# # Reduced
# # space
# # abc:
# # angles:
# # sites:
# # POT  SCF 100  7.0000   0, screened core-hole, AFOLP (folp(0)= 1.150)
# # Abs   Z=29 Rmt= 1.266 Rnm= 1.337 K  shell
# # Pot 1 Z=73 Rmt= 1.321 Rnm= 1.468
# # Pot 2 Z=29 Rmt= 1.265 Rnm= 1.336
# # Pot 3 Z= 8 Rmt= 1.004 Rnm= 1.084
# # Gam_ch=1.729E+00 H-L exch Vi= 0.000E+00 Vr= 0.000E+00
# # Mu=-6.012E+00eV kf=2.251E+00 Vint=-1.652E+01eV Rs_int= 1.611
# FMS rfms= 9.0000
# # PATH  Rmax=-1.000,  Keep_limit= 0.00, Heap_limit 0.00  Pwcrit= 2.50%
#  S02=0.950  Temp=   0.00  Debye_temp=   0.00  Global_sig2= 0.00000
#  Energy zero shift, vr, vi    0.00000E+00   0.00000E+00
#  Curved wave amplitude ratio filter   4.000%
#     file         sig2 tot  cw amp ratio   deg  nlegs   reff  inp sig2
#     0/   0 paths used
#  xsedge+ 50, used to normalize mu           2.4626E-04
#  -----------------------------------------------------------------------
#  omega    e    k    mu    mu0     chi     @#
    8983.603     -9.822  -1.000  5.17264E-02  5.75759E-02 -5.84946E-03
    8983.901     -9.523  -0.960  5.51122E-02  6.18865E-02 -6.77433E-03
    8984.188     -9.237  -0.920  5.88103E-02  6.66884E-02 -7.87808E-03
    8984.462     -8.963  -0.880  6.28563E-02  7.20551E-02 -9.19873E-03
    8984.724     -8.700  -0.840  6.72896E-02  7.80721E-02 -1.07825E-02
    8984.974     -8.450  -0.800  7.21535E-02  8.48388E-02 -1.26853E-02
    8985.212     -8.213  -0.760  7.74957E-02  9.24695E-02 -1.49738E-02
    8985.437     -7.987  -0.720  8.33669E-02  1.01093E-01 -1.77264E-02
    8985.651     -7.774  -0.680  8.98198E-02  1.10853E-01 -2.10329E-02
    8985.852     -7.573  -0.640  9.69064E-02  1.21898E-01 -2.49920E-02
    8986.041     -7.384  -0.600  1.04673E-01  1.34379E-01 -2.97056E-02
    8986.218     -7.207  -0.560  1.13154E-01  1.48421E-01 -3.52670E-02
    8986.382     -7.042  -0.520  1.22358E-01  1.64101E-01 -4.17424E-02
    8986.535     -6.890  -0.480  1.32259E-01  1.81404E-01 -4.91447E-02
    8986.675     -6.750  -0.440  1.42775E-01  2.00178E-01 -5.74029E-02
    8986.803     -6.622  -0.400  1.53756E-01  2.20092E-01 -6.63363E-02
    8986.919     -6.506  -0.360  1.64979E-01  2.40627E-01 -7.56486E-02
    8987.022     -6.402  -0.320  1.76156E-01  2.61108E-01 -8.49526E-02
    8987.114     -6.311  -0.280  1.86957E-01  2.80786E-01 -9.38285E-02
    8987.193     -6.232  -0.240  1.97047E-01  2.98942E-01 -1.01894E-01
    8987.260     -6.164  -0.200  2.06113E-01  3.14977E-01 -1.08864E-01
    8987.315     -6.110  -0.160  2.13887E-01  3.28454E-01 -1.14568E-01
    8987.358     -6.067  -0.120  2.20157E-01  3.39100E-01 -1.18943E-01
    8987.388     -6.036  -0.080  2.24767E-01  3.46763E-01 -1.21996E-01
    8987.413     -6.012   0.000  2.28578E-01  3.52914E-01 -1.24336E-01
    8987.467     -5.957   0.120  2.37094E-01  3.66784E-01 -1.29690E-01
    8987.510     -5.915   0.160  2.43812E-01  3.77556E-01 -1.33743E-01
    8987.565     -5.860   0.200  2.52619E-01  3.91271E-01 -1.38652E-01
    8987.632     -5.793   0.240  2.63661E-01  4.07748E-01 -1.44087E-01
    8987.711     -5.713   0.280  2.77049E-01  4.26610E-01 -1.49561E-01
    8987.803     -5.622   0.320  2.92919E-01  4.47345E-01 -1.54427E-01
    8987.906     -5.518   0.360  3.11438E-01  4.69320E-01 -1.57882E-01
    8988.022     -5.403   0.400  3.32730E-01  4.91842E-01 -1.59113E-01
    8988.150     -5.274   0.440  3.56954E-01  5.14302E-01 -1.57348E-01
    8988.290     -5.134   0.480  3.84251E-01  5.36204E-01 -1.51953E-01
    8988.443     -4.982   0.520  4.14834E-01  5.57248E-01 -1.42414E-01
    8988.607     -4.817   0.560  4.49008E-01  5.77294E-01 -1.28285E-01
    8988.784     -4.641   0.600  4.87512E-01  5.96289E-01 -1.08778E-01
    8988.973     -4.452   0.640  5.32157E-01  6.14322E-01 -8.21651E-02
    8989.174     -4.250   0.680  5.86164E-01  6.31444E-01 -4.52805E-02
    8989.388     -4.037   0.720  6.53139E-01  6.47804E-01  5.33474E-03
    8989.613     -3.811   0.760  7.32444E-01  6.63509E-01  6.89351E-02
    8989.851     -3.574   0.800  8.11893E-01  6.78677E-01  1.33215E-01
    8990.101     -3.324   0.840  8.67314E-01  6.93349E-01  1.73965E-01
    8990.363     -3.062   0.880  8.79682E-01  7.07613E-01  1.72069E-01
    8990.637     -2.787   0.920  8.51763E-01  7.21543E-01  1.30220E-01
    8990.924     -2.501   0.960  8.01788E-01  7.35156E-01  6.66325E-02
    8991.223     -2.202   1.000  7.47943E-01  7.48499E-01 -5.55324E-04
    8991.533     -1.891   1.040  7.02346E-01  7.61587E-01 -5.92410E-02
    8991.856     -1.568   1.080  6.71594E-01  7.74408E-01 -1.02814E-01
    8992.192     -1.233   1.120  6.56705E-01  7.86983E-01 -1.30278E-01
    8992.539     -0.885   1.160  6.51925E-01  7.99307E-01 -1.47382E-01
    8992.899     -0.526   1.200  6.47453E-01  8.11371E-01 -1.63917E-01
    8993.271     -0.154   1.240  6.43828E-01  8.23159E-01 -1.79331E-01
    8993.655      0.230   1.280  6.56028E-01  8.34656E-01 -1.78628E-01
    8994.051      0.626   1.320  6.91144E-01  8.45864E-01 -1.54721E-01
    8994.459      1.035   1.360  7.40647E-01  8.56763E-01 -1.16115E-01
    8994.880      1.455   1.400  7.99079E-01  8.67329E-01 -6.82501E-02
    8995.313      1.888   1.440  8.71868E-01  8.77541E-01 -5.67353E-03
    8995.758      2.333   1.480  9.51674E-01  8.87397E-01  6.42767E-02
    8996.215      2.790   1.520  1.01604E+00  8.96894E-01  1.19141E-01
    8996.685      3.260   1.560  1.05267E+00  9.05990E-01  1.46683E-01
    8997.166      3.741   1.600  1.05353E+00  9.14702E-01  1.38825E-01
    8997.660      4.235   1.640  1.02334E+00  9.23011E-01  1.00330E-01
    8998.166      4.741   1.680  9.86615E-01  9.30933E-01  5.56813E-02
    8998.684      5.259   1.720  9.59614E-01  9.38409E-01  2.12051E-02
    8999.214      5.790   1.760  9.44414E-01  9.45499E-01 -1.08517E-03
    8999.757      6.332   1.800  9.48592E-01  9.52165E-01 -3.57317E-03
    9000.312      6.887   1.840  9.81945E-01  9.58408E-01  2.35368E-02
    9000.879      7.454   1.880  1.03870E+00  9.64231E-01  7.44645E-02
    9001.458      8.033   1.920  1.09552E+00  9.69678E-01  1.25845E-01
    9002.049      8.624   1.960  1.14003E+00  9.74691E-01  1.65343E-01
    9002.652      9.228   2.000  1.18452E+00  9.79339E-01  2.05179E-01
    9003.268      9.844   2.040  1.23063E+00  9.83584E-01  2.47048E-01
    9003.896     10.471   2.080  1.26063E+00  9.87474E-01  2.73159E-01
    9004.536     11.111   2.120  1.26600E+00  9.90994E-01  2.75002E-01
    9005.188     11.764   2.160  1.26105E+00  9.94171E-01  2.66876E-01
    9005.853     12.428   2.200  1.26952E+00  9.97015E-01  2.72501E-01
    9006.530     13.105   2.240  1.30742E+00  9.99530E-01  3.07889E-01
    9007.218     13.794   2.280  1.37212E+00  1.00175E+00  3.70376E-01
    9007.919     14.495   2.320  1.42925E+00  1.00367E+00  4.25577E-01
    9008.633     15.208   2.360  1.42563E+00  1.00531E+00  4.20324E-01
    9009.358     15.933   2.400  1.34849E+00  1.00672E+00  3.41773E-01
    9010.096     16.671   2.440  1.23600E+00  1.00785E+00  2.28147E-01
    9010.845     17.421   2.480  1.12691E+00  1.00877E+00  1.18142E-01
    9011.607     18.183   2.520  1.03998E+00  1.00948E+00  3.05048E-02
    9012.382     18.957   2.560  9.78782E-01  1.00999E+00 -3.12043E-02
    9013.168     19.743   2.600  9.37828E-01  1.01032E+00 -7.24912E-02
    9013.967     20.542   2.640  9.09562E-01  1.01048E+00 -1.00921E-01
    9014.777     21.353   2.680  8.86947E-01  1.01049E+00 -1.23540E-01
    9015.600     22.176   2.720  8.66730E-01  1.01036E+00 -1.43630E-01
    9016.435     23.011   2.760  8.51854E-01  1.01011E+00 -1.58255E-01
    9017.283     23.858   2.800  8.41719E-01  1.00974E+00 -1.68020E-01
    9018.142     24.718   2.840  8.34260E-01  1.00930E+00 -1.75038E-01
    9019.014     25.589   2.880  8.28653E-01  1.00875E+00 -1.80099E-01
    9019.898     26.473   2.920  8.25490E-01  1.00812E+00 -1.82635E-01
    9020.794     27.369   2.960  8.25487E-01  1.00744E+00 -1.81957E-01
    9021.702     28.278   3.000  8.28205E-01  1.00670E+00 -1.78492E-01
    9022.623     29.198   3.040  8.32953E-01  1.00593E+00 -1.72973E-01
    9023.556     30.131   3.080  8.39170E-01  1.00512E+00 -1.65949E-01
    9024.500     31.076   3.120  8.46444E-01  1.00430E+00 -1.57855E-01
    9025.458     32.033   3.160  8.54386E-01  1.00345E+00 -1.49063E-01
    9026.427     33.002   3.200  8.63227E-01  1.00259E+00 -1.39365E-01
    9027.408     33.984   3.240  8.73730E-01  1.00174E+00 -1.28006E-01
    9028.402     34.977   3.280  8.86287E-01  1.00088E+00 -1.14593E-01
    9029.408     35.983   3.320  9.01069E-01  1.00005E+00 -9.89802E-02
    9030.426     37.001   3.360  9.17938E-01  9.99227E-01 -8.12892E-02
    9031.456     38.031   3.400  9.36515E-01  9.98434E-01 -6.19192E-02
    9032.498     39.074   3.440  9.56167E-01  9.97653E-01 -4.14868E-02
    9033.553     40.128   3.480  9.76524E-01  9.96909E-01 -2.03856E-02
    9034.620     41.195   3.520  9.97257E-01  9.96224E-01  1.03327E-03
    9035.699     42.274   3.560  1.01750E+00  9.95556E-01  2.19429E-02
    9036.790     43.365   3.600  1.03578E+00  9.94928E-01  4.08511E-02
    9037.893     44.469   3.640  1.05006E+00  9.94362E-01  5.56994E-02
    9039.009     45.584   3.680  1.05830E+00  9.93817E-01  6.44797E-02
    9040.137     46.712   3.720  1.05971E+00  9.93335E-01  6.63717E-02
    9041.277     47.852   3.760  1.05506E+00  9.92898E-01  6.21667E-02
    9042.429     49.004   3.800  1.04640E+00  9.92505E-01  5.38939E-02
    9043.593     50.168   3.840  1.03614E+00  9.92180E-01  4.39576E-02
    9044.770     51.345   3.880  1.02617E+00  9.91898E-01  3.42708E-02
    9045.958     52.534   3.920  1.01777E+00  9.91659E-01  2.61134E-02
    9047.159     53.735   3.960  1.01192E+00  9.91465E-01  2.04535E-02
    9048.372     54.948   4.000  1.00944E+00  9.91338E-01  1.81031E-02
    9049.598     56.173   4.040  1.01079E+00  9.91255E-01  1.95355E-02
    9050.835     57.410   4.080  1.01574E+00  9.91215E-01  2.45208E-02
    9052.085     58.660   4.120  1.02347E+00  9.91218E-01  3.22500E-02
    9053.347     59.922   4.160  1.03279E+00  9.91285E-01  4.15070E-02
    9054.621     61.196   4.200  1.04229E+00  9.91394E-01  5.08994E-02
    9055.907     62.482   4.240  1.05059E+00  9.91521E-01  5.90742E-02
    9057.205     63.781   4.280  1.05665E+00  9.91707E-01  6.49410E-02
    9058.516     65.091   4.320  1.05980E+00  9.91912E-01  6.78888E-02
    9059.839     66.414   4.360  1.05991E+00  9.92175E-01  6.77389E-02
    9061.174     67.749   4.400  1.05719E+00  9.92453E-01  6.47320E-02
    9062.521     69.096   4.440  1.05242E+00  9.92765E-01  5.96540E-02
    9063.880     70.456   4.480  1.04683E+00  9.93112E-01  5.37189E-02
    9065.252     71.827   4.520  1.04172E+00  9.93469E-01  4.82475E-02
    9066.636     73.211   4.560  1.03805E+00  9.93856E-01  4.41956E-02
    9068.032     74.607   4.600  1.03604E+00  9.94252E-01  4.17925E-02
    9069.440     76.015   4.640  1.03517E+00  9.94678E-01  4.04954E-02
    9070.860     77.436   4.680  1.03427E+00  9.95108E-01  3.91579E-02
    9072.293     78.868   4.720  1.03197E+00  9.95565E-01  3.64027E-02
    9073.738     80.313   4.760  1.02720E+00  9.96002E-01  3.12020E-02
    9075.195     81.770   4.800  1.01978E+00  9.96459E-01  2.33214E-02
    9076.664     83.239   4.840  1.01020E+00  9.96895E-01  1.33027E-02
    9078.145     84.720   4.880  9.99350E-01  9.97351E-01  1.99955E-03
    9079.639     86.214   4.920  9.87912E-01  9.97781E-01 -9.86849E-03
    9081.144     87.720   4.960  9.76300E-01  9.98206E-01 -2.19058E-02
    9082.662     89.238   5.000  9.64696E-01  9.98626E-01 -3.39300E-02
    9084.192     90.768   5.040  9.53252E-01  9.99041E-01 -4.57889E-02
    9085.734     92.310   5.080  9.42330E-01  9.99427E-01 -5.70966E-02
    9087.289     93.864   5.120  9.32663E-01  9.99802E-01 -6.71391E-02
    9088.856     95.431   5.160  9.25095E-01  1.00014E+00 -7.50491E-02
    9090.434     97.010   5.200  9.20378E-01  1.00048E+00 -8.00984E-02
    9092.026     98.601   5.240  9.18781E-01  1.00077E+00 -8.19923E-02
    9093.629    100.204   5.280  9.20155E-01  1.00103E+00 -8.08798E-02
    9095.244    101.820   5.320  9.24053E-01  1.00128E+00 -7.72295E-02
    9096.872    103.447   5.360  9.29876E-01  1.00149E+00 -7.16179E-02
    9098.512    105.087   5.400  9.37031E-01  1.00167E+00 -6.46375E-02
    9100.164    106.739   5.440  9.44947E-01  1.00180E+00 -5.68579E-02
    9101.828    108.403   5.480  9.53283E-01  1.00192E+00 -4.86421E-02
    9103.504    110.080   5.520  9.62031E-01  1.00198E+00 -3.99529E-02
    9105.193    111.768   5.560  9.71558E-01  1.00202E+00 -3.04668E-02
    9106.894    113.469   5.600  9.82188E-01  1.00200E+00 -1.98156E-02
    9108.607    115.182   5.640  9.94253E-01  1.00197E+00 -7.71446E-03
    9110.332    116.907   5.680  1.00791E+00  1.00189E+00  6.01292E-03
    9112.069    118.644   5.720  1.02297E+00  1.00178E+00  2.11933E-02
    9113.819    120.394   5.760  1.03851E+00  1.00163E+00  3.68853E-02
    9115.580    122.156   5.800  1.05260E+00  1.00143E+00  5.11641E-02
    9117.354    123.930   5.840  1.06269E+00  1.00121E+00  6.14894E-02
    9119.140    125.716   5.880  1.06650E+00  1.00094E+00  6.55562E-02
    9120.939    127.514   5.920  1.06305E+00  1.00066E+00  6.23870E-02
    9122.749    129.325   5.960  1.05336E+00  1.00033E+00  5.30279E-02
    9124.572    131.147   6.000  1.03972E+00  9.99958E-01  3.97627E-02
