# # comment:                                                     FEFF 9.9.1  
# # Source:
# # Structure
# # Reduced
# # space
# # abc:
# # angles:
# # sites:
# # POT  SCF 100  7.0000   0, screened core-hole, AFOLP (folp(0)= 1.150)
# # Abs   Z=29 Rmt= 1.259 Rnm= 1.344 K  shell
# # Pot 1 Z=29 Rmt= 1.282 Rnm= 1.351
# # Pot 2 Z=34 Rmt= 1.117 Rnm= 1.338
# # Pot 3 Z=17 Rmt= 1.406 Rnm= 1.573
# # Pot 4 Z= 8 Rmt= 0.914 Rnm= 1.070
# # Gam_ch=1.729E+00 H-L exch Vi= 0.000E+00 Vr= 0.000E+00
# # Mu=-5.174E+00eV kf=2.166E+00 Vint=-1.435E+01eV Rs_int= 1.675
# FMS rfms= 9.0000
# # PATH  Rmax=-1.000,  Keep_limit= 0.00, Heap_limit 0.00  Pwcrit= 2.50%
#  S02=0.950  Temp=   0.00  Debye_temp=   0.00  Global_sig2= 0.00000
#  Energy zero shift, vr, vi    0.00000E+00   0.00000E+00
#  Curved wave amplitude ratio filter   4.000%
#     file         sig2 tot  cw amp ratio   deg  nlegs   reff  inp sig2
#     0/   0 paths used
#  xsedge+ 50, used to normalize mu           2.4380E-04
#  -----------------------------------------------------------------------
#  omega    e    k    mu    mu0     chi     @#
    8983.363     -8.984  -1.000  4.91257E-02  6.02437E-02 -1.11179E-02
    8983.662     -8.685  -0.960  5.24475E-02  6.48138E-02 -1.23663E-02
    8983.948     -8.399  -0.920  5.61275E-02  6.99078E-02 -1.37802E-02
    8984.223     -8.125  -0.880  6.02193E-02  7.56038E-02 -1.53845E-02
    8984.485     -7.862  -0.840  6.47857E-02  8.19933E-02 -1.72076E-02
    8984.735     -7.612  -0.800  6.98994E-02  8.91820E-02 -1.92827E-02
    8984.972     -7.375  -0.760  7.56445E-02  9.72917E-02 -2.16472E-02
    8985.198     -7.149  -0.720  8.21166E-02  1.06460E-01 -2.43434E-02
    8985.411     -6.936  -0.680  8.94210E-02  1.16839E-01 -2.74177E-02
    8985.612     -6.735  -0.640  9.76695E-02  1.28588E-01 -3.09185E-02
    8985.801     -6.546  -0.600  1.06972E-01  1.41866E-01 -3.48936E-02
    8985.978     -6.369  -0.560  1.17423E-01  1.56807E-01 -3.93843E-02
    8986.143     -6.204  -0.520  1.29078E-01  1.73494E-01 -4.44164E-02
    8986.295     -6.052  -0.480  1.41921E-01  1.91910E-01 -4.99885E-02
    8986.435     -5.912  -0.440  1.55835E-01  2.11893E-01 -5.60581E-02
    8986.563     -5.784  -0.400  1.70563E-01  2.33092E-01 -6.25294E-02
    8986.679     -5.668  -0.360  1.85707E-01  2.54954E-01 -6.92477E-02
    8986.783     -5.564  -0.320  2.00754E-01  2.76762E-01 -7.60075E-02
    8986.874     -5.473  -0.280  2.15145E-01  2.97718E-01 -8.25728E-02
    8986.954     -5.394  -0.240  2.28350E-01  3.17056E-01 -8.87063E-02
    8987.021     -5.326  -0.200  2.39944E-01  3.34139E-01 -9.41955E-02
    8987.076     -5.272  -0.160  2.49633E-01  3.48501E-01 -9.88684E-02
    8987.118     -5.229  -0.120  2.57249E-01  3.59848E-01 -1.02599E-01
    8987.149     -5.198  -0.080  2.62713E-01  3.68018E-01 -1.05304E-01
    8987.173     -5.174   0.000  2.67083E-01  3.74578E-01 -1.07495E-01
    8987.228     -5.119   0.120  2.76597E-01  3.89368E-01 -1.12771E-01
    8987.271     -5.077   0.160  2.83995E-01  4.00847E-01 -1.16851E-01
    8987.325     -5.022   0.200  2.93385E-01  4.15486E-01 -1.22102E-01
    8987.393     -4.955   0.240  3.04595E-01  4.33074E-01 -1.28479E-01
    8987.472     -4.875   0.280  3.17353E-01  4.53219E-01 -1.35866E-01
    8987.563     -4.784   0.320  3.31321E-01  4.75382E-01 -1.44062E-01
    8987.667     -4.680   0.360  3.46173E-01  4.98878E-01 -1.52705E-01
    8987.783     -4.564   0.400  3.61677E-01  5.22995E-01 -1.61318E-01
    8987.911     -4.436   0.440  3.77804E-01  5.47068E-01 -1.69263E-01
    8988.051     -4.296   0.480  3.94792E-01  5.70594E-01 -1.75802E-01
    8988.203     -4.144   0.520  4.12998E-01  5.93213E-01 -1.80215E-01
    8988.368     -3.979   0.560  4.32857E-01  6.14773E-01 -1.81916E-01
    8988.545     -3.802   0.600  4.54580E-01  6.35216E-01 -1.80635E-01
    8988.734     -3.614   0.640  4.77985E-01  6.54627E-01 -1.76642E-01
    8988.935     -3.412   0.680  5.01974E-01  6.73059E-01 -1.71085E-01
    8989.148     -3.199   0.720  5.24381E-01  6.90639E-01 -1.66259E-01
    8989.374     -2.973   0.760  5.41983E-01  7.07456E-01 -1.65473E-01
    8989.611     -2.736   0.800  5.51091E-01  7.23626E-01 -1.72535E-01
    8989.861     -2.486   0.840  5.48501E-01  7.39211E-01 -1.90710E-01
    8990.124     -2.224   0.880  5.33540E-01  7.54256E-01 -2.20716E-01
    8990.398     -1.949   0.920  5.09784E-01  7.68851E-01 -2.59066E-01
    8990.684     -1.663   0.960  4.83742E-01  7.82991E-01 -2.99249E-01
    8990.983     -1.364   1.000  4.61961E-01  7.96699E-01 -3.34738E-01
    8991.294     -1.053   1.040  4.48839E-01  8.09988E-01 -3.61149E-01
    8991.617     -0.730   1.080  4.45961E-01  8.22886E-01 -3.76925E-01
    8991.952     -0.395   1.120  4.52369E-01  8.35348E-01 -3.82979E-01
    8992.300     -0.047   1.160  4.65204E-01  8.47389E-01 -3.82185E-01
    8992.659      0.312   1.200  4.80876E-01  8.58999E-01 -3.78123E-01
    8993.031      0.684   1.240  4.97585E-01  8.70183E-01 -3.72597E-01
    8993.415      1.068   1.280  5.16886E-01  8.80885E-01 -3.63999E-01
    8993.812      1.464   1.320  5.42604E-01  8.91130E-01 -3.48526E-01
    8994.220      1.873   1.360  5.79178E-01  9.00899E-01 -3.21721E-01
    8994.641      2.293   1.400  6.30029E-01  9.10174E-01 -2.80144E-01
    8995.073      2.726   1.440  6.95391E-01  9.18978E-01 -2.23587E-01
    8995.518      3.171   1.480  7.73149E-01  9.27252E-01 -1.54103E-01
    8995.976      3.629   1.520  8.59898E-01  9.35060E-01 -7.51619E-02
    8996.445      4.098   1.560  9.48917E-01  9.42345E-01  6.57188E-03
    8996.927      4.579   1.600  1.03836E+00  9.49153E-01  8.92058E-02
    8997.420      5.073   1.640  1.13771E+00  9.55449E-01  1.82263E-01
    8997.926      5.579   1.680  1.25670E+00  9.61280E-01  2.95425E-01
    8998.445      6.097   1.720  1.38501E+00  9.66653E-01  4.18354E-01
    8998.975      6.628   1.760  1.49202E+00  9.71533E-01  5.20483E-01
    8999.517      7.170   1.800  1.55515E+00  9.75993E-01  5.79158E-01
    9000.072      7.725   1.840  1.57270E+00  9.80022E-01  5.92678E-01
    9000.639      8.292   1.880  1.54800E+00  9.83627E-01  5.64373E-01
    9001.218      8.871   1.920  1.48919E+00  9.86843E-01  5.02345E-01
    9001.809      9.462   1.960  1.41193E+00  9.89696E-01  4.22239E-01
    9002.413     10.066   2.000  1.33178E+00  9.92180E-01  3.39601E-01
    9003.029     10.682   2.040  1.26585E+00  9.94346E-01  2.71502E-01
    9003.657     11.309   2.080  1.22440E+00  9.96185E-01  2.28219E-01
    9004.297     11.950   2.120  1.19818E+00  9.97728E-01  2.00448E-01
    9004.949     12.602   2.160  1.17159E+00  9.99029E-01  1.72565E-01
    9005.613     13.266   2.200  1.14044E+00  1.00006E+00  1.40380E-01
    9006.290     13.943   2.240  1.10878E+00  1.00086E+00  1.07921E-01
    9006.979     14.632   2.280  1.08205E+00  1.00145E+00  8.06013E-02
    9007.680     15.333   2.320  1.06486E+00  1.00187E+00  6.29890E-02
    9008.393     16.046   2.360  1.06070E+00  1.00211E+00  5.85884E-02
    9009.119     16.771   2.400  1.07084E+00  1.00219E+00  6.86485E-02
    9009.856     17.509   2.440  1.09001E+00  1.00217E+00  8.78424E-02
    9010.606     18.259   2.480  1.10559E+00  1.00200E+00  1.03600E-01
    9011.368     19.021   2.520  1.10575E+00  1.00175E+00  1.04002E-01
    9012.142     19.795   2.560  1.08690E+00  1.00140E+00  8.55009E-02
    9012.929     20.581   2.600  1.05583E+00  1.00099E+00  5.48379E-02
    9013.727     21.380   2.640  1.02748E+00  1.00054E+00  2.69400E-02
    9014.538     22.191   2.680  1.00167E+00  1.00001E+00  1.65792E-03
    9015.361     23.014   2.720  9.78102E-01  9.99497E-01 -2.13941E-02
    9016.196     23.849   2.760  9.56239E-01  9.98925E-01 -4.26861E-02
    9017.043     24.696   2.800  9.36321E-01  9.98368E-01 -6.20476E-02
    9017.903     25.556   2.840  9.18787E-01  9.97811E-01 -7.90246E-02
    9018.775     26.427   2.880  9.03901E-01  9.97256E-01 -9.33552E-02
    9019.659     27.311   2.920  8.91502E-01  9.96708E-01 -1.05206E-01
    9020.555     28.207   2.960  8.81368E-01  9.96213E-01 -1.14846E-01
    9021.463     29.116   3.000  8.73033E-01  9.95732E-01 -1.22698E-01
    9022.383     30.036   3.040  8.66115E-01  9.95287E-01 -1.29172E-01
    9023.316     30.969   3.080  8.60405E-01  9.94883E-01 -1.34478E-01
    9024.261     31.914   3.120  8.55733E-01  9.94522E-01 -1.38789E-01
    9025.218     32.871   3.160  8.51940E-01  9.94227E-01 -1.42287E-01
    9026.187     33.840   3.200  8.49221E-01  9.93980E-01 -1.44758E-01
    9027.169     34.822   3.240  8.48347E-01  9.93800E-01 -1.45453E-01
    9028.162     35.815   3.280  8.49748E-01  9.93668E-01 -1.43920E-01
    9029.168     36.821   3.320  8.53944E-01  9.93585E-01 -1.39641E-01
    9030.186     37.839   3.360  8.61310E-01  9.93573E-01 -1.32263E-01
    9031.216     38.869   3.400  8.71901E-01  9.93632E-01 -1.21731E-01
    9032.259     39.912   3.440  8.85447E-01  9.93740E-01 -1.08293E-01
    9033.313     40.966   3.480  9.01622E-01  9.93900E-01 -9.22777E-02
    9034.380     42.033   3.520  9.20059E-01  9.94152E-01 -7.40922E-02
    9035.459     43.112   3.560  9.40001E-01  9.94432E-01 -5.44307E-02
    9036.550     44.203   3.600  9.60707E-01  9.94802E-01 -3.40951E-02
    9037.654     45.307   3.640  9.81053E-01  9.95200E-01 -1.41462E-02
    9038.769     46.422   3.680  9.99915E-01  9.95665E-01  4.25054E-03
    9039.897     47.550   3.720  1.01632E+00  9.96175E-01  2.01471E-02
    9041.037     48.690   3.760  1.02987E+00  9.96753E-01  3.31207E-02
    9042.189     49.842   3.800  1.04058E+00  9.97375E-01  4.32048E-02
    9043.354     51.006   3.840  1.04874E+00  9.98036E-01  5.07085E-02
    9044.530     52.183   3.880  1.05470E+00  9.98715E-01  5.59890E-02
    9045.719     53.372   3.920  1.05876E+00  9.99454E-01  5.93011E-02
    9046.920     54.573   3.960  1.06098E+00  1.00023E+00  6.07510E-02
    9048.133     55.786   4.000  1.06154E+00  1.00102E+00  6.05184E-02
    9049.358     57.011   4.040  1.06078E+00  1.00184E+00  5.89454E-02
    9050.596     58.248   4.080  1.05912E+00  1.00266E+00  5.64582E-02
    9051.845     59.498   4.120  1.05704E+00  1.00352E+00  5.35157E-02
    9053.107     60.760   4.160  1.05501E+00  1.00438E+00  5.06303E-02
    9054.381     62.034   4.200  1.05345E+00  1.00525E+00  4.82010E-02
    9055.667     63.320   4.240  1.05262E+00  1.00613E+00  4.64871E-02
    9056.966     64.619   4.280  1.05259E+00  1.00699E+00  4.55973E-02
    9058.277     65.929   4.320  1.05335E+00  1.00785E+00  4.54999E-02
    9059.599     67.252   4.360  1.05474E+00  1.00871E+00  4.60383E-02
    9060.934     68.587   4.400  1.05656E+00  1.00955E+00  4.70117E-02
    9062.282     69.934   4.440  1.05860E+00  1.01037E+00  4.82279E-02
    9063.641     71.294   4.480  1.06054E+00  1.01117E+00  4.93708E-02
    9065.013     72.665   4.520  1.06195E+00  1.01194E+00  5.00093E-02
    9066.396     74.049   4.560  1.06242E+00  1.01267E+00  4.97509E-02
    9067.792     75.445   4.600  1.06170E+00  1.01339E+00  4.83155E-02
    9069.200     76.853   4.640  1.05963E+00  1.01404E+00  4.55869E-02
    9070.621     78.274   4.680  1.05627E+00  1.01467E+00  4.15904E-02
    9072.053     79.706   4.720  1.05173E+00  1.01527E+00  3.64617E-02
    9073.498     81.151   4.760  1.04629E+00  1.01579E+00  3.04944E-02
    9074.955     82.608   4.800  1.04049E+00  1.01630E+00  2.41891E-02
    9076.424     84.077   4.840  1.03481E+00  1.01673E+00  1.80819E-02
    9077.906     85.558   4.880  1.02965E+00  1.01712E+00  1.25306E-02
    9079.399     87.052   4.920  1.02497E+00  1.01744E+00  7.53679E-03
    9080.905     88.558   4.960  1.02046E+00  1.01773E+00  2.72697E-03
    9082.423     90.076   5.000  1.01555E+00  1.01795E+00 -2.40116E-03
    9083.953     91.606   5.040  1.00985E+00  1.01810E+00 -8.24808E-03
    9085.495     93.148   5.080  1.00324E+00  1.01820E+00 -1.49598E-02
    9087.050     94.702   5.120  9.95768E-01  1.01825E+00 -2.24859E-02
    9088.616     96.269   5.160  9.87467E-01  1.01826E+00 -3.07916E-02
    9090.195     97.848   5.200  9.78325E-01  1.01819E+00 -3.98660E-02
    9091.786     99.439   5.240  9.68525E-01  1.01805E+00 -4.95282E-02
    9093.389    101.042   5.280  9.58795E-01  1.01789E+00 -5.90945E-02
    9095.005    102.658   5.320  9.50235E-01  1.01766E+00 -6.74225E-02
    9096.632    104.285   5.360  9.44063E-01  1.01738E+00 -7.33139E-02
    9098.272    105.925   5.400  9.41099E-01  1.01703E+00 -7.59303E-02
    9099.924    107.577   5.440  9.41668E-01  1.01666E+00 -7.49910E-02
    9101.588    109.241   5.480  9.45474E-01  1.01622E+00 -7.07481E-02
    9103.265    110.918   5.520  9.51883E-01  1.01574E+00 -6.38595E-02
    9104.953    112.606   5.560  9.60017E-01  1.01522E+00 -5.52058E-02
    9106.654    114.307   5.600  9.68952E-01  1.01469E+00 -4.57342E-02
    9108.367    116.020   5.640  9.77678E-01  1.01409E+00 -3.64116E-02
    9110.092    117.745   5.680  9.85401E-01  1.01348E+00 -2.80775E-02
    9111.830    119.482   5.720  9.91618E-01  1.01283E+00 -2.12118E-02
    9113.579    121.232   5.760  9.96372E-01  1.01215E+00 -1.57763E-02
    9115.341    122.994   5.800  1.00010E+00  1.01144E+00 -1.13314E-02
    9117.115    124.768   5.840  1.00342E+00  1.01074E+00 -7.32013E-03
    9118.901    126.554   5.880  1.00666E+00  1.01000E+00 -3.33535E-03
    9120.699    128.352   5.920  1.01005E+00  1.00928E+00  7.64316E-04
    9122.510    130.163   5.960  1.01338E+00  1.00856E+00  4.82864E-03
    9124.332    131.985   6.000  1.01649E+00  1.00779E+00  8.70659E-03
