# # comment:                                                     FEFF 9.9.1  
# # Source:
# # Structure
# # Reduced
# # space
# # abc:
# # angles:
# # sites:
# # POT  SCF 100  7.0000   0, screened core-hole, AFOLP (folp(0)= 1.150)
# # Abs   Z=29 Rmt= 1.227 Rnm= 1.327 K  shell
# # Pot 1 Z=29 Rmt= 1.222 Rnm= 1.322
# # Pot 2 Z=42 Rmt= 1.156 Rnm= 1.362
# # Pot 3 Z= 8 Rmt= 0.941 Rnm= 1.082
# # Gam_ch=1.729E+00 H-L exch Vi= 0.000E+00 Vr= 0.000E+00
# # Mu=-5.334E+00eV kf=2.294E+00 Vint=-1.560E+01eV Rs_int= 1.581
# FMS rfms= 9.0000
# # PATH  Rmax=-1.000,  Keep_limit= 0.00, Heap_limit 0.00  Pwcrit= 2.50%
#  S02=0.950  Temp=   0.00  Debye_temp=   0.00  Global_sig2= 0.00000
#  Energy zero shift, vr, vi    0.00000E+00   0.00000E+00
#  Curved wave amplitude ratio filter   4.000%
#     file         sig2 tot  cw amp ratio   deg  nlegs   reff  inp sig2
#     0/   0 paths used
#  xsedge+ 50, used to normalize mu           2.4532E-04
#  -----------------------------------------------------------------------
#  omega    e    k    mu    mu0     chi     @#
    8983.420     -9.144  -1.000  4.63893E-02  5.80662E-02 -1.16769E-02
    8983.719     -8.845  -0.960  4.93880E-02  6.24235E-02 -1.30354E-02
    8984.005     -8.559  -0.920  5.26964E-02  6.72778E-02 -1.45815E-02
    8984.280     -8.284  -0.880  5.63592E-02  7.27035E-02 -1.63444E-02
    8984.542     -8.022  -0.840  6.04287E-02  7.87873E-02 -1.83586E-02
    8984.792     -7.772  -0.800  6.49657E-02  8.56296E-02 -2.06639E-02
    8985.030     -7.534  -0.760  7.00397E-02  9.33459E-02 -2.33062E-02
    8985.255     -7.309  -0.720  7.57293E-02  1.02067E-01 -2.63377E-02
    8985.468     -7.096  -0.680  8.21211E-02  1.11937E-01 -2.98158E-02
    8985.670     -6.894  -0.640  8.93063E-02  1.23108E-01 -3.38019E-02
    8985.859     -6.705  -0.600  9.73739E-02  1.35731E-01 -3.83568E-02
    8986.035     -6.529  -0.560  1.06399E-01  1.49933E-01 -4.35337E-02
    8986.200     -6.364  -0.520  1.16425E-01  1.65792E-01 -4.93674E-02
    8986.352     -6.212  -0.480  1.27436E-01  1.83294E-01 -5.58579E-02
    8986.493     -6.071  -0.440  1.39330E-01  2.02283E-01 -6.29530E-02
    8986.621     -5.943  -0.400  1.51894E-01  2.22426E-01 -7.05322E-02
    8986.736     -5.828  -0.360  1.64797E-01  2.43197E-01 -7.83998E-02
    8986.840     -5.724  -0.320  1.77618E-01  2.63914E-01 -8.62961E-02
    8986.932     -5.632  -0.280  1.89893E-01  2.83820E-01 -9.39263E-02
    8987.011     -5.553  -0.240  2.01185E-01  3.02186E-01 -1.01001E-01
    8987.078     -5.486  -0.200  2.11136E-01  3.18407E-01 -1.07272E-01
    8987.133     -5.431  -0.160  2.19488E-01  3.32042E-01 -1.12555E-01
    8987.175     -5.389  -0.120  2.26078E-01  3.42812E-01 -1.16735E-01
    8987.206     -5.358  -0.080  2.30812E-01  3.50566E-01 -1.19754E-01
    8987.230     -5.334   0.000  2.34572E-01  3.56790E-01 -1.22218E-01
    8987.285     -5.279   0.120  2.43188E-01  3.70830E-01 -1.27642E-01
    8987.328     -5.236   0.160  2.49926E-01  3.81702E-01 -1.31776E-01
    8987.383     -5.181   0.200  2.58612E-01  3.95589E-01 -1.36977E-01
    8987.450     -5.114   0.240  2.69187E-01  4.12263E-01 -1.43076E-01
    8987.529     -5.035   0.280  2.81530E-01  4.31347E-01 -1.49816E-01
    8987.620     -4.944   0.320  2.95546E-01  4.52343E-01 -1.56797E-01
    8987.724     -4.840   0.360  3.11096E-01  4.74593E-01 -1.63497E-01
    8987.840     -4.724   0.400  3.28060E-01  4.97397E-01 -1.69337E-01
    8987.968     -4.596   0.440  3.46294E-01  5.20136E-01 -1.73843E-01
    8988.108     -4.456   0.480  3.65423E-01  5.42333E-01 -1.76911E-01
    8988.260     -4.304   0.520  3.84626E-01  5.63665E-01 -1.79039E-01
    8988.425     -4.139   0.560  4.02507E-01  5.83969E-01 -1.81462E-01
    8988.602     -3.962   0.600  4.17396E-01  6.03231E-01 -1.85835E-01
    8988.791     -3.773   0.640  4.27966E-01  6.21477E-01 -1.93511E-01
    8988.992     -3.572   0.680  4.34098E-01  6.38862E-01 -2.04765E-01
    8989.205     -3.359   0.720  4.36651E-01  6.55435E-01 -2.18783E-01
    8989.431     -3.133   0.760  4.37193E-01  6.71360E-01 -2.34167E-01
    8989.669     -2.895   0.800  4.37511E-01  6.86698E-01 -2.49187E-01
    8989.919     -2.645   0.840  4.39478E-01  7.01529E-01 -2.62051E-01
    8990.181     -2.383   0.880  4.44313E-01  7.15961E-01 -2.71648E-01
    8990.455     -2.109   0.920  4.51521E-01  7.30027E-01 -2.78506E-01
    8990.741     -1.822   0.960  4.58296E-01  7.43764E-01 -2.85468E-01
    8991.040     -1.524   1.000  4.61466E-01  7.57198E-01 -2.95732E-01
    8991.351     -1.213   1.040  4.62171E-01  7.70343E-01 -3.08172E-01
    8991.674     -0.890   1.080  4.66166E-01  7.83209E-01 -3.17043E-01
    8992.009     -0.555   1.120  4.78830E-01  7.95795E-01 -3.16965E-01
    8992.357     -0.207   1.160  5.01470E-01  8.08095E-01 -3.06626E-01
    8992.717      0.153   1.200  5.31585E-01  8.20119E-01 -2.88534E-01
    8993.088      0.524   1.240  5.65383E-01  8.31833E-01 -2.66450E-01
    8993.472      0.909   1.280  6.00793E-01  8.43241E-01 -2.42448E-01
    8993.869      1.305   1.320  6.37496E-01  8.54324E-01 -2.16828E-01
    8994.277      1.713   1.360  6.74504E-01  8.65061E-01 -1.90558E-01
    8994.698      2.134   1.400  7.11457E-01  8.75453E-01 -1.63996E-01
    8995.131      2.567   1.440  7.51335E-01  8.85456E-01 -1.34121E-01
    8995.576      3.012   1.480  7.97043E-01  8.95069E-01 -9.80259E-02
    8996.033      3.469   1.520  8.44870E-01  9.04310E-01 -5.94399E-02
    8996.502      3.938   1.560  8.88257E-01  9.13117E-01 -2.48606E-02
    8996.984      4.420   1.600  9.30206E-01  9.21531E-01  8.67528E-03
    8997.478      4.914   1.640  9.83550E-01  9.29528E-01  5.40222E-02
    8997.984      5.420   1.680  1.05601E+00  9.37090E-01  1.18923E-01
    8998.502      5.938   1.720  1.14173E+00  9.44217E-01  1.97510E-01
    8999.032      6.468   1.760  1.22733E+00  9.50932E-01  2.76395E-01
    8999.575      7.011   1.800  1.30393E+00  9.57216E-01  3.46714E-01
    9000.129      7.565   1.840  1.36925E+00  9.63073E-01  4.06173E-01
    9000.696      8.132   1.880  1.41659E+00  9.68528E-01  4.48064E-01
    9001.275      8.711   1.920  1.43780E+00  9.73562E-01  4.64234E-01
    9001.867      9.303   1.960  1.42773E+00  9.78184E-01  4.49546E-01
    9002.470      9.906   2.000  1.38365E+00  9.82439E-01  4.01215E-01
    9003.086     10.522   2.040  1.31748E+00  9.86292E-01  3.31192E-01
    9003.714     11.150   2.080  1.25175E+00  9.89792E-01  2.61962E-01
    9004.354     11.790   2.120  1.20127E+00  9.92947E-01  2.08322E-01
    9005.006     12.442   2.160  1.16906E+00  9.95764E-01  1.73298E-01
    9005.671     13.107   2.200  1.15439E+00  9.98231E-01  1.56163E-01
    9006.347     13.783   2.240  1.15391E+00  1.00042E+00  1.53491E-01
    9007.036     14.472   2.280  1.15720E+00  1.00231E+00  1.54897E-01
    9007.737     15.173   2.320  1.15618E+00  1.00392E+00  1.52269E-01
    9008.450     15.886   2.360  1.15000E+00  1.00527E+00  1.44730E-01
    9009.176     16.612   2.400  1.13714E+00  1.00637E+00  1.30764E-01
    9009.913     17.349   2.440  1.12012E+00  1.00726E+00  1.12859E-01
    9010.663     18.099   2.480  1.10773E+00  1.00794E+00  9.97897E-02
    9011.425     18.861   2.520  1.10100E+00  1.00844E+00  9.25620E-02
    9012.199     19.635   2.560  1.09290E+00  1.00874E+00  8.41634E-02
    9012.986     20.422   2.600  1.07820E+00  1.00888E+00  6.93262E-02
    9013.784     21.220   2.640  1.05719E+00  1.00888E+00  4.83081E-02
    9014.595     22.031   2.680  1.03517E+00  1.00875E+00  2.64166E-02
    9015.418     22.854   2.720  1.01520E+00  1.00850E+00  6.69581E-03
    9016.253     23.689   2.760  9.95250E-01  1.00813E+00 -1.28842E-02
    9017.100     24.537   2.800  9.73654E-01  1.00770E+00 -3.40461E-02
    9017.960     25.396   2.840  9.51962E-01  1.00716E+00 -5.52027E-02
    9018.832     26.268   2.880  9.31891E-01  1.00657E+00 -7.46808E-02
    9019.716     27.152   2.920  9.14540E-01  1.00593E+00 -9.13907E-02
    9020.612     28.048   2.960  9.00497E-01  1.00525E+00 -1.04749E-01
    9021.520     28.956   3.000  8.89639E-01  1.00450E+00 -1.14861E-01
    9022.441     29.877   3.040  8.81473E-01  1.00376E+00 -1.22288E-01
    9023.373     30.809   3.080  8.75666E-01  1.00299E+00 -1.27327E-01
    9024.318     31.754   3.120  8.72020E-01  1.00222E+00 -1.30199E-01
    9025.275     32.711   3.160  8.69909E-01  1.00144E+00 -1.31532E-01
    9026.244     33.680   3.200  8.68696E-01  1.00067E+00 -1.31970E-01
    9027.226     34.662   3.240  8.67931E-01  9.99896E-01 -1.31965E-01
    9028.220     35.656   3.280  8.67418E-01  9.99176E-01 -1.31758E-01
    9029.225     36.661   3.320  8.67495E-01  9.98446E-01 -1.30951E-01
    9030.243     37.679   3.360  8.69062E-01  9.97771E-01 -1.28708E-01
    9031.274     38.710   3.400  8.72847E-01  9.97110E-01 -1.24263E-01
    9032.316     39.752   3.440  8.79075E-01  9.96488E-01 -1.17413E-01
    9033.371     40.807   3.480  8.87738E-01  9.95928E-01 -1.08189E-01
    9034.437     41.873   3.520  8.98453E-01  9.95387E-01 -9.69333E-02
    9035.516     42.952   3.560  9.10616E-01  9.94910E-01 -8.42940E-02
    9036.608     44.044   3.600  9.23470E-01  9.94478E-01 -7.10086E-02
    9037.711     45.147   3.640  9.36442E-01  9.94090E-01 -5.76485E-02
    9038.827     46.263   3.680  9.49211E-01  9.93769E-01 -4.45578E-02
    9039.954     47.390   3.720  9.61668E-01  9.93493E-01 -3.18250E-02
    9041.094     48.530   3.760  9.74128E-01  9.93264E-01 -1.91359E-02
    9042.246     49.682   3.800  9.86976E-01  9.93101E-01 -6.12439E-03
    9043.411     50.847   3.840  1.00039E+00  9.92962E-01  7.42926E-03
    9044.587     52.023   3.880  1.01436E+00  9.92910E-01  2.14531E-02
    9045.776     53.212   3.920  1.02837E+00  9.92885E-01  3.54883E-02
    9046.977     54.413   3.960  1.04160E+00  9.92925E-01  4.86768E-02
    9048.190     55.626   4.000  1.05310E+00  9.93011E-01  6.00933E-02
    9049.415     56.851   4.040  1.06213E+00  9.93162E-01  6.89679E-02
    9050.653     58.089   4.080  1.06814E+00  9.93335E-01  7.48075E-02
    9051.902     59.338   4.120  1.07112E+00  9.93570E-01  7.75534E-02
    9053.164     60.600   4.160  1.07159E+00  9.93847E-01  7.77477E-02
    9054.438     61.874   4.200  1.07033E+00  9.94142E-01  7.61840E-02
    9055.725     63.161   4.240  1.06815E+00  9.94496E-01  7.36555E-02
    9057.023     64.459   4.280  1.06572E+00  9.94889E-01  7.08265E-02
    9058.334     65.770   4.320  1.06339E+00  9.95297E-01  6.80923E-02
    9059.656     67.093   4.360  1.06127E+00  9.95738E-01  6.55354E-02
    9060.991     68.428   4.400  1.05919E+00  9.96215E-01  6.29725E-02
    9062.339     69.775   4.440  1.05686E+00  9.96725E-01  6.01363E-02
    9063.698     71.134   4.480  1.05397E+00  9.97242E-01  5.67298E-02
    9065.070     72.506   4.520  1.05034E+00  9.97766E-01  5.25741E-02
    9066.453     73.890   4.560  1.04597E+00  9.98318E-01  4.76520E-02
    9067.849     75.285   4.600  1.04096E+00  9.98874E-01  4.20886E-02
    9069.258     76.694   4.640  1.03560E+00  9.99434E-01  3.61696E-02
    9070.678     78.114   4.680  1.03035E+00  1.00002E+00  3.03356E-02
    9072.111     79.547   4.720  1.02562E+00  1.00057E+00  2.50502E-02
    9073.555     80.991   4.760  1.02177E+00  1.00113E+00  2.06422E-02
    9075.012     82.448   4.800  1.01884E+00  1.00168E+00  1.71634E-02
    9076.481     83.917   4.840  1.01658E+00  1.00223E+00  1.43455E-02
    9077.963     85.399   4.880  1.01449E+00  1.00277E+00  1.17227E-02
    9079.456     86.892   4.920  1.01209E+00  1.00328E+00  8.80435E-03
    9080.962     88.398   4.960  1.00900E+00  1.00379E+00  5.20899E-03
    9082.480     89.916   5.000  1.00499E+00  1.00426E+00  7.35965E-04
    9084.010     91.446   5.040  1.00008E+00  1.00471E+00 -4.63101E-03
    9085.552     92.988   5.080  9.94392E-01  1.00514E+00 -1.07457E-02
    9087.107     94.543   5.120  9.88188E-01  1.00552E+00 -1.73349E-02
    9088.673     96.109   5.160  9.81791E-01  1.00587E+00 -2.40801E-02
    9090.252     97.688   5.200  9.75634E-01  1.00620E+00 -3.05694E-02
    9091.843     99.279   5.240  9.70196E-01  1.00650E+00 -3.63040E-02
    9093.446    100.882   5.280  9.65964E-01  1.00676E+00 -4.07922E-02
    9095.062    102.498   5.320  9.63230E-01  1.00697E+00 -4.37416E-02
    9096.690    104.126   5.360  9.61969E-01  1.00715E+00 -4.51763E-02
    9098.329    105.765   5.400  9.61868E-01  1.00727E+00 -4.54067E-02
    9099.981    107.417   5.440  9.62486E-01  1.00734E+00 -4.48533E-02
    9101.646    109.082   5.480  9.63501E-01  1.00739E+00 -4.38852E-02
    9103.322    110.758   5.520  9.64667E-01  1.00739E+00 -4.27276E-02
    9105.011    112.447   5.560  9.65864E-01  1.00736E+00 -4.14973E-02
    9106.711    114.147   5.600  9.67054E-01  1.00728E+00 -4.02302E-02
    9108.424    115.860   5.640  9.68239E-01  1.00714E+00 -3.89026E-02
    9110.149    117.585   5.680  9.69573E-01  1.00698E+00 -3.74053E-02
    9111.887    119.323   5.720  9.71164E-01  1.00675E+00 -3.55903E-02
    9113.636    121.072   5.760  9.73192E-01  1.00651E+00 -3.33203E-02
    9115.398    122.834   5.800  9.75677E-01  1.00621E+00 -3.05302E-02
    9117.172    124.608   5.840  9.78661E-01  1.00589E+00 -2.72259E-02
    9118.958    126.394   5.880  9.82058E-01  1.00551E+00 -2.34494E-02
    9120.756    128.192   5.920  9.85882E-01  1.00512E+00 -1.92351E-02
    9122.567    130.003   5.960  9.90089E-01  1.00469E+00 -1.46041E-02
    9124.390    131.826   6.000  9.94800E-01  1.00418E+00 -9.37636E-03
