# # comment:                                                     FEFF 9.9.1  
# # Source:
# # Structure
# # Reduced
# # space
# # abc:
# # angles:
# # sites:
# # POT  SCF 100  7.0000   0, screened core-hole, AFOLP (folp(0)= 1.150)
# # Abs   Z=29 Rmt= 1.366 Rnm= 1.425 K  shell
# # Pot 1 Z= 3 Rmt= 1.280 Rnm= 1.339
# # Pot 2 Z=29 Rmt= 1.300 Rnm= 1.396
# # Pot 3 Z=15 Rmt= 0.945 Rnm= 1.155
# # Pot 4 Z= 8 Rmt= 0.928 Rnm= 1.031
# # Gam_ch=1.729E+00 H-L exch Vi= 0.000E+00 Vr= 0.000E+00
# # Mu=-6.004E+00eV kf=2.361E+00 Vint=-1.709E+01eV Rs_int= 1.536
# FMS rfms= 9.0000
# # PATH  Rmax=-1.000,  Keep_limit= 0.00, Heap_limit 0.00  Pwcrit= 2.50%
#  S02=0.950  Temp=   0.00  Debye_temp=   0.00  Global_sig2= 0.00000
#  Energy zero shift, vr, vi    0.00000E+00   0.00000E+00
#  Curved wave amplitude ratio filter   4.000%
#     file         sig2 tot  cw amp ratio   deg  nlegs   reff  inp sig2
#     0/   0 paths used
#  xsedge+ 50, used to normalize mu           2.4694E-04
#  -----------------------------------------------------------------------
#  omega    e    k    mu    mu0     chi     @#
    8983.450     -9.814  -1.000  5.09505E-02  5.46492E-02 -3.69865E-03
    8983.749     -9.516  -0.960  5.42929E-02  5.86450E-02 -4.35218E-03
    8984.035     -9.229  -0.920  5.79665E-02  6.30893E-02 -5.12276E-03
    8984.310     -8.955  -0.880  6.20167E-02  6.80485E-02 -6.03177E-03
    8984.572     -8.693  -0.840  6.64957E-02  7.36002E-02 -7.10453E-03
    8984.822     -8.443  -0.800  7.14636E-02  7.98344E-02 -8.37080E-03
    8985.059     -8.205  -0.760  7.69892E-02  8.68544E-02 -9.86526E-03
    8985.285     -7.979  -0.720  8.31495E-02  9.47772E-02 -1.16277E-02
    8985.498     -7.766  -0.680  9.00289E-02  1.03732E-01 -1.37027E-02
    8985.700     -7.565  -0.640  9.77157E-02  1.13854E-01 -1.61380E-02
    8985.889     -7.376  -0.600  1.06296E-01  1.25277E-01 -1.89817E-02
    8986.065     -7.199  -0.560  1.15841E-01  1.38117E-01 -2.22763E-02
    8986.230     -7.034  -0.520  1.26393E-01  1.52442E-01 -2.60492E-02
    8986.382     -6.882  -0.480  1.37937E-01  1.68238E-01 -3.03005E-02
    8986.523     -6.742  -0.440  1.50377E-01  1.85365E-01 -3.49876E-02
    8986.651     -6.614  -0.400  1.63510E-01  2.03523E-01 -4.00130E-02
    8986.766     -6.498  -0.360  1.77019E-01  2.22241E-01 -4.52215E-02
    8986.870     -6.394  -0.320  1.90493E-01  2.40906E-01 -5.04127E-02
    8986.961     -6.303  -0.280  2.03468E-01  2.58837E-01 -5.53688E-02
    8987.041     -6.224  -0.240  2.15492E-01  2.75382E-01 -5.98898E-02
    8987.108     -6.157  -0.200  2.26174E-01  2.89996E-01 -6.38218E-02
    8987.163     -6.102  -0.160  2.35214E-01  3.02282E-01 -6.70680E-02
    8987.205     -6.059  -0.120  2.42405E-01  3.11989E-01 -6.95843E-02
    8987.236     -6.029  -0.080  2.47614E-01  3.18978E-01 -7.13646E-02
    8987.260     -6.004   0.000  2.51817E-01  3.24591E-01 -7.27741E-02
    8987.315     -5.949   0.120  2.61211E-01  3.37232E-01 -7.60211E-02
    8987.358     -5.907   0.160  2.68603E-01  3.47052E-01 -7.84484E-02
    8987.413     -5.852   0.200  2.78152E-01  3.59594E-01 -8.14416E-02
    8987.480     -5.785   0.240  2.89780E-01  3.74634E-01 -8.48537E-02
    8987.559     -5.706   0.280  3.03383E-01  3.91875E-01 -8.84918E-02
    8987.650     -5.614   0.320  3.18746E-01  4.10859E-01 -9.21129E-02
    8987.754     -5.510   0.360  3.35509E-01  4.30993E-01 -9.54844E-02
    8987.870     -5.395   0.400  3.53267E-01  4.51694E-01 -9.84271E-02
    8987.998     -5.267   0.440  3.71485E-01  4.72391E-01 -1.00906E-01
    8988.138     -5.126   0.480  3.89556E-01  4.92662E-01 -1.03106E-01
    8988.290     -4.974   0.520  4.06802E-01  5.12194E-01 -1.05392E-01
    8988.455     -4.809   0.560  4.22682E-01  5.30907E-01 -1.08225E-01
    8988.632     -4.633   0.600  4.36803E-01  5.48773E-01 -1.11970E-01
    8988.821     -4.444   0.640  4.49172E-01  5.65834E-01 -1.16661E-01
    8989.022     -4.243   0.680  4.60348E-01  5.82174E-01 -1.21826E-01
    8989.235     -4.029   0.720  4.71532E-01  5.97934E-01 -1.26402E-01
    8989.461     -3.804   0.760  4.84309E-01  6.13211E-01 -1.28902E-01
    8989.699     -3.566   0.800  5.00339E-01  6.28073E-01 -1.27734E-01
    8989.948     -3.316   0.840  5.20835E-01  6.42636E-01 -1.21802E-01
    8990.211     -3.054   0.880  5.45313E-01  6.56941E-01 -1.11628E-01
    8990.485     -2.779   0.920  5.71117E-01  6.71076E-01 -9.99590E-02
    8990.771     -2.493   0.960  5.94638E-01  6.85055E-01 -9.04174E-02
    8991.070     -2.194   1.000  6.14320E-01  6.98900E-01 -8.45808E-02
    8991.381     -1.883   1.040  6.32918E-01  7.12647E-01 -7.97293E-02
    8991.704     -1.560   1.080  6.56522E-01  7.26300E-01 -6.97780E-02
    8992.039     -1.225   1.120  6.90815E-01  7.39856E-01 -4.90405E-02
    8992.387     -0.878   1.160  7.36871E-01  7.53309E-01 -1.64376E-02
    8992.747     -0.518   1.200  7.88945E-01  7.66645E-01  2.22999E-02
    8993.118     -0.146   1.240  8.38081E-01  7.79869E-01  5.82123E-02
    8993.502      0.238   1.280  8.80210E-01  7.92940E-01  8.72707E-02
    8993.899      0.634   1.320  9.18796E-01  8.05856E-01  1.12939E-01
    8994.307      1.043   1.360  9.58288E-01  8.18593E-01  1.39694E-01
    8994.728      1.463   1.400  1.00054E+00  8.31104E-01  1.69437E-01
    8995.161      1.896   1.440  1.04645E+00  8.43401E-01  2.03051E-01
    8995.606      2.341   1.480  1.09563E+00  8.55416E-01  2.40216E-01
    8996.063      2.798   1.520  1.14710E+00  8.67161E-01  2.79936E-01
    8996.532      3.268   1.560  1.19846E+00  8.78606E-01  3.19850E-01
    8997.014      3.749   1.600  1.24427E+00  8.89722E-01  3.54543E-01
    8997.507      4.243   1.640  1.27921E+00  9.00481E-01  3.78728E-01
    8998.013      4.749   1.680  1.29960E+00  9.10854E-01  3.88749E-01
    8998.532      5.267   1.720  1.30309E+00  9.20851E-01  3.82238E-01
    8999.062      5.798   1.760  1.28617E+00  9.30427E-01  3.55738E-01
    8999.604      6.340   1.800  1.24135E+00  9.39575E-01  3.01775E-01
    9000.159      6.895   1.840  1.17161E+00  9.48290E-01  2.23318E-01
    9000.726      7.462   1.880  1.09866E+00  9.56568E-01  1.42089E-01
    9001.305      8.041   1.920  1.04736E+00  9.64364E-01  8.29947E-02
    9001.897      8.632   1.960  1.02839E+00  9.71715E-01  5.66778E-02
    9002.500      9.236   2.000  1.03401E+00  9.78582E-01  5.54309E-02
    9003.116      9.851   2.040  1.04749E+00  9.84983E-01  6.25059E-02
    9003.744     10.479   2.080  1.05836E+00  9.90920E-01  6.74448E-02
    9004.384     11.119   2.120  1.06297E+00  9.96375E-01  6.65945E-02
    9005.036     11.772   2.160  1.05651E+00  1.00139E+00  5.51267E-02
    9005.700     12.436   2.200  1.03820E+00  1.00593E+00  3.22784E-02
    9006.377     13.113   2.240  1.01619E+00  1.01001E+00  6.17387E-03
    9007.066     13.802   2.280  9.99487E-01  1.01368E+00 -1.41886E-02
    9007.767     14.503   2.320  9.91498E-01  1.01692E+00 -2.54210E-02
    9008.480     15.216   2.360  9.89023E-01  1.01975E+00 -3.07288E-02
    9009.206     15.941   2.400  9.87068E-01  1.02218E+00 -3.51117E-02
    9009.943     16.679   2.440  9.85380E-01  1.02423E+00 -3.88511E-02
    9010.693     17.429   2.480  9.85187E-01  1.02591E+00 -4.07270E-02
    9011.455     18.191   2.520  9.83495E-01  1.02724E+00 -4.37434E-02
    9012.229     18.965   2.560  9.76331E-01  1.02826E+00 -5.19246E-02
    9013.016     19.751   2.600  9.63509E-01  1.02895E+00 -6.54447E-02
    9013.814     20.550   2.640  9.47832E-01  1.02936E+00 -8.15294E-02
    9014.625     21.361   2.680  9.31569E-01  1.02951E+00 -9.79421E-02
    9015.448     22.184   2.720  9.14410E-01  1.02939E+00 -1.14982E-01
    9016.283     23.019   2.760  8.98691E-01  1.02905E+00 -1.30362E-01
    9017.130     23.866   2.800  8.90951E-01  1.02850E+00 -1.37553E-01
    9017.990     24.726   2.840  8.91146E-01  1.02776E+00 -1.36611E-01
    9018.862     25.597   2.880  8.96892E-01  1.02684E+00 -1.29948E-01
    9019.746     26.481   2.920  9.05950E-01  1.02576E+00 -1.19811E-01
    9020.642     27.377   2.960  9.16251E-01  1.02455E+00 -1.08298E-01
    9021.550     28.286   3.000  9.26677E-01  1.02320E+00 -9.65187E-02
    9022.470     29.206   3.040  9.36758E-01  1.02177E+00 -8.50085E-02
    9023.403     30.139   3.080  9.46423E-01  1.02023E+00 -7.38098E-02
    9024.348     31.084   3.120  9.56038E-01  1.01862E+00 -6.25824E-02
    9025.305     32.041   3.160  9.65860E-01  1.01696E+00 -5.10964E-02
    9026.274     33.010   3.200  9.75710E-01  1.01527E+00 -3.95611E-02
    9027.256     33.991   3.240  9.85378E-01  1.01353E+00 -2.81509E-02
    9028.249     34.985   3.280  9.94631E-01  1.01178E+00 -1.71456E-02
    9029.255     35.991   3.320  1.00317E+00  1.01002E+00 -6.85047E-03
    9030.273     37.009   3.360  1.01096E+00  1.00827E+00  2.69297E-03
    9031.304     38.039   3.400  1.01819E+00  1.00654E+00  1.16470E-02
    9032.346     39.082   3.440  1.02496E+00  1.00485E+00  2.01041E-02
    9033.401     40.136   3.480  1.03125E+00  1.00317E+00  2.80799E-02
    9034.467     41.203   3.520  1.03700E+00  1.00154E+00  3.54676E-02
    9035.546     42.282   3.560  1.04213E+00  9.99965E-01  4.21604E-02
    9036.638     43.373   3.600  1.04673E+00  9.98443E-01  4.82831E-02
    9037.741     44.477   3.640  1.05122E+00  9.96994E-01  5.42291E-02
    9038.856     45.592   3.680  1.05608E+00  9.95619E-01  6.04580E-02
    9039.984     46.720   3.720  1.06142E+00  9.94299E-01  6.71186E-02
    9041.124     47.860   3.760  1.06703E+00  9.93080E-01  7.39480E-02
    9042.276     49.012   3.800  1.07221E+00  9.91922E-01  8.02873E-02
    9043.441     50.176   3.840  1.07615E+00  9.90867E-01  8.52834E-02
    9044.617     51.353   3.880  1.07817E+00  9.89897E-01  8.82760E-02
    9045.806     52.541   3.920  1.07795E+00  9.89035E-01  8.89189E-02
    9047.007     53.742   3.960  1.07533E+00  9.88236E-01  8.70933E-02
    9048.220     54.955   4.000  1.07032E+00  9.87545E-01  8.27711E-02
    9049.445     56.181   4.040  1.06302E+00  9.86961E-01  7.60573E-02
    9050.683     57.418   4.080  1.05348E+00  9.86442E-01  6.70426E-02
    9051.932     58.668   4.120  1.04193E+00  9.86029E-01  5.58974E-02
    9053.194     59.930   4.160  1.02866E+00  9.85704E-01  4.29521E-02
    9054.468     61.204   4.200  1.01422E+00  9.85486E-01  2.87374E-02
    9055.755     62.490   4.240  9.99211E-01  9.85353E-01  1.38581E-02
    9057.053     63.789   4.280  9.84272E-01  9.85302E-01 -1.03015E-03
    9058.364     65.099   4.320  9.69999E-01  9.85333E-01 -1.53336E-02
    9059.686     66.422   4.360  9.56866E-01  9.85444E-01 -2.85783E-02
    9061.021     67.757   4.400  9.45260E-01  9.85636E-01 -4.03759E-02
    9062.369     69.104   4.440  9.35478E-01  9.85904E-01 -5.04263E-02
    9063.728     70.464   4.480  9.27708E-01  9.86248E-01 -5.85399E-02
    9065.100     71.835   4.520  9.22105E-01  9.86644E-01 -6.45395E-02
    9066.483     73.219   4.560  9.18886E-01  9.87111E-01 -6.82242E-02
    9067.879     74.615   4.600  9.18236E-01  9.87627E-01 -6.93911E-02
    9069.288     76.023   4.640  9.20343E-01  9.88211E-01 -6.78682E-02
    9070.708     77.444   4.680  9.25235E-01  9.88838E-01 -6.36036E-02
    9072.140     78.876   4.720  9.32653E-01  9.89506E-01 -5.68537E-02
    9073.585     80.321   4.760  9.42123E-01  9.90211E-01 -4.80878E-02
    9075.042     81.778   4.800  9.53006E-01  9.90928E-01 -3.79215E-02
    9076.511     83.247   4.840  9.64664E-01  9.91678E-01 -2.70144E-02
    9077.993     84.728   4.880  9.76500E-01  9.92459E-01 -1.59595E-02
    9079.486     86.222   4.920  9.87959E-01  9.93246E-01 -5.28677E-03
    9080.992     87.727   4.960  9.98550E-01  9.94035E-01  4.51502E-03
    9082.510     89.245   5.000  1.00782E+00  9.94823E-01  1.29942E-02
    9084.040     90.775   5.040  1.01530E+00  9.95609E-01  1.96889E-02
    9085.582     92.318   5.080  1.02058E+00  9.96389E-01  2.41928E-02
    9087.137     93.872   5.120  1.02337E+00  9.97140E-01  2.62348E-02
    9088.703     95.439   5.160  1.02365E+00  9.97880E-01  2.57722E-02
    9090.282     97.018   5.200  1.02157E+00  9.98585E-01  2.29884E-02
    9091.873     98.609   5.240  1.01741E+00  9.99253E-01  1.81592E-02
    9093.476    100.212   5.280  1.01142E+00  9.99905E-01  1.15164E-02
    9095.092    101.827   5.320  1.00377E+00  1.00049E+00  3.27364E-03
    9096.719    103.455   5.360  9.94859E-01  1.00106E+00 -6.20435E-03
    9098.359    105.095   5.400  9.85316E-01  1.00156E+00 -1.62492E-02
    9100.011    106.747   5.440  9.76115E-01  1.00202E+00 -2.59041E-02
    9101.675    108.411   5.480  9.68369E-01  1.00240E+00 -3.40322E-02
    9103.352    110.087   5.520  9.63224E-01  1.00273E+00 -3.95100E-02
    9105.040    111.776   5.560  9.61504E-01  1.00300E+00 -4.14914E-02
    9106.741    113.477   5.600  9.63657E-01  1.00320E+00 -3.95471E-02
    9108.454    115.190   5.640  9.69634E-01  1.00334E+00 -3.37063E-02
    9110.179    116.915   5.680  9.78972E-01  1.00340E+00 -2.44276E-02
    9111.917    118.652   5.720  9.90885E-01  1.00341E+00 -1.25230E-02
    9113.666    120.402   5.760  1.00432E+00  1.00334E+00  9.71402E-04
    9115.428    122.164   5.800  1.01820E+00  1.00323E+00  1.49704E-02
    9117.202    123.938   5.840  1.03150E+00  1.00302E+00  2.84869E-02
    9118.988    125.724   5.880  1.04342E+00  1.00275E+00  4.06683E-02
    9120.786    127.522   5.920  1.05317E+00  1.00244E+00  5.07283E-02
    9122.597    129.332   5.960  1.05986E+00  1.00206E+00  5.78032E-02
    9124.420    131.155   6.000  1.06249E+00  1.00155E+00  6.09378E-02
