# # comment:                                                     FEFF 9.9.1  
# # Source:
# # Structure
# # Reduced
# # space
# # abc:
# # angles:
# # sites:
# # POT  SCF 100  7.0000   0, screened core-hole, AFOLP (folp(0)= 1.150)
# # Abs   Z=29 Rmt= 1.136 Rnm= 1.257 K  shell
# # Pot 1 Z=56 Rmt= 1.956 Rnm= 2.021
# # Pot 2 Z=29 Rmt= 1.172 Rnm= 1.271
# # Pot 3 Z= 8 Rmt= 1.075 Rnm= 1.127
# # Gam_ch=1.729E+00 H-L exch Vi= 0.000E+00 Vr= 0.000E+00
# # Mu=-9.255E+00eV kf=1.960E+00 Vint=-1.716E+01eV Rs_int= 1.851
# FMS rfms= 9.0000
# # PATH  Rmax=-1.000,  Keep_limit= 0.00, Heap_limit 0.00  Pwcrit= 2.50%
#  S02=0.950  Temp=   0.00  Debye_temp=   0.00  Global_sig2= 0.00000
#  Energy zero shift, vr, vi    0.00000E+00   0.00000E+00
#  Curved wave amplitude ratio filter   4.000%
#     file         sig2 tot  cw amp ratio   deg  nlegs   reff  inp sig2
#     0/   0 paths used
#  xsedge+ 50, used to normalize mu           2.4393E-04
#  -----------------------------------------------------------------------
#  omega    e    k    mu    mu0     chi     @#
    8985.039    -13.065  -1.000  3.62217E-02  5.53267E-02 -1.91050E-02
    8985.338    -12.766  -0.960  3.82407E-02  5.93310E-02 -2.10904E-02
    8985.625    -12.480  -0.920  4.04545E-02  6.37767E-02 -2.33222E-02
    8985.899    -12.205  -0.880  4.28931E-02  6.87280E-02 -2.58350E-02
    8986.161    -11.943  -0.840  4.55921E-02  7.42600E-02 -2.86679E-02
    8986.411    -11.693  -0.800  4.85933E-02  8.04591E-02 -3.18658E-02
    8986.649    -11.456  -0.760  5.19458E-02  8.74248E-02 -3.54789E-02
    8986.874    -11.230  -0.720  5.57060E-02  9.52691E-02 -3.95630E-02
    8987.088    -11.017  -0.680  5.99373E-02  1.04115E-01 -4.41781E-02
    8987.289    -10.816  -0.640  6.47076E-02  1.14094E-01 -4.93861E-02
    8987.478    -10.627  -0.600  7.00855E-02  1.25331E-01 -5.52459E-02
    8987.654    -10.450  -0.560  7.61315E-02  1.37937E-01 -6.18055E-02
    8987.819    -10.285  -0.520  8.28850E-02  1.51975E-01 -6.90897E-02
    8987.971    -10.133  -0.480  9.03463E-02  1.67429E-01 -7.70827E-02
    8988.112     -9.993  -0.440  9.84547E-02  1.84165E-01 -8.57099E-02
    8988.240     -9.865  -0.400  1.07070E-01  2.01892E-01 -9.48215E-02
    8988.356     -9.749  -0.360  1.15968E-01  2.20157E-01 -1.04189E-01
    8988.459     -9.645  -0.320  1.24849E-01  2.38368E-01 -1.13519E-01
    8988.551     -9.554  -0.280  1.33383E-01  2.55870E-01 -1.22488E-01
    8988.630     -9.474  -0.240  1.41248E-01  2.72031E-01 -1.30783E-01
    8988.697     -9.407  -0.200  1.48180E-01  2.86319E-01 -1.38139E-01
    8988.752     -9.353  -0.160  1.53993E-01  2.98344E-01 -1.44351E-01
    8988.794     -9.310  -0.120  1.58580E-01  3.07856E-01 -1.49276E-01
    8988.825     -9.279  -0.080  1.61890E-01  3.14712E-01 -1.52822E-01
    8988.849     -9.255   0.000  1.64579E-01  3.20223E-01 -1.55644E-01
    8988.904     -9.200   0.120  1.70282E-01  3.32663E-01 -1.62381E-01
    8988.947     -9.157   0.160  1.74657E-01  3.42332E-01 -1.67675E-01
    8989.002     -9.103   0.200  1.80139E-01  3.54686E-01 -1.74547E-01
    8989.069     -9.036   0.240  1.86567E-01  3.69570E-01 -1.83003E-01
    8989.148     -8.956   0.280  1.93688E-01  3.86701E-01 -1.93013E-01
    8989.239     -8.865   0.320  2.01078E-01  4.05646E-01 -2.04568E-01
    8989.343     -8.761   0.360  2.08233E-01  4.25907E-01 -2.17675E-01
    8989.459     -8.645   0.400  2.14459E-01  4.46892E-01 -2.32433E-01
    8989.587     -8.517   0.440  2.18986E-01  4.68095E-01 -2.49110E-01
    8989.727     -8.377   0.480  2.21063E-01  4.89146E-01 -2.68083E-01
    8989.880     -8.225   0.520  2.20111E-01  5.09733E-01 -2.89621E-01
    8990.044     -8.060   0.560  2.16258E-01  5.29759E-01 -3.13501E-01
    8990.221     -7.883   0.600  2.10405E-01  5.49170E-01 -3.38766E-01
    8990.410     -7.694   0.640  2.04228E-01  5.68040E-01 -3.63812E-01
    8990.611     -7.493   0.680  1.99500E-01  5.86395E-01 -3.86895E-01
    8990.824     -7.280   0.720  1.97852E-01  6.04355E-01 -4.06503E-01
    8991.050     -7.054   0.760  2.00319E-01  6.21956E-01 -4.21637E-01
    8991.288     -6.817   0.800  2.07619E-01  6.39287E-01 -4.31668E-01
    8991.538     -6.567   0.840  2.20122E-01  6.56402E-01 -4.36281E-01
    8991.800     -6.305   0.880  2.38031E-01  6.73343E-01 -4.35312E-01
    8992.074     -6.030   0.920  2.61400E-01  6.90094E-01 -4.28694E-01
    8992.361     -5.744   0.960  2.90257E-01  7.06712E-01 -4.16455E-01
    8992.659     -5.445   1.000  3.23585E-01  7.23140E-01 -3.99555E-01
    8992.970     -5.134   1.040  3.58413E-01  7.39414E-01 -3.81002E-01
    8993.293     -4.811   1.080  3.90523E-01  7.55483E-01 -3.64960E-01
    8993.629     -4.476   1.120  4.17698E-01  7.71349E-01 -3.53652E-01
    8993.976     -4.128   1.160  4.40058E-01  7.86949E-01 -3.46891E-01
    8994.336     -3.769   1.200  4.57505E-01  8.02277E-01 -3.44772E-01
    8994.708     -3.397   1.240  4.69974E-01  8.17284E-01 -3.47310E-01
    8995.092     -3.013   1.280  4.79879E-01  8.31939E-01 -3.52060E-01
    8995.488     -2.616   1.320  4.91279E-01  8.46191E-01 -3.54912E-01
    8995.896     -2.208   1.360  5.07362E-01  8.60029E-01 -3.52667E-01
    8996.317     -1.787   1.400  5.28445E-01  8.73399E-01 -3.44954E-01
    8996.750     -1.355   1.440  5.52618E-01  8.86290E-01 -3.33672E-01
    8997.195     -0.910   1.480  5.81115E-01  8.98674E-01 -3.17559E-01
    8997.652     -0.452   1.520  6.19736E-01  9.10520E-01 -2.90784E-01
    8998.121      0.017   1.560  6.66650E-01  9.21798E-01 -2.55147E-01
    8998.603      0.499   1.600  7.07806E-01  9.32483E-01 -2.24676E-01
    8999.097      0.992   1.640  7.37608E-01  9.42611E-01 -2.05003E-01
    8999.603      1.498   1.680  7.64874E-01  9.52119E-01 -1.87245E-01
    9000.121      2.016   1.720  7.99237E-01  9.61024E-01 -1.61787E-01
    9000.651      2.547   1.760  8.51260E-01  9.69328E-01 -1.18068E-01
    9001.194      3.089   1.800  9.32806E-01  9.77012E-01 -4.42065E-02
    9001.748      3.644   1.840  1.05634E+00  9.84122E-01  7.22210E-02
    9002.315      4.211   1.880  1.22229E+00  9.90620E-01  2.31666E-01
    9002.894      4.790   1.920  1.39415E+00  9.96556E-01  3.97599E-01
    9003.486      5.381   1.960  1.51193E+00  1.00192E+00  5.10013E-01
    9004.089      5.985   2.000  1.54576E+00  1.00675E+00  5.39013E-01
    9004.705      6.601   2.040  1.50945E+00  1.01103E+00  4.98424E-01
    9005.333      7.229   2.080  1.43122E+00  1.01482E+00  4.16397E-01
    9005.973      7.869   2.120  1.34312E+00  1.01812E+00  3.24998E-01
    9006.625      8.521   2.160  1.27542E+00  1.02094E+00  2.54484E-01
    9007.290      9.185   2.200  1.23754E+00  1.02334E+00  2.14193E-01
    9007.966      9.862   2.240  1.21840E+00  1.02531E+00  1.93081E-01
    9008.655     10.551   2.280  1.20418E+00  1.02690E+00  1.77280E-01
    9009.356     11.252   2.320  1.19033E+00  1.02812E+00  1.62215E-01
    9010.069     11.965   2.360  1.18142E+00  1.02900E+00  1.52424E-01
    9010.795     12.691   2.400  1.18388E+00  1.02955E+00  1.54327E-01
    9011.532     13.428   2.440  1.18825E+00  1.02984E+00  1.58408E-01
    9012.282     14.178   2.480  1.19223E+00  1.02984E+00  1.62384E-01
    9013.044     14.940   2.520  1.19453E+00  1.02960E+00  1.64927E-01
    9013.818     15.714   2.560  1.19238E+00  1.02917E+00  1.63208E-01
    9014.605     16.501   2.600  1.18442E+00  1.02851E+00  1.55902E-01
    9015.403     17.299   2.640  1.17124E+00  1.02768E+00  1.43551E-01
    9016.214     18.110   2.680  1.15361E+00  1.02671E+00  1.26895E-01
    9017.037     18.933   2.720  1.13200E+00  1.02559E+00  1.06406E-01
    9017.872     19.768   2.760  1.10693E+00  1.02437E+00  8.25573E-02
    9018.720     20.615   2.800  1.07903E+00  1.02303E+00  5.59991E-02
    9019.579     21.475   2.840  1.05008E+00  1.02161E+00  2.84611E-02
    9020.451     22.347   2.880  1.02263E+00  1.02014E+00  2.48578E-03
    9021.335     23.230   2.920  9.98537E-01  1.01860E+00 -2.00629E-02
    9022.231     24.127   2.960  9.78763E-01  1.01704E+00 -3.82748E-02
    9023.139     25.035   3.000  9.63205E-01  1.01545E+00 -5.22396E-02
    9024.060     25.955   3.040  9.51049E-01  1.01387E+00 -6.28180E-02
    9024.992     26.888   3.080  9.41279E-01  1.01227E+00 -7.09860E-02
    9025.937     27.833   3.120  9.33194E-01  1.01067E+00 -7.74725E-02
    9026.894     28.790   3.160  9.26213E-01  1.00910E+00 -8.28860E-02
    9027.864     29.759   3.200  9.19713E-01  1.00757E+00 -8.78528E-02
    9028.845     30.741   3.240  9.13159E-01  1.00607E+00 -9.29114E-02
    9029.839     31.734   3.280  9.05947E-01  1.00460E+00 -9.86479E-02
    9030.844     32.740   3.320  8.97809E-01  1.00321E+00 -1.05399E-01
    9031.862     33.758   3.360  8.88952E-01  1.00185E+00 -1.12895E-01
    9032.893     34.788   3.400  8.80272E-01  1.00056E+00 -1.20286E-01
    9033.935     35.831   3.440  8.72794E-01  9.99345E-01 -1.26551E-01
    9034.990     36.885   3.480  8.67590E-01  9.98209E-01 -1.30619E-01
    9036.057     37.952   3.520  8.65527E-01  9.97151E-01 -1.31624E-01
    9037.135     39.031   3.560  8.66933E-01  9.96152E-01 -1.29220E-01
    9038.227     40.122   3.600  8.71676E-01  9.95256E-01 -1.23580E-01
    9039.330     41.226   3.640  8.79237E-01  9.94442E-01 -1.15205E-01
    9040.446     42.341   3.680  8.88869E-01  9.93711E-01 -1.04842E-01
    9041.573     43.469   3.720  8.99532E-01  9.93063E-01 -9.35301E-02
    9042.713     44.609   3.760  9.10364E-01  9.92497E-01 -8.21338E-02
    9043.865     45.761   3.800  9.20638E-01  9.92017E-01 -7.13791E-02
    9045.030     46.926   3.840  9.29844E-01  9.91643E-01 -6.17983E-02
    9046.206     48.102   3.880  9.37748E-01  9.91351E-01 -5.36030E-02
    9047.395     49.291   3.920  9.44609E-01  9.91121E-01 -4.65116E-02
    9048.596     50.492   3.960  9.51069E-01  9.90995E-01 -3.99259E-02
    9049.809     51.705   4.000  9.57872E-01  9.90952E-01 -3.30803E-02
    9051.034     52.930   4.040  9.65726E-01  9.90991E-01 -2.52645E-02
    9052.272     54.168   4.080  9.75004E-01  9.91110E-01 -1.61062E-02
    9053.521     55.417   4.120  9.85630E-01  9.91309E-01 -5.67973E-03
    9054.783     56.679   4.160  9.97228E-01  9.91588E-01  5.63943E-03
    9056.057     57.953   4.200  1.00930E+00  9.91943E-01  1.73584E-02
    9057.344     59.239   4.240  1.02131E+00  9.92351E-01  2.89557E-02
    9058.642     60.538   4.280  1.03282E+00  9.92831E-01  3.99909E-02
    9059.953     61.848   4.320  1.04352E+00  9.93362E-01  5.01542E-02
    9061.276     63.171   4.360  1.05307E+00  9.93962E-01  5.91080E-02
    9062.611     64.506   4.400  1.06110E+00  9.94610E-01  6.64924E-02
    9063.958     65.854   4.440  1.06736E+00  9.95324E-01  7.20313E-02
    9065.317     67.213   4.480  1.07171E+00  9.96060E-01  7.56447E-02
    9066.689     68.585   4.520  1.07435E+00  9.96857E-01  7.74974E-02
    9068.073     69.968   4.560  1.07576E+00  9.97672E-01  7.80869E-02
    9069.469     71.364   4.600  1.07655E+00  9.98545E-01  7.80012E-02
    9070.877     72.772   4.640  1.07708E+00  9.99429E-01  7.76508E-02
    9072.297     74.193   4.680  1.07740E+00  1.00032E+00  7.70780E-02
    9073.730     75.625   4.720  1.07716E+00  1.00124E+00  7.59119E-02
    9075.174     77.070   4.760  1.07574E+00  1.00217E+00  7.35653E-02
    9076.631     78.527   4.800  1.07278E+00  1.00313E+00  6.96563E-02
    9078.100     79.996   4.840  1.06834E+00  1.00406E+00  6.42758E-02
    9079.582     81.477   4.880  1.06300E+00  1.00501E+00  5.79857E-02
    9081.075     82.971   4.920  1.05754E+00  1.00594E+00  5.15958E-02
    9082.581     84.477   4.960  1.05265E+00  1.00686E+00  4.57854E-02
    9084.099     85.995   5.000  1.04863E+00  1.00778E+00  4.08503E-02
    9085.629     87.525   5.040  1.04533E+00  1.00866E+00  3.66735E-02
    9087.171     89.067   5.080  1.04240E+00  1.00953E+00  3.28695E-02
    9088.726     90.621   5.120  1.03932E+00  1.01034E+00  2.89883E-02
    9090.292     92.188   5.160  1.03575E+00  1.01113E+00  2.46194E-02
    9091.871     93.767   5.200  1.03134E+00  1.01191E+00  1.94269E-02
    9093.462     95.358   5.240  1.02581E+00  1.01262E+00  1.31859E-02
    9095.066     96.961   5.280  1.01917E+00  1.01329E+00  5.87629E-03
    9096.681     98.577   5.320  1.01159E+00  1.01389E+00 -2.30227E-03
    9098.309    100.204   5.360  1.00341E+00  1.01447E+00 -1.10619E-02
    9099.948    101.844   5.400  9.94653E-01  1.01498E+00 -2.03292E-02
    9101.600    103.496   5.440  9.85614E-01  1.01544E+00 -2.98307E-02
    9103.265    105.160   5.480  9.76602E-01  1.01586E+00 -3.92572E-02
    9104.941    106.837   5.520  9.67996E-01  1.01620E+00 -4.82037E-02
    9106.630    108.525   5.560  9.60184E-01  1.01646E+00 -5.62811E-02
    9108.330    110.226   5.600  9.53516E-01  1.01668E+00 -6.31629E-02
    9110.043    111.939   5.640  9.48166E-01  1.01682E+00 -6.86543E-02
    9111.769    113.664   5.680  9.44520E-01  1.01691E+00 -7.23892E-02
    9113.506    115.402   5.720  9.42910E-01  1.01693E+00 -7.40170E-02
    9115.255    117.151   5.760  9.43777E-01  1.01689E+00 -7.31157E-02
    9117.017    118.913   5.800  9.47305E-01  1.01679E+00 -6.94809E-02
    9118.791    120.687   5.840  9.53317E-01  1.01660E+00 -6.32853E-02
    9120.577    122.473   5.880  9.61313E-01  1.01637E+00 -5.50587E-02
    9122.376    124.271   5.920  9.70530E-01  1.01607E+00 -4.55386E-02
    9124.186    126.082   5.960  9.80187E-01  1.01571E+00 -3.55241E-02
    9126.009    127.904   6.000  9.89650E-01  1.01523E+00 -2.55809E-02
