# # comment:                                                     FEFF 9.9.1  
# # Source:
# # Structure
# # Reduced
# # space
# # abc:
# # angles:
# # sites:
# # POT  SCF 100  7.0000   0, screened core-hole, AFOLP (folp(0)= 1.150)
# # Abs   Z=29 Rmt= 1.316 Rnm= 1.389 K  shell
# # Pot 1 Z= 3 Rmt= 1.258 Rnm= 1.318
# # Pot 2 Z=29 Rmt= 1.367 Rnm= 1.421
# # Pot 3 Z=15 Rmt= 0.948 Rnm= 1.156
# # Pot 4 Z= 8 Rmt= 0.931 Rnm= 1.033
# # Gam_ch=1.729E+00 H-L exch Vi= 0.000E+00 Vr= 0.000E+00
# # Mu=-6.037E+00eV kf=2.390E+00 Vint=-1.713E+01eV Rs_int= 1.518
# FMS rfms= 9.0000
# # PATH  Rmax=-1.000,  Keep_limit= 0.00, Heap_limit 0.00  Pwcrit= 2.50%
#  S02=0.950  Temp=   0.00  Debye_temp=   0.00  Global_sig2= 0.00000
#  Energy zero shift, vr, vi    0.00000E+00   0.00000E+00
#  Curved wave amplitude ratio filter   4.000%
#     file         sig2 tot  cw amp ratio   deg  nlegs   reff  inp sig2
#     0/   0 paths used
#  xsedge+ 50, used to normalize mu           2.4641E-04
#  -----------------------------------------------------------------------
#  omega    e    k    mu    mu0     chi     @#
    8983.687     -9.847  -1.000  5.42308E-02  5.58503E-02 -1.61954E-03
    8983.986     -9.549  -0.960  5.81332E-02  5.99734E-02 -1.84017E-03
    8984.272     -9.262  -0.920  6.24741E-02  6.45622E-02 -2.08813E-03
    8984.546     -8.988  -0.880  6.73198E-02  6.96861E-02 -2.36632E-03
    8984.809     -8.726  -0.840  7.27481E-02  7.54260E-02 -2.67790E-03
    8985.058     -8.476  -0.800  7.88493E-02  8.18756E-02 -3.02630E-03
    8985.296     -8.238  -0.760  8.57274E-02  8.91427E-02 -3.41524E-03
    8985.522     -8.013  -0.720  9.35005E-02  9.73492E-02 -3.84874E-03
    8985.735     -7.799  -0.680  1.02299E-01  1.06630E-01 -4.33098E-03
    8985.936     -7.598  -0.640  1.12260E-01  1.17126E-01 -4.86612E-03
    8986.125     -7.409  -0.600  1.23520E-01  1.28978E-01 -5.45781E-03
    8986.302     -7.232  -0.560  1.36198E-01  1.42306E-01 -6.10829E-03
    8986.467     -7.068  -0.520  1.50364E-01  1.57181E-01 -6.81698E-03
    8986.619     -6.915  -0.480  1.66010E-01  1.73589E-01 -7.57845E-03
    8986.759     -6.775  -0.440  1.83004E-01  1.91385E-01 -8.38010E-03
    8986.887     -6.647  -0.400  2.01056E-01  2.10256E-01 -9.20048E-03
    8987.003     -6.531  -0.360  2.19704E-01  2.29713E-01 -1.00093E-02
    8987.107     -6.428  -0.320  2.38345E-01  2.49115E-01 -1.07707E-02
    8987.198     -6.336  -0.280  2.56306E-01  2.67756E-01 -1.14494E-02
    8987.277     -6.257  -0.240  2.72936E-01  2.84955E-01 -1.20184E-02
    8987.344     -6.190  -0.200  2.87681E-01  3.00145E-01 -1.24642E-02
    8987.399     -6.135  -0.160  3.00126E-01  3.12915E-01 -1.27888E-02
    8987.442     -6.092  -0.120  3.09995E-01  3.23003E-01 -1.30082E-02
    8987.472     -6.062  -0.080  3.17118E-01  3.30266E-01 -1.31484E-02
    8987.497     -6.037   0.000  3.22827E-01  3.36100E-01 -1.32734E-02
    8987.552     -5.983   0.120  3.35669E-01  3.49250E-01 -1.35811E-02
    8987.594     -5.940   0.160  3.45768E-01  3.59445E-01 -1.36775E-02
    8987.649     -5.885   0.200  3.58775E-01  3.72444E-01 -1.36690E-02
    8987.716     -5.818   0.240  3.74630E-01  3.88075E-01 -1.34451E-02
    8987.796     -5.739   0.280  3.93087E-01  4.05963E-01 -1.28755E-02
    8987.887     -5.647   0.320  4.13844E-01  4.25645E-01 -1.18012E-02
    8987.991     -5.544   0.360  4.36404E-01  4.46525E-01 -1.01210E-02
    8988.106     -5.428   0.400  4.60017E-01  4.67931E-01 -7.91413E-03
    8988.234     -5.300   0.440  4.83625E-01  4.89326E-01 -5.70038E-03
    8988.375     -5.160   0.480  5.05509E-01  5.10224E-01 -4.71502E-03
    8988.527     -5.007   0.520  5.23293E-01  5.30346E-01 -7.05317E-03
    8988.692     -4.843   0.560  5.34324E-01  5.49560E-01 -1.52369E-02
    8988.868     -4.666   0.600  5.36830E-01  5.67838E-01 -3.10083E-02
    8989.057     -4.477   0.640  5.31305E-01  5.85225E-01 -5.39201E-02
    8989.259     -4.276   0.680  5.20926E-01  6.01848E-01 -8.09217E-02
    8989.472     -4.062   0.720  5.10319E-01  6.17812E-01 -1.07493E-01
    8989.698     -3.837   0.760  5.03964E-01  6.33220E-01 -1.29256E-01
    8989.935     -3.599   0.800  5.05192E-01  6.48142E-01 -1.42950E-01
    8990.185     -3.349   0.840  5.15941E-01  6.62720E-01 -1.46779E-01
    8990.447     -3.087   0.880  5.36009E-01  6.76978E-01 -1.40969E-01
    8990.722     -2.813   0.920  5.62541E-01  6.91006E-01 -1.28466E-01
    8991.008     -2.526   0.960  5.90551E-01  7.04820E-01 -1.14269E-01
    8991.307     -2.227   1.000  6.15837E-01  7.18445E-01 -1.02608E-01
    8991.618     -1.917   1.040  6.37222E-01  7.31937E-01 -9.47151E-02
    8991.941     -1.593   1.080  6.55608E-01  7.45262E-01 -8.96539E-02
    8992.276     -1.258   1.120  6.71493E-01  7.58438E-01 -8.69448E-02
    8992.624     -0.911   1.160  6.85135E-01  7.71461E-01 -8.63254E-02
    8992.983     -0.551   1.200  7.00135E-01  7.84339E-01 -8.42040E-02
    8993.355     -0.179   1.240  7.21655E-01  7.97015E-01 -7.53604E-02
    8993.739      0.205   1.280  7.52496E-01  8.09533E-01 -5.70368E-02
    8994.135      0.601   1.320  7.93172E-01  8.21829E-01 -2.86575E-02
    8994.544      1.010   1.360  8.40720E-01  8.33881E-01  6.83903E-03
    8994.964      1.430   1.400  8.90102E-01  8.45707E-01  4.43955E-02
    8995.397      1.863   1.440  9.40695E-01  8.57258E-01  8.34366E-02
    8995.842      2.308   1.480  9.95552E-01  8.68528E-01  1.27024E-01
    8996.299      2.765   1.520  1.05350E+00  8.79470E-01  1.74026E-01
    8996.769      3.235   1.560  1.10651E+00  8.90079E-01  2.16429E-01
    8997.250      3.716   1.600  1.15070E+00  9.00346E-01  2.50351E-01
    8997.744      4.210   1.640  1.18996E+00  9.10225E-01  2.79734E-01
    8998.250      4.716   1.680  1.21924E+00  9.19731E-01  2.99508E-01
    8998.768      5.234   1.720  1.22241E+00  9.28837E-01  2.93577E-01
    8999.299      5.764   1.760  1.19491E+00  9.37541E-01  2.57372E-01
    8999.841      6.307   1.800  1.15077E+00  9.45818E-01  2.04957E-01
    9000.396      6.862   1.840  1.10853E+00  9.53643E-01  1.54885E-01
    9000.963      7.429   1.880  1.07624E+00  9.61055E-01  1.15186E-01
    9001.542      8.008   1.920  1.05506E+00  9.68014E-01  8.70493E-02
    9002.133      8.599   1.960  1.04636E+00  9.74538E-01  7.18221E-02
    9002.737      9.203   2.000  1.04690E+00  9.80607E-01  6.62952E-02
    9003.353      9.818   2.040  1.04851E+00  9.86226E-01  6.22815E-02
    9003.980     10.446   2.080  1.04864E+00  9.91415E-01  5.72243E-02
    9004.620     11.086   2.120  1.05096E+00  9.96179E-01  5.47833E-02
    9005.273     11.738   2.160  1.05581E+00  1.00050E+00  5.53038E-02
    9005.937     12.403   2.200  1.05913E+00  1.00443E+00  5.47012E-02
    9006.614     13.080   2.240  1.05689E+00  1.00795E+00  4.89403E-02
    9007.303     13.768   2.280  1.04928E+00  1.01106E+00  3.82205E-02
    9008.004     14.469   2.320  1.04054E+00  1.01380E+00  2.67405E-02
    9008.717     15.183   2.360  1.03458E+00  1.01618E+00  1.83932E-02
    9009.442     15.908   2.400  1.03001E+00  1.01821E+00  1.17977E-02
    9010.180     16.646   2.440  1.02300E+00  1.01991E+00  3.09270E-03
    9010.930     17.396   2.480  1.01273E+00  1.02128E+00 -8.54692E-03
    9011.692     18.158   2.520  1.00064E+00  1.02235E+00 -2.17091E-02
    9012.466     18.932   2.560  9.89347E-01  1.02314E+00 -3.37897E-02
    9013.252     19.718   2.600  9.82837E-01  1.02367E+00 -4.08306E-02
    9014.051     20.517   2.640  9.83728E-01  1.02395E+00 -4.02222E-02
    9014.862     21.327   2.680  9.89977E-01  1.02399E+00 -3.40160E-02
    9015.685     22.150   2.720  9.96033E-01  1.02383E+00 -2.77942E-02
    9016.520     22.986   2.760  9.99552E-01  1.02346E+00 -2.39082E-02
    9017.367     23.833   2.800  1.00337E+00  1.02294E+00 -1.95670E-02
    9018.227     24.692   2.840  1.00519E+00  1.02224E+00 -1.70557E-02
    9019.098     25.564   2.880  1.00273E+00  1.02141E+00 -1.86740E-02
    9019.982     26.448   2.920  9.97719E-01  1.02044E+00 -2.27249E-02
    9020.878     27.344   2.960  9.92624E-01  1.01936E+00 -2.67409E-02
    9021.787     28.252   3.000  9.88419E-01  1.01820E+00 -2.97766E-02
    9022.707     29.173   3.040  9.84907E-01  1.01694E+00 -3.20356E-02
    9023.640     30.106   3.080  9.81643E-01  1.01564E+00 -3.39927E-02
    9024.585     31.050   3.120  9.78420E-01  1.01426E+00 -3.58406E-02
    9025.542     32.008   3.160  9.75212E-01  1.01284E+00 -3.76299E-02
    9026.511     32.977   3.200  9.71821E-01  1.01141E+00 -3.95851E-02
    9027.493     33.958   3.240  9.68061E-01  1.00994E+00 -4.18805E-02
    9028.486     34.952   3.280  9.63945E-01  1.00847E+00 -4.45248E-02
    9029.492     35.958   3.320  9.59850E-01  1.00700E+00 -4.71493E-02
    9030.510     36.976   3.360  9.56651E-01  1.00556E+00 -4.89044E-02
    9031.540     38.006   3.400  9.55289E-01  1.00412E+00 -4.88307E-02
    9032.583     39.048   3.440  9.56430E-01  1.00272E+00 -4.62885E-02
    9033.637     40.103   3.480  9.60163E-01  1.00135E+00 -4.11919E-02
    9034.704     41.170   3.520  9.66125E-01  1.00003E+00 -3.39066E-02
    9035.783     42.249   3.560  9.73600E-01  9.98751E-01 -2.51511E-02
    9036.874     43.340   3.600  9.81726E-01  9.97517E-01 -1.57909E-02
    9037.978     44.443   3.640  9.89802E-01  9.96375E-01 -6.57290E-03
    9039.093     45.559   3.680  9.97204E-01  9.95264E-01  1.93992E-03
    9040.221     46.687   3.720  1.00356E+00  9.94248E-01  9.30979E-03
    9041.361     47.827   3.760  1.00853E+00  9.93287E-01  1.52422E-02
    9042.513     48.979   3.800  1.01197E+00  9.92404E-01  1.95699E-02
    9043.677     50.143   3.840  1.01388E+00  9.91622E-01  2.22550E-02
    9044.854     51.320   3.880  1.01432E+00  9.90897E-01  2.34260E-02
    9046.043     52.508   3.920  1.01355E+00  9.90251E-01  2.33033E-02
    9047.244     53.709   3.960  1.01183E+00  9.89686E-01  2.21443E-02
    9048.457     54.922   4.000  1.00946E+00  9.89202E-01  2.02573E-02
    9049.682     56.148   4.040  1.00684E+00  9.88821E-01  1.80183E-02
    9050.919     57.385   4.080  1.00429E+00  9.88498E-01  1.57926E-02
    9052.169     58.635   4.120  1.00205E+00  9.88256E-01  1.37976E-02
    9053.431     59.897   4.160  1.00016E+00  9.88116E-01  1.20466E-02
    9054.705     61.171   4.200  9.98517E-01  9.88033E-01  1.04843E-02
    9055.991     62.457   4.240  9.97143E-01  9.88027E-01  9.11591E-03
    9057.290     63.755   4.280  9.96195E-01  9.88099E-01  8.09592E-03
    9058.600     65.066   4.320  9.95944E-01  9.88248E-01  7.69630E-03
    9059.923     66.389   4.360  9.96644E-01  9.88472E-01  8.17252E-03
    9061.258     67.724   4.400  9.98358E-01  9.88744E-01  9.61314E-03
    9062.605     69.071   4.440  1.00093E+00  9.89067E-01  1.18635E-02
    9063.965     70.430   4.480  1.00397E+00  9.89459E-01  1.45155E-02
    9065.336     71.802   4.520  1.00689E+00  9.89919E-01  1.69705E-02
    9066.720     73.186   4.560  1.00904E+00  9.90402E-01  1.86415E-02
    9068.116     74.582   4.600  1.01014E+00  9.90949E-01  1.91865E-02
    9069.524     75.990   4.640  1.01017E+00  9.91538E-01  1.86331E-02
    9070.945     77.410   4.680  1.00954E+00  9.92163E-01  1.73814E-02
    9072.377     78.843   4.720  1.00884E+00  9.92801E-01  1.60409E-02
    9073.822     80.288   4.760  1.00866E+00  9.93472E-01  1.51853E-02
    9075.279     81.745   4.800  1.00936E+00  9.94176E-01  1.51801E-02
    9076.748     83.214   4.840  1.01095E+00  9.94885E-01  1.60691E-02
    9078.229     84.695   4.880  1.01320E+00  9.95597E-01  1.76055E-02
    9079.723     86.189   4.920  1.01569E+00  9.96312E-01  1.93738E-02
    9081.229     87.694   4.960  1.01794E+00  9.97047E-01  2.08919E-02
    9082.746     89.212   5.000  1.01942E+00  9.97758E-01  2.16570E-02
    9084.277     90.742   5.040  1.01972E+00  9.98463E-01  2.12590E-02
    9085.819     92.285   5.080  1.01863E+00  9.99140E-01  1.94907E-02
    9087.373     93.839   5.120  1.01620E+00  9.99829E-01  1.63739E-02
    9088.940     95.406   5.160  1.01253E+00  1.00046E+00  1.20670E-02
    9090.519     96.985   5.200  1.00785E+00  1.00108E+00  6.77108E-03
    9092.110     98.576   5.240  1.00240E+00  1.00166E+00  7.35880E-04
    9093.713    100.179   5.280  9.96485E-01  1.00221E+00 -5.72138E-03
    9095.329    101.794   5.320  9.90444E-01  1.00271E+00 -1.22634E-02
    9096.956    103.422   5.360  9.84509E-01  1.00317E+00 -1.86578E-02
    9098.596    105.062   5.400  9.78788E-01  1.00358E+00 -2.47952E-02
    9100.248    106.714   5.440  9.73320E-01  1.00395E+00 -3.06331E-02
    9101.912    108.378   5.480  9.68192E-01  1.00425E+00 -3.60620E-02
    9103.589    110.054   5.520  9.63629E-01  1.00451E+00 -4.08774E-02
    9105.277    111.743   5.560  9.59845E-01  1.00469E+00 -4.48424E-02
    9106.978    113.444   5.600  9.57020E-01  1.00482E+00 -4.78018E-02
    9108.691    115.157   5.640  9.55198E-01  1.00491E+00 -4.97080E-02
    9110.416    116.882   5.680  9.54347E-01  1.00492E+00 -5.05708E-02
    9112.153    118.619   5.720  9.54474E-01  1.00486E+00 -5.03833E-02
    9113.903    120.369   5.760  9.55683E-01  1.00475E+00 -4.90661E-02
    9115.665    122.130   5.800  9.58168E-01  1.00459E+00 -4.64266E-02
    9117.439    123.904   5.840  9.62191E-01  1.00437E+00 -4.21757E-02
    9119.225    125.691   5.880  9.68055E-01  1.00407E+00 -3.60140E-02
    9121.023    127.489   5.920  9.75914E-01  1.00373E+00 -2.78132E-02
    9122.834    129.299   5.960  9.85532E-01  1.00334E+00 -1.78057E-02
    9124.656    131.122   6.000  9.96363E-01  1.00284E+00 -6.47251E-03
