# # comment:                                                     FEFF 9.9.1  
# # Source:
# # Structure
# # Reduced
# # space
# # abc:
# # angles:
# # sites:
# # POT  SCF 100  7.0000   0, screened core-hole, AFOLP (folp(0)= 1.150)
# # Abs   Z=29 Rmt= 1.226 Rnm= 1.342 K  shell
# # Pot 1 Z=29 Rmt= 1.258 Rnm= 1.363
# # Pot 2 Z= 1 Rmt= 0.624 Rnm= 0.779
# # Pot 3 Z=16 Rmt= 0.856 Rnm= 1.107
# # Pot 4 Z= 8 Rmt= 0.934 Rnm= 1.116
# # Gam_ch=1.729E+00 H-L exch Vi= 0.000E+00 Vr= 0.000E+00
# # Mu=-5.972E+00eV kf=2.288E+00 Vint=-1.475E+01eV Rs_int= 1.585
# FMS rfms= 9.0000
# # PATH  Rmax=-1.000,  Keep_limit= 0.00, Heap_limit 0.00  Pwcrit= 2.50%
#  S02=0.950  Temp=   0.00  Debye_temp=   0.00  Global_sig2= 0.00000
#  Energy zero shift, vr, vi    0.00000E+00   0.00000E+00
#  Curved wave amplitude ratio filter   4.000%
#     file         sig2 tot  cw amp ratio   deg  nlegs   reff  inp sig2
#     0/   0 paths used
#  xsedge+ 50, used to normalize mu           2.4492E-04
#  -----------------------------------------------------------------------
#  omega    e    k    mu    mu0     chi     @#
    8983.222     -9.782  -1.000  3.76310E-02  5.43768E-02 -1.67459E-02
    8983.520     -9.483  -0.960  3.94785E-02  5.83411E-02 -1.88627E-02
    8983.807     -9.196  -0.920  4.14438E-02  6.27473E-02 -2.13034E-02
    8984.081     -8.922  -0.880  4.35364E-02  6.76602E-02 -2.41238E-02
    8984.343     -8.660  -0.840  4.57666E-02  7.31559E-02 -2.73893E-02
    8984.593     -8.410  -0.800  4.81454E-02  7.93219E-02 -3.11765E-02
    8984.831     -8.172  -0.760  5.06849E-02  8.62591E-02 -3.55741E-02
    8985.056     -7.947  -0.720  5.33977E-02  9.40812E-02 -4.06835E-02
    8985.270     -7.733  -0.680  5.62963E-02  1.02914E-01 -4.66173E-02
    8985.471     -7.532  -0.640  5.93927E-02  1.12888E-01 -5.34957E-02
    8985.660     -7.343  -0.600  6.26969E-02  1.24136E-01 -6.14389E-02
    8985.837     -7.166  -0.560  6.62139E-02  1.36767E-01 -7.05526E-02
    8986.001     -7.002  -0.520  6.99409E-02  1.50846E-01 -8.09055E-02
    8986.154     -6.849  -0.480  7.38623E-02  1.66361E-01 -9.24988E-02
    8986.294     -6.709  -0.440  7.79443E-02  1.83174E-01 -1.05230E-01
    8986.422     -6.581  -0.400  8.21311E-02  2.00993E-01 -1.18862E-01
    8986.538     -6.465  -0.360  8.63426E-02  2.19357E-01 -1.33015E-01
    8986.641     -6.362  -0.320  9.04791E-02  2.37670E-01 -1.47191E-01
    8986.733     -6.270  -0.280  9.44295E-02  2.55266E-01 -1.60837E-01
    8986.812     -6.191  -0.240  9.80831E-02  2.71509E-01 -1.73426E-01
    8986.879     -6.124  -0.200  1.01340E-01  2.85864E-01 -1.84524E-01
    8986.934     -6.069  -0.160  1.04117E-01  2.97938E-01 -1.93822E-01
    8986.977     -6.026  -0.120  1.06348E-01  3.07483E-01 -2.01135E-01
    8987.007     -5.996  -0.080  1.07986E-01  3.14359E-01 -2.06374E-01
    8987.032     -5.972   0.000  1.09341E-01  3.19883E-01 -2.10542E-01
    8987.086     -5.917   0.120  1.12389E-01  3.32339E-01 -2.19950E-01
    8987.129     -5.874   0.160  1.14764E-01  3.42025E-01 -2.27260E-01
    8987.184     -5.819   0.200  1.17857E-01  3.54393E-01 -2.36536E-01
    8987.251     -5.752   0.240  1.21682E-01  3.69258E-01 -2.47577E-01
    8987.330     -5.673   0.280  1.26270E-01  3.86323E-01 -2.60053E-01
    8987.422     -5.581   0.320  1.31699E-01  4.05172E-01 -2.73473E-01
    8987.525     -5.478   0.360  1.38002E-01  4.25249E-01 -2.87247E-01
    8987.641     -5.362   0.400  1.45227E-01  4.45959E-01 -3.00732E-01
    8987.769     -5.234   0.440  1.53473E-01  4.66779E-01 -3.13306E-01
    8987.909     -5.094   0.480  1.62837E-01  4.87283E-01 -3.24446E-01
    8988.062     -4.941   0.520  1.73388E-01  5.07232E-01 -3.33843E-01
    8988.226     -4.777   0.560  1.85171E-01  5.26466E-01 -3.41295E-01
    8988.403     -4.600   0.600  1.98255E-01  5.44953E-01 -3.46698E-01
    8988.592     -4.411   0.640  2.12853E-01  5.62770E-01 -3.49916E-01
    8988.793     -4.210   0.680  2.29546E-01  5.79968E-01 -3.50422E-01
    8989.007     -3.996   0.720  2.49258E-01  5.96635E-01 -3.47377E-01
    8989.232     -3.771   0.760  2.73042E-01  6.12878E-01 -3.39836E-01
    8989.470     -3.533   0.800  3.01488E-01  6.28770E-01 -3.27282E-01
    8989.720     -3.283   0.840  3.34549E-01  6.44355E-01 -3.09806E-01
    8989.982     -3.021   0.880  3.71557E-01  6.59702E-01 -2.88145E-01
    8990.256     -2.747   0.920  4.11053E-01  6.74825E-01 -2.63772E-01
    8990.543     -2.460   0.960  4.50940E-01  6.89767E-01 -2.38828E-01
    8990.842     -2.162   1.000  4.89304E-01  7.04543E-01 -2.15239E-01
    8991.152     -1.851   1.040  5.25086E-01  7.19115E-01 -1.94029E-01
    8991.476     -1.528   1.080  5.56714E-01  7.33520E-01 -1.76806E-01
    8991.811     -1.192   1.120  5.82307E-01  7.47727E-01 -1.65420E-01
    8992.158     -0.845   1.160  6.05778E-01  7.61700E-01 -1.55922E-01
    8992.518     -0.485   1.200  6.36773E-01  7.75462E-01 -1.38689E-01
    8992.890     -0.113   1.240  6.79045E-01  7.88950E-01 -1.09905E-01
    8993.274      0.271   1.280  7.22794E-01  8.02161E-01 -7.93667E-02
    8993.670      0.667   1.320  7.53654E-01  8.15069E-01 -6.14145E-02
    8994.079      1.075   1.360  7.70532E-01  8.27646E-01 -5.71134E-02
    8994.499      1.496   1.400  7.83306E-01  8.39866E-01 -5.65597E-02
    8994.932      1.929   1.440  7.97509E-01  8.51701E-01 -5.41917E-02
    8995.377      2.374   1.480  8.17891E-01  8.63143E-01 -4.52523E-02
    8995.834      2.831   1.520  8.51480E-01  8.74147E-01 -2.26673E-02
    8996.304      3.300   1.560  8.94047E-01  8.84727E-01  9.32013E-03
    8996.785      3.782   1.600  9.32812E-01  8.94857E-01  3.79549E-02
    8997.279      4.276   1.640  9.66849E-01  9.04513E-01  6.23353E-02
    8997.785      4.782   1.680  1.00338E+00  9.13713E-01  8.96628E-02
    8998.303      5.300   1.720  1.03961E+00  9.22413E-01  1.17198E-01
    8998.833      5.830   1.760  1.07660E+00  9.30635E-01  1.45966E-01
    8999.376      6.373   1.800  1.12157E+00  9.38378E-01  1.83189E-01
    8999.931      6.927   1.840  1.16869E+00  9.45623E-01  2.23064E-01
    9000.498      7.494   1.880  1.20859E+00  9.52395E-01  2.56198E-01
    9001.077      8.074   1.920  1.23340E+00  9.58676E-01  2.74727E-01
    9001.668      8.665   1.960  1.23877E+00  9.64512E-01  2.74255E-01
    9002.272      9.268   2.000  1.23537E+00  9.69889E-01  2.65478E-01
    9002.887      9.884   2.040  1.23338E+00  9.74814E-01  2.58565E-01
    9003.515     10.512   2.080  1.22845E+00  9.79313E-01  2.49137E-01
    9004.155     11.152   2.120  1.21562E+00  9.83393E-01  2.32226E-01
    9004.807     11.804   2.160  1.20346E+00  9.87065E-01  2.16400E-01
    9005.472     12.469   2.200  1.20463E+00  9.90378E-01  2.14252E-01
    9006.149     13.145   2.240  1.21978E+00  9.93300E-01  2.26480E-01
    9006.837     13.834   2.280  1.23923E+00  9.95881E-01  2.43353E-01
    9007.538     14.535   2.320  1.25364E+00  9.98130E-01  2.55507E-01
    9008.252     15.249   2.360  1.25139E+00  1.00008E+00  2.51308E-01
    9008.977     15.974   2.400  1.21821E+00  1.00174E+00  2.16475E-01
    9009.715     16.712   2.440  1.15710E+00  1.00314E+00  1.53963E-01
    9010.464     17.461   2.480  1.08959E+00  1.00426E+00  8.53321E-02
    9011.226     18.223   2.520  1.03552E+00  1.00514E+00  3.03742E-02
    9012.001     18.998   2.560  1.00122E+00  1.00583E+00 -4.60958E-03
    9012.787     19.784   2.600  9.79525E-01  1.00632E+00 -2.67942E-02
    9013.586     20.582   2.640  9.62384E-01  1.00661E+00 -4.42286E-02
    9014.396     21.393   2.680  9.50031E-01  1.00676E+00 -5.67314E-02
    9015.219     22.216   2.720  9.45854E-01  1.00675E+00 -6.09003E-02
    9016.055     23.051   2.760  9.45255E-01  1.00662E+00 -6.13628E-02
    9016.902     23.899   2.800  9.46419E-01  1.00636E+00 -5.99408E-02
    9017.761     24.758   2.840  9.48864E-01  1.00601E+00 -5.71471E-02
    9018.633     25.630   2.880  9.51676E-01  1.00558E+00 -5.39010E-02
    9019.517     26.514   2.920  9.53929E-01  1.00506E+00 -5.11350E-02
    9020.413     27.410   2.960  9.55079E-01  1.00450E+00 -4.94182E-02
    9021.321     28.318   3.000  9.54903E-01  1.00388E+00 -4.89805E-02
    9022.242     29.239   3.040  9.53492E-01  1.00321E+00 -4.97154E-02
    9023.175     30.171   3.080  9.51032E-01  1.00252E+00 -5.14835E-02
    9024.119     31.116   3.120  9.47348E-01  1.00181E+00 -5.44652E-02
    9025.077     32.073   3.160  9.42206E-01  1.00108E+00 -5.88773E-02
    9026.046     33.043   3.200  9.35706E-01  1.00035E+00 -6.46475E-02
    9027.027     34.024   3.240  9.28330E-01  9.99645E-01 -7.13150E-02
    9028.021     35.018   3.280  9.20624E-01  9.98942E-01 -7.83185E-02
    9029.027     36.024   3.320  9.13218E-01  9.98268E-01 -8.50509E-02
    9030.045     37.042   3.360  9.06818E-01  9.97606E-01 -9.07873E-02
    9031.075     38.072   3.400  9.01846E-01  9.96975E-01 -9.51287E-02
    9032.117     39.114   3.440  8.98591E-01  9.96361E-01 -9.77707E-02
    9033.172     40.169   3.480  8.97326E-01  9.95808E-01 -9.84826E-02
    9034.239     41.236   3.520  8.98138E-01  9.95296E-01 -9.71585E-02
    9035.318     42.315   3.560  9.00961E-01  9.94827E-01 -9.38659E-02
    9036.409     43.406   3.600  9.05701E-01  9.94423E-01 -8.87217E-02
    9037.512     44.509   3.640  9.12148E-01  9.94041E-01 -8.18932E-02
    9038.628     45.625   3.680  9.20014E-01  9.93725E-01 -7.37108E-02
    9039.756     46.752   3.720  9.28981E-01  9.93456E-01 -6.44751E-02
    9040.896     47.892   3.760  9.38882E-01  9.93255E-01 -5.43733E-02
    9042.048     49.045   3.800  9.49535E-01  9.93101E-01 -4.35657E-02
    9043.212     50.209   3.840  9.60829E-01  9.92992E-01 -3.21632E-02
    9044.389     51.385   3.880  9.72760E-01  9.92952E-01 -2.01914E-02
    9045.577     52.574   3.920  9.85256E-01  9.92958E-01 -7.70112E-03
    9046.778     53.775   3.960  9.98172E-01  9.93009E-01  5.16322E-03
    9047.991     54.988   4.000  1.01125E+00  9.93127E-01  1.81271E-02
    9049.217     56.213   4.040  1.02402E+00  9.93290E-01  3.07333E-02
    9050.454     57.451   4.080  1.03577E+00  9.93497E-01  4.22749E-02
    9051.704     58.701   4.120  1.04578E+00  9.93747E-01  5.20311E-02
    9052.966     59.962   4.160  1.05361E+00  9.94063E-01  5.95461E-02
    9054.240     61.237   4.200  1.05929E+00  9.94420E-01  6.48703E-02
    9055.526     62.523   4.240  1.06336E+00  9.94793E-01  6.85632E-02
    9056.824     63.821   4.280  1.06667E+00  9.95227E-01  7.14469E-02
    9058.135     65.132   4.320  1.06978E+00  9.95676E-01  7.41064E-02
    9059.458     66.455   4.360  1.07278E+00  9.96160E-01  7.66241E-02
    9060.793     67.790   4.400  1.07539E+00  9.96680E-01  7.87149E-02
    9062.140     69.137   4.440  1.07712E+00  9.97233E-01  7.98840E-02
    9063.499     70.496   4.480  1.07740E+00  9.97793E-01  7.96024E-02
    9064.871     71.868   4.520  1.07583E+00  9.98361E-01  7.74653E-02
    9066.255     73.252   4.560  1.07226E+00  9.98957E-01  7.33065E-02
    9067.651     74.648   4.600  1.06680E+00  9.99559E-01  6.72415E-02
    9069.059     76.056   4.640  1.05993E+00  1.00019E+00  5.97474E-02
    9070.479     77.476   4.680  1.05244E+00  1.00079E+00  5.16506E-02
    9071.912     78.909   4.720  1.04524E+00  1.00142E+00  4.38242E-02
    9073.357     80.354   4.760  1.03897E+00  1.00203E+00  3.69462E-02
    9074.814     81.810   4.800  1.03389E+00  1.00265E+00  3.12468E-02
    9076.283     83.280   4.840  1.02967E+00  1.00324E+00  2.64276E-02
    9077.764     84.761   4.880  1.02563E+00  1.00381E+00  2.18255E-02
    9079.258     86.254   4.920  1.02106E+00  1.00439E+00  1.66785E-02
    9080.763     87.760   4.960  1.01537E+00  1.00493E+00  1.04322E-02
    9082.281     89.278   5.000  1.00840E+00  1.00545E+00  2.95082E-03
    9083.811     90.808   5.040  1.00043E+00  1.00595E+00 -5.52331E-03
    9085.354     92.350   5.080  9.91935E-01  1.00642E+00 -1.44808E-02
    9086.908     93.905   5.120  9.83504E-01  1.00685E+00 -2.33410E-02
    9088.475     95.472   5.160  9.75704E-01  1.00726E+00 -3.15549E-02
    9090.054     97.050   5.200  9.68921E-01  1.00761E+00 -3.86909E-02
    9091.645     98.641   5.240  9.63429E-01  1.00795E+00 -4.45182E-02
    9093.248    100.245   5.280  9.59240E-01  1.00824E+00 -4.90026E-02
    9094.863    101.860   5.320  9.56227E-01  1.00850E+00 -5.22687E-02
    9096.491    103.488   5.360  9.54220E-01  1.00868E+00 -5.44646E-02
    9098.131    105.128   5.400  9.53109E-01  1.00885E+00 -5.57448E-02
    9099.783    106.780   5.440  9.52745E-01  1.00898E+00 -5.62355E-02
    9101.447    108.444   5.480  9.53004E-01  1.00904E+00 -5.60358E-02
    9103.123    110.120   5.520  9.53871E-01  1.00906E+00 -5.51858E-02
    9104.812    111.809   5.560  9.55376E-01  1.00906E+00 -5.36798E-02
    9106.513    113.510   5.600  9.57549E-01  1.00899E+00 -5.14394E-02
    9108.226    115.222   5.640  9.60499E-01  1.00888E+00 -4.83774E-02
    9109.951    116.948   5.680  9.64216E-01  1.00872E+00 -4.45063E-02
    9111.688    118.685   5.720  9.68520E-01  1.00853E+00 -4.00053E-02
    9113.438    120.435   5.760  9.73125E-01  1.00826E+00 -3.51386E-02
    9115.199    122.196   5.800  9.77846E-01  1.00798E+00 -3.01367E-02
    9116.973    123.970   5.840  9.82523E-01  1.00764E+00 -2.51182E-02
    9118.759    125.756   5.880  9.87176E-01  1.00729E+00 -2.01114E-02
    9120.558    127.555   5.920  9.91867E-01  1.00690E+00 -1.50334E-02
    9122.368    129.365   5.960  9.96690E-01  1.00648E+00 -9.78647E-03
    9124.191    131.188   6.000  1.00169E+00  1.00596E+00 -4.26578E-03
