# # comment:                                                     FEFF 9.9.1  
# # Source:
# # Structure
# # Reduced
# # space
# # abc:
# # angles:123.430404
# # sites:
# # POT  SCF 100  7.0000   0, screened core-hole, AFOLP (folp(0)= 1.150)
# # Abs   Z=29 Rmt= 1.261 Rnm= 1.329 K  shell
# # Pot 1 Z=31 Rmt= 1.294 Rnm= 1.385
# # Pot 2 Z=29 Rmt= 1.261 Rnm= 1.329
# # Pot 3 Z= 8 Rmt= 1.016 Rnm= 1.095
# # Gam_ch=1.729E+00 H-L exch Vi= 0.000E+00 Vr= 0.000E+00
# # Mu=-6.790E+00eV kf=2.208E+00 Vint=-1.626E+01eV Rs_int= 1.642
# FMS rfms= 9.0000
# # PATH  Rmax=-1.000,  Keep_limit= 0.00, Heap_limit 0.00  Pwcrit= 2.50%
#  S02=0.950  Temp=   0.00  Debye_temp=   0.00  Global_sig2= 0.00000
#  Energy zero shift, vr, vi    0.00000E+00   0.00000E+00
#  Curved wave amplitude ratio filter   4.000%
#     file         sig2 tot  cw amp ratio   deg  nlegs   reff  inp sig2
#     0/   0 paths used
#  xsedge+ 50, used to normalize mu           2.4667E-04
#  -----------------------------------------------------------------------
#  omega    e    k    mu    mu0     chi     @#
    8983.660    -10.600  -1.000  3.44172E-02  5.07675E-02 -1.63503E-02
    8983.958    -10.301  -0.960  3.59813E-02  5.44117E-02 -1.84304E-02
    8984.245    -10.015  -0.920  3.76346E-02  5.84598E-02 -2.08252E-02
    8984.519     -9.740  -0.880  3.93835E-02  6.29712E-02 -2.35877E-02
    8984.781     -9.478  -0.840  4.12349E-02  6.80152E-02 -2.67804E-02
    8985.031     -9.228  -0.800  4.31963E-02  7.36722E-02 -3.04759E-02
    8985.269     -8.990  -0.760  4.52756E-02  8.00342E-02 -3.47586E-02
    8985.495     -8.765  -0.720  4.74811E-02  8.72054E-02 -3.97243E-02
    8985.708     -8.552  -0.680  4.98211E-02  9.53007E-02 -4.54796E-02
    8985.909     -8.350  -0.640  5.23031E-02  1.04441E-01 -5.21380E-02
    8986.098     -8.161  -0.600  5.49329E-02  1.14746E-01 -5.98127E-02
    8986.275     -7.985  -0.560  5.77131E-02  1.26316E-01 -6.86029E-02
    8986.439     -7.820  -0.520  6.06401E-02  1.39213E-01 -7.85724E-02
    8986.592     -7.668  -0.480  6.37014E-02  1.53422E-01 -8.97204E-02
    8986.732     -7.527  -0.440  6.68717E-02  1.68819E-01 -1.01947E-01
    8986.860     -7.399  -0.400  7.01097E-02  1.85136E-01 -1.15026E-01
    8986.976     -7.284  -0.360  7.33574E-02  2.01951E-01 -1.28594E-01
    8987.080     -7.180  -0.320  7.65420E-02  2.18717E-01 -1.42174E-01
    8987.171     -7.089  -0.280  7.95822E-02  2.34824E-01 -1.55242E-01
    8987.250     -7.009  -0.240  8.23960E-02  2.49690E-01 -1.67294E-01
    8987.317     -6.942  -0.200  8.49079E-02  2.62826E-01 -1.77918E-01
    8987.372     -6.887  -0.160  8.70539E-02  2.73873E-01 -1.86819E-01
    8987.415     -6.845  -0.120  8.87821E-02  2.82604E-01 -1.93822E-01
    8987.445     -6.814  -0.080  9.00534E-02  2.88894E-01 -1.98840E-01
    8987.470     -6.790   0.000  9.11108E-02  2.93947E-01 -2.02836E-01
    8987.525     -6.735   0.120  9.35300E-02  3.05341E-01 -2.11811E-01
    8987.567     -6.692   0.160  9.53956E-02  3.14193E-01 -2.18798E-01
    8987.622     -6.637   0.200  9.78219E-02  3.25500E-01 -2.27678E-01
    8987.689     -6.570   0.240  1.00827E-01  3.39083E-01 -2.38256E-01
    8987.768     -6.491   0.280  1.04428E-01  3.54667E-01 -2.50239E-01
    8987.860     -6.400   0.320  1.08699E-01  3.71874E-01 -2.63176E-01
    8987.963     -6.296   0.360  1.13649E-01  3.90164E-01 -2.76515E-01
    8988.079     -6.180   0.400  1.19396E-01  4.09045E-01 -2.89650E-01
    8988.207     -6.052   0.440  1.26011E-01  4.27978E-01 -3.01967E-01
    8988.347     -5.912   0.480  1.33692E-01  4.46630E-01 -3.12938E-01
    8988.500     -5.760   0.520  1.42615E-01  4.64743E-01 -3.22127E-01
    8988.664     -5.595   0.560  1.52892E-01  4.82167E-01 -3.29276E-01
    8988.841     -5.418   0.600  1.64583E-01  4.98936E-01 -3.34353E-01
    8989.030     -5.229   0.640  1.77471E-01  5.15065E-01 -3.37594E-01
    8989.231     -5.028   0.680  1.91185E-01  5.30643E-01 -3.39458E-01
    8989.445     -4.815   0.720  2.05620E-01  5.45750E-01 -3.40130E-01
    8989.670     -4.589   0.760  2.21351E-01  5.60470E-01 -3.39119E-01
    8989.908     -4.351   0.800  2.39487E-01  5.74915E-01 -3.35428E-01
    8990.158     -4.101   0.840  2.60627E-01  5.89126E-01 -3.28499E-01
    8990.420     -3.839   0.880  2.83764E-01  6.03151E-01 -3.19387E-01
    8990.694     -3.565   0.920  3.06152E-01  6.17047E-01 -3.10895E-01
    8990.981     -3.279   0.960  3.25407E-01  6.30859E-01 -3.05452E-01
    8991.280     -2.980   1.000  3.42216E-01  6.44558E-01 -3.02342E-01
    8991.591     -2.669   1.040  3.60766E-01  6.58194E-01 -2.97427E-01
    8991.914     -2.346   1.080  3.85936E-01  6.71744E-01 -2.85808E-01
    8992.249     -2.011   1.120  4.20896E-01  6.85201E-01 -2.64304E-01
    8992.596     -1.663   1.160  4.67076E-01  6.98595E-01 -2.31519E-01
    8992.956     -1.303   1.200  5.23366E-01  7.11869E-01 -1.88503E-01
    8993.328     -0.932   1.240  5.82352E-01  7.25044E-01 -1.42692E-01
    8993.712     -0.548   1.280  6.32252E-01  7.38056E-01 -1.05805E-01
    8994.108     -0.151   1.320  6.69537E-01  7.50924E-01 -8.13879E-02
    8994.517      0.257   1.360  6.97826E-01  7.63602E-01 -6.57763E-02
    8994.937      0.678   1.400  7.18137E-01  7.76083E-01 -5.79454E-02
    8995.370      1.111   1.440  7.34059E-01  7.88338E-01 -5.42792E-02
    8995.815      1.556   1.480  7.54907E-01  8.00321E-01 -4.54140E-02
    8996.272      2.013   1.520  7.85196E-01  8.12064E-01 -2.68682E-02
    8996.742      2.482   1.560  8.27610E-01  8.23499E-01  4.11099E-03
    8997.223      2.964   1.600  8.91363E-01  8.34618E-01  5.67443E-02
    8997.717      3.458   1.640  9.90155E-01  8.45414E-01  1.44741E-01
    8998.223      3.963   1.680  1.12066E+00  8.55861E-01  2.64800E-01
    8998.741      4.482   1.720  1.25274E+00  8.65953E-01  3.86792E-01
    8999.271      5.012   1.760  1.36008E+00  8.75685E-01  4.84395E-01
    8999.814      5.555   1.800  1.44220E+00  8.85012E-01  5.57187E-01
    9000.369      6.109   1.840  1.50814E+00  8.93949E-01  6.14191E-01
    9000.936      6.676   1.880  1.55518E+00  9.02495E-01  6.52684E-01
    9001.515      7.255   1.920  1.56384E+00  9.10629E-01  6.53210E-01
    9002.106      7.847   1.960  1.51407E+00  9.18349E-01  5.95726E-01
    9002.710      8.450   2.000  1.41340E+00  9.25675E-01  4.87727E-01
    9003.325      9.066   2.040  1.30045E+00  9.32568E-01  3.67880E-01
    9003.953      9.694   2.080  1.20506E+00  9.39072E-01  2.65990E-01
    9004.593     10.334   2.120  1.12502E+00  9.45188E-01  1.79830E-01
    9005.246     10.986   2.160  1.05126E+00  9.50898E-01  1.00362E-01
    9005.910     11.651   2.200  9.84892E-01  9.56207E-01  2.86843E-02
    9006.587     12.327   2.240  9.30216E-01  9.61161E-01 -3.09452E-02
    9007.275     13.016   2.280  8.88214E-01  9.65724E-01 -7.75094E-02
    9007.977     13.717   2.320  8.55152E-01  9.69939E-01 -1.14787E-01
    9008.690     14.430   2.360  8.27400E-01  9.73796E-01 -1.46396E-01
    9009.415     15.156   2.400  8.09818E-01  9.77320E-01 -1.67502E-01
    9010.153     15.893   2.440  8.14360E-01  9.80518E-01 -1.66158E-01
    9010.903     16.643   2.480  8.50306E-01  9.83416E-01 -1.33110E-01
    9011.665     17.405   2.520  9.21175E-01  9.86023E-01 -6.48488E-02
    9012.439     18.179   2.560  1.01667E+00  9.88346E-01  2.83273E-02
    9013.225     18.966   2.600  1.09447E+00  9.90392E-01  1.04078E-01
    9014.024     19.764   2.640  1.10613E+00  9.92208E-01  1.13927E-01
    9014.834     20.575   2.680  1.07560E+00  9.93761E-01  8.18396E-02
    9015.657     21.398   2.720  1.03245E+00  9.95100E-01  3.73501E-02
    9016.493     22.233   2.760  9.91264E-01  9.96253E-01 -4.98925E-03
    9017.340     23.080   2.800  9.58173E-01  9.97187E-01 -3.90137E-02
    9018.199     23.940   2.840  9.34339E-01  9.97948E-01 -6.36086E-02
    9019.071     24.812   2.880  9.18017E-01  9.98564E-01 -8.05464E-02
    9019.955     25.696   2.920  9.06178E-01  9.99000E-01 -9.28216E-02
    9020.851     26.592   2.960  8.96432E-01  9.99305E-01 -1.02874E-01
    9021.760     27.500   3.000  8.87173E-01  9.99506E-01 -1.12333E-01
    9022.680     28.421   3.040  8.77742E-01  9.99567E-01 -1.21825E-01
    9023.613     29.353   3.080  8.68815E-01  9.99535E-01 -1.30720E-01
    9024.558     30.298   3.120  8.61768E-01  9.99417E-01 -1.37649E-01
    9025.515     31.255   3.160  8.57527E-01  9.99216E-01 -1.41689E-01
    9026.484     32.224   3.200  8.56647E-01  9.98938E-01 -1.42290E-01
    9027.465     33.206   3.240  8.59422E-01  9.98610E-01 -1.39188E-01
    9028.459     34.200   3.280  8.65768E-01  9.98235E-01 -1.32467E-01
    9029.465     35.205   3.320  8.75476E-01  9.97796E-01 -1.22321E-01
    9030.483     36.223   3.360  8.88278E-01  9.97340E-01 -1.09062E-01
    9031.513     37.254   3.400  9.03647E-01  9.96873E-01 -9.32260E-02
    9032.555     38.296   3.440  9.20677E-01  9.96375E-01 -7.56979E-02
    9033.610     39.351   3.480  9.38689E-01  9.95869E-01 -5.71796E-02
    9034.677     40.417   3.520  9.57061E-01  9.95336E-01 -3.82752E-02
    9035.756     41.496   3.560  9.75356E-01  9.94825E-01 -1.94695E-02
    9036.847     42.588   3.600  9.93189E-01  9.94318E-01 -1.12838E-03
    9037.950     43.691   3.640  1.01002E+00  9.93814E-01  1.62059E-02
    9039.066     44.807   3.680  1.02503E+00  9.93336E-01  3.16966E-02
    9040.194     45.934   3.720  1.03743E+00  9.92868E-01  4.45666E-02
    9041.334     47.074   3.760  1.04690E+00  9.92429E-01  5.44724E-02
    9042.486     48.226   3.800  1.05361E+00  9.92002E-01  6.16077E-02
    9043.650     49.391   3.840  1.05824E+00  9.91609E-01  6.66341E-02
    9044.827     50.567   3.880  1.06158E+00  9.91252E-01  7.03231E-02
    9046.015     51.756   3.920  1.06407E+00  9.90933E-01  7.31379E-02
    9047.216     52.957   3.960  1.06588E+00  9.90652E-01  7.52266E-02
    9048.429     54.170   4.000  1.06706E+00  9.90408E-01  7.66550E-02
    9049.655     55.395   4.040  1.06764E+00  9.90201E-01  7.74395E-02
    9050.892     56.633   4.080  1.06748E+00  9.90011E-01  7.74700E-02
    9052.142     57.882   4.120  1.06636E+00  9.89880E-01  7.64821E-02
    9053.404     59.144   4.160  1.06398E+00  9.89767E-01  7.42085E-02
    9054.678     60.418   4.200  1.06002E+00  9.89714E-01  7.03046E-02
    9055.964     61.705   4.240  1.05412E+00  9.89679E-01  6.44376E-02
    9057.262     63.003   4.280  1.04618E+00  9.89705E-01  5.64738E-02
    9058.573     64.314   4.320  1.03647E+00  9.89747E-01  4.67228E-02
    9059.896     65.636   4.360  1.02577E+00  9.89848E-01  3.59171E-02
    9061.231     66.971   4.400  1.01491E+00  9.89964E-01  2.49475E-02
    9062.578     68.319   4.440  1.00468E+00  9.90116E-01  1.45617E-02
    9063.938     69.678   4.480  9.95516E-01  9.90303E-01  5.21282E-03
    9065.309     71.050   4.520  9.87624E-01  9.90502E-01 -2.87777E-03
    9066.693     72.433   4.560  9.81112E-01  9.90734E-01 -9.62230E-03
    9068.089     73.829   4.600  9.76020E-01  9.91001E-01 -1.49812E-02
    9069.497     75.238   4.640  9.72402E-01  9.91301E-01 -1.88995E-02
    9070.917     76.658   4.680  9.70303E-01  9.91609E-01 -2.13061E-02
    9072.350     78.091   4.720  9.69745E-01  9.91924E-01 -2.21793E-02
    9073.795     79.535   4.760  9.70570E-01  9.92268E-01 -2.16981E-02
    9075.252     80.992   4.800  9.72385E-01  9.92619E-01 -2.02338E-02
    9076.721     82.461   4.840  9.74716E-01  9.92997E-01 -1.82812E-02
    9078.202     83.943   4.880  9.77219E-01  9.93378E-01 -1.61598E-02
    9079.696     85.436   4.920  9.80001E-01  9.93761E-01 -1.37603E-02
    9081.201     86.942   4.960  9.83450E-01  9.94144E-01 -1.06935E-02
    9082.719     88.460   5.000  9.87764E-01  9.94526E-01 -6.76132E-03
    9084.249     89.990   5.040  9.92526E-01  9.94904E-01 -2.37836E-03
    9085.792     91.532   5.080  9.96707E-01  9.95258E-01  1.44905E-03
    9087.346     93.087   5.120  9.99289E-01  9.95628E-01  3.66064E-03
    9088.913     94.653   5.160  9.99784E-01  9.95975E-01  3.80947E-03
    9090.492     96.232   5.200  9.98633E-01  9.96338E-01  2.29474E-03
    9092.083     97.823   5.240  9.96606E-01  9.96651E-01 -4.43910E-05
    9093.686     99.426   5.280  9.94463E-01  9.96975E-01 -2.51259E-03
    9095.301    101.042   5.320  9.92277E-01  9.97270E-01 -4.99344E-03
    9096.929    102.670   5.360  9.89584E-01  9.97532E-01 -7.94775E-03
    9098.569    104.309   5.400  9.85796E-01  9.97782E-01 -1.19863E-02
    9100.221    105.961   5.440  9.80750E-01  9.98000E-01 -1.72499E-02
    9101.885    107.626   5.480  9.75026E-01  9.98205E-01 -2.31788E-02
    9103.561    109.302   5.520  9.69470E-01  9.98376E-01 -2.89057E-02
    9105.250    110.991   5.560  9.64684E-01  9.98509E-01 -3.38244E-02
    9106.951    112.691   5.600  9.60912E-01  9.98605E-01 -3.76931E-02
    9108.664    114.404   5.640  9.58258E-01  9.98689E-01 -4.04304E-02
    9110.389    116.129   5.680  9.56917E-01  9.98735E-01 -4.18185E-02
    9112.126    117.867   5.720  9.57264E-01  9.98743E-01 -4.14795E-02
    9113.876    119.616   5.760  9.59631E-01  9.98713E-01 -3.90826E-02
    9115.638    121.378   5.800  9.63925E-01  9.98646E-01 -3.47207E-02
    9117.411    123.152   5.840  9.69494E-01  9.98540E-01 -2.90463E-02
    9119.198    124.938   5.880  9.75315E-01  9.98423E-01 -2.31078E-02
    9120.996    126.736   5.920  9.80236E-01  9.98271E-01 -1.80353E-02
    9122.806    128.547   5.960  9.83466E-01  9.98055E-01 -1.45885E-02
    9124.629    130.370   6.000  9.85344E-01  9.97806E-01 -1.24618E-02
