# # comment:                                                     FEFF 9.9.1  
# # Source:
# # Structure
# # Reduced
# # space
# # abc:
# # angles:
# # sites:
# # POT  SCF 100  7.0000   0, screened core-hole, AFOLP (folp(0)= 1.150)
# # Abs   Z=29 Rmt= 1.260 Rnm= 1.349 K  shell
# # Pot 1 Z=29 Rmt= 1.186 Rnm= 1.286
# # Pot 2 Z= 7 Rmt= 0.643 Rnm= 0.882
# # Pot 3 Z= 8 Rmt= 1.043 Rnm= 1.115
# # Gam_ch=1.729E+00 H-L exch Vi= 0.000E+00 Vr= 0.000E+00
# # Mu=-7.018E+00eV kf=2.274E+00 Vint=-1.591E+01eV Rs_int= 1.595
# FMS rfms= 9.0000
# # PATH  Rmax=-1.000,  Keep_limit= 0.00, Heap_limit 0.00  Pwcrit= 2.50%
#  S02=0.950  Temp=   0.00  Debye_temp=   0.00  Global_sig2= 0.00000
#  Energy zero shift, vr, vi    0.00000E+00   0.00000E+00
#  Curved wave amplitude ratio filter   4.000%
#     file         sig2 tot  cw amp ratio   deg  nlegs   reff  inp sig2
#     0/   0 paths used
#  xsedge+ 50, used to normalize mu           2.4659E-04
#  -----------------------------------------------------------------------
#  omega    e    k    mu    mu0     chi     @#
    8983.502    -10.828  -1.000  3.67168E-02  5.30926E-02 -1.63757E-02
    8983.801    -10.529  -0.960  3.84647E-02  5.69350E-02 -1.84703E-02
    8984.087    -10.243  -0.920  4.03174E-02  6.12038E-02 -2.08864E-02
    8984.361     -9.969  -0.880  4.22827E-02  6.59617E-02 -2.36790E-02
    8984.624     -9.706  -0.840  4.43686E-02  7.12818E-02 -2.69131E-02
    8984.873     -9.456  -0.800  4.65841E-02  7.72485E-02 -3.06644E-02
    8985.111     -9.219  -0.760  4.89386E-02  8.39590E-02 -3.50205E-02
    8985.337     -8.993  -0.720  5.14416E-02  9.15229E-02 -4.00813E-02
    8985.550     -8.780  -0.680  5.41031E-02  1.00061E-01 -4.59579E-02
    8985.751     -8.579  -0.640  5.69318E-02  1.09701E-01 -5.27688E-02
    8985.940     -8.390  -0.600  5.99347E-02  1.20567E-01 -6.06322E-02
    8986.117     -8.213  -0.560  6.31147E-02  1.32767E-01 -6.96519E-02
    8986.282     -8.048  -0.520  6.64676E-02  1.46363E-01 -7.98957E-02
    8986.434     -7.896  -0.480  6.99780E-02  1.61343E-01 -9.13645E-02
    8986.574     -7.756  -0.440  7.36152E-02  1.77573E-01 -1.03958E-01
    8986.702     -7.628  -0.400  7.73294E-02  1.94772E-01 -1.17443E-01
    8986.818     -7.512  -0.360  8.10507E-02  2.12496E-01 -1.31446E-01
    8986.922     -7.408  -0.320  8.46925E-02  2.30170E-01 -1.45477E-01
    8987.013     -7.317  -0.280  8.81602E-02  2.47152E-01 -1.58991E-01
    8987.092     -7.238  -0.240  9.13600E-02  2.62827E-01 -1.71467E-01
    8987.159     -7.170  -0.200  9.42083E-02  2.76680E-01 -1.82472E-01
    8987.214     -7.116  -0.160  9.66349E-02  2.88333E-01 -1.91698E-01
    8987.257     -7.073  -0.120  9.85847E-02  2.97545E-01 -1.98960E-01
    8987.287     -7.042  -0.080  1.00016E-01  3.04181E-01 -2.04165E-01
    8987.312     -7.018   0.000  1.01206E-01  3.09512E-01 -2.08306E-01
    8987.367     -6.963   0.120  1.03962E-01  3.21539E-01 -2.17576E-01
    8987.409     -6.921   0.160  1.06079E-01  3.30881E-01 -2.24801E-01
    8987.464     -6.866   0.200  1.08811E-01  3.42802E-01 -2.33991E-01
    8987.531     -6.799   0.240  1.12217E-01  3.57162E-01 -2.44945E-01
    8987.611     -6.719   0.280  1.16292E-01  3.73654E-01 -2.57362E-01
    8987.702     -6.628   0.320  1.21066E-01  3.91840E-01 -2.70774E-01
    8987.806     -6.524   0.360  1.26605E-01  4.11223E-01 -2.84618E-01
    8987.921     -6.408   0.400  1.32970E-01  4.31229E-01 -2.98259E-01
    8988.049     -6.280   0.440  1.40187E-01  4.51353E-01 -3.11166E-01
    8988.190     -6.140   0.480  1.48330E-01  4.71208E-01 -3.22878E-01
    8988.342     -5.988   0.520  1.57398E-01  4.90503E-01 -3.33105E-01
    8988.507     -5.823   0.560  1.67446E-01  5.09143E-01 -3.41698E-01
    8988.683     -5.646   0.600  1.78603E-01  5.27077E-01 -3.48474E-01
    8988.872     -5.457   0.640  1.91237E-01  5.44363E-01 -3.53126E-01
    8989.074     -5.256   0.680  2.05977E-01  5.61090E-01 -3.55113E-01
    8989.287     -5.043   0.720  2.23699E-01  5.77342E-01 -3.53643E-01
    8989.512     -4.817   0.760  2.45409E-01  5.93202E-01 -3.47794E-01
    8989.750     -4.580   0.800  2.72024E-01  6.08725E-01 -3.36701E-01
    8990.000     -4.330   0.840  3.04116E-01  6.24011E-01 -3.19895E-01
    8990.262     -4.068   0.880  3.41316E-01  6.39087E-01 -2.97770E-01
    8990.537     -3.793   0.920  3.81843E-01  6.53988E-01 -2.72145E-01
    8990.823     -3.507   0.960  4.22412E-01  6.68758E-01 -2.46346E-01
    8991.122     -3.208   1.000  4.59804E-01  6.83387E-01 -2.23582E-01
    8991.433     -2.897   1.040  4.93733E-01  6.97880E-01 -2.04147E-01
    8991.756     -2.574   1.080  5.28764E-01  7.12234E-01 -1.83470E-01
    8992.091     -2.239   1.120  5.72254E-01  7.26438E-01 -1.54184E-01
    8992.439     -1.891   1.160  6.28561E-01  7.40499E-01 -1.11937E-01
    8992.798     -1.532   1.200  6.95385E-01  7.54355E-01 -5.89701E-02
    8993.170     -1.160   1.240  7.62867E-01  7.68007E-01 -5.13975E-03
    8993.554     -0.776   1.280  8.14653E-01  7.81431E-01  3.32226E-02
    8993.950     -0.380   1.320  8.34965E-01  7.94598E-01  4.03669E-02
    8994.359      0.029   1.360  8.20214E-01  8.07484E-01  1.27301E-02
    8994.779      0.450   1.400  7.82882E-01  8.20081E-01 -3.71992E-02
    8995.212      0.882   1.440  7.42626E-01  8.32320E-01 -8.96937E-02
    8995.657      1.327   1.480  7.16182E-01  8.44231E-01 -1.28049E-01
    8996.114      1.785   1.520  7.11539E-01  8.55749E-01 -1.44210E-01
    8996.584      2.254   1.560  7.31190E-01  8.66865E-01 -1.35675E-01
    8997.065      2.735   1.600  7.77209E-01  8.77572E-01 -1.00363E-01
    8997.559      3.229   1.640  8.46065E-01  8.87865E-01 -4.18003E-02
    8998.065      3.735   1.680  9.27022E-01  8.97700E-01  2.93225E-02
    8998.583      4.253   1.720  1.00942E+00  9.07070E-01  1.02346E-01
    8999.114      4.784   1.760  1.09364E+00  9.15995E-01  1.77647E-01
    8999.656      5.326   1.800  1.18495E+00  9.24455E-01  2.60493E-01
    9000.211      5.881   1.840  1.27286E+00  9.32426E-01  3.40438E-01
    9000.778      6.448   1.880  1.36212E+00  9.39951E-01  4.22166E-01
    9001.357      7.027   1.920  1.47590E+00  9.46991E-01  5.28909E-01
    9001.948      7.618   1.960  1.56339E+00  9.53590E-01  6.09801E-01
    9002.552      8.222   2.000  1.52328E+00  9.59710E-01  5.63570E-01
    9003.167      8.838   2.040  1.38852E+00  9.65397E-01  4.23118E-01
    9003.795      9.465   2.080  1.26076E+00  9.70636E-01  2.90122E-01
    9004.435     10.106   2.120  1.17348E+00  9.75433E-01  1.98046E-01
    9005.088     10.758   2.160  1.11986E+00  9.79835E-01  1.40029E-01
    9005.752     11.422   2.200  1.08771E+00  9.83829E-01  1.03880E-01
    9006.429     12.099   2.240  1.06959E+00  9.87446E-01  8.21414E-02
    9007.118     12.788   2.280  1.06379E+00  9.90691E-01  7.30996E-02
    9007.819     13.489   2.320  1.06580E+00  9.93575E-01  7.22286E-02
    9008.532     14.202   2.360  1.06509E+00  9.96124E-01  6.89638E-02
    9009.257     14.927   2.400  1.05663E+00  9.98369E-01  5.82578E-02
    9009.995     15.665   2.440  1.04889E+00  1.00030E+00  4.85955E-02
    9010.745     16.415   2.480  1.04942E+00  1.00194E+00  4.74787E-02
    9011.507     17.177   2.520  1.04611E+00  1.00333E+00  4.27807E-02
    9012.281     17.951   2.560  1.01947E+00  1.00447E+00  1.50010E-02
    9013.067     18.737   2.600  9.74596E-01  1.00537E+00 -3.07723E-02
    9013.866     19.536   2.640  9.31952E-01  1.00608E+00 -7.41295E-02
    9014.677     20.347   2.680  9.09873E-01  1.00657E+00 -9.67001E-02
    9015.500     21.170   2.720  9.08271E-01  1.00691E+00 -9.86411E-02
    9016.335     22.005   2.760  9.13637E-01  1.00707E+00 -9.34285E-02
    9017.182     22.852   2.800  9.19323E-01  1.00708E+00 -8.77598E-02
    9018.042     23.712   2.840  9.24243E-01  1.00695E+00 -8.27078E-02
    9018.913     24.583   2.880  9.29399E-01  1.00672E+00 -7.73177E-02
    9019.797     25.467   2.920  9.35059E-01  1.00637E+00 -7.13104E-02
    9020.693     26.363   2.960  9.40465E-01  1.00593E+00 -6.54685E-02
    9021.602     27.272   3.000  9.44390E-01  1.00542E+00 -6.10270E-02
    9022.522     28.192   3.040  9.45842E-01  1.00484E+00 -5.90023E-02
    9023.455     29.125   3.080  9.44466E-01  1.00420E+00 -5.97358E-02
    9024.400     30.070   3.120  9.40750E-01  1.00352E+00 -6.27673E-02
    9025.357     31.027   3.160  9.35735E-01  1.00281E+00 -6.70768E-02
    9026.326     31.996   3.200  9.30705E-01  1.00205E+00 -7.13461E-02
    9027.308     32.978   3.240  9.26786E-01  1.00130E+00 -7.45165E-02
    9028.301     33.971   3.280  9.24379E-01  1.00053E+00 -7.61482E-02
    9029.307     34.977   3.320  9.23436E-01  9.99748E-01 -7.63119E-02
    9030.325     35.995   3.360  9.23591E-01  9.98992E-01 -7.54005E-02
    9031.355     37.025   3.400  9.24180E-01  9.98218E-01 -7.40374E-02
    9032.398     38.068   3.440  9.24837E-01  9.97472E-01 -7.26344E-02
    9033.452     39.122   3.480  9.25600E-01  9.96758E-01 -7.11573E-02
    9034.519     40.189   3.520  9.26845E-01  9.96056E-01 -6.92106E-02
    9035.598     41.268   3.560  9.29111E-01  9.95408E-01 -6.62976E-02
    9036.689     42.359   3.600  9.32843E-01  9.94778E-01 -6.19342E-02
    9037.793     43.463   3.640  9.38252E-01  9.94184E-01 -5.59321E-02
    9038.908     44.578   3.680  9.45210E-01  9.93628E-01 -4.84186E-02
    9040.036     45.706   3.720  9.53353E-01  9.93112E-01 -3.97588E-02
    9041.176     46.846   3.760  9.62253E-01  9.92638E-01 -3.03855E-02
    9042.328     47.998   3.800  9.71476E-01  9.92206E-01 -2.07295E-02
    9043.492     49.162   3.840  9.80838E-01  9.91836E-01 -1.09979E-02
    9044.669     50.339   3.880  9.90405E-01  9.91489E-01 -1.08426E-03
    9045.858     51.528   3.920  1.00047E+00  9.91209E-01  9.26597E-03
    9047.058     52.729   3.960  1.01120E+00  9.90993E-01  2.02079E-02
    9048.272     53.942   4.000  1.02244E+00  9.90800E-01  3.16441E-02
    9049.497     55.167   4.040  1.03389E+00  9.90668E-01  4.32244E-02
    9050.734     56.404   4.080  1.04500E+00  9.90560E-01  5.44442E-02
    9051.984     57.654   4.120  1.05543E+00  9.90514E-01  6.49114E-02
    9053.246     58.916   4.160  1.06500E+00  9.90512E-01  7.44912E-02
    9054.520     60.190   4.200  1.07366E+00  9.90572E-01  8.30850E-02
    9055.806     61.476   4.240  1.08103E+00  9.90652E-01  9.03751E-02
    9057.105     62.775   4.280  1.08654E+00  9.90769E-01  9.57755E-02
    9058.415     64.085   4.320  1.08954E+00  9.90925E-01  9.86156E-02
    9059.738     65.408   4.360  1.08969E+00  9.91119E-01  9.85754E-02
    9061.073     66.743   4.400  1.08740E+00  9.91349E-01  9.60554E-02
    9062.420     68.090   4.440  1.08352E+00  9.91615E-01  9.19008E-02
    9063.780     69.450   4.480  1.07874E+00  9.91894E-01  8.68507E-02
    9065.151     70.821   4.520  1.07337E+00  9.92206E-01  8.11601E-02
    9066.535     72.205   4.560  1.06711E+00  9.92549E-01  7.45623E-02
    9067.931     73.601   4.600  1.05944E+00  9.92903E-01  6.65379E-02
    9069.339     75.009   4.640  1.04999E+00  9.93286E-01  5.67014E-02
    9070.760     76.430   4.680  1.03856E+00  9.93674E-01  4.48845E-02
    9072.192     77.862   4.720  1.02520E+00  9.94067E-01  3.11284E-02
    9073.637     79.307   4.760  1.01029E+00  9.94484E-01  1.58114E-02
    9075.094     80.764   4.800  9.94577E-01  9.94881E-01 -3.04514E-04
    9076.563     82.233   4.840  9.79076E-01  9.95302E-01 -1.62258E-02
    9078.044     83.714   4.880  9.64764E-01  9.95723E-01 -3.09590E-02
    9079.538     85.208   4.920  9.52376E-01  9.96141E-01 -4.37649E-02
    9081.044     86.714   4.960  9.42416E-01  9.96535E-01 -5.41192E-02
    9082.561     88.232   5.000  9.35230E-01  9.96945E-01 -6.17147E-02
    9084.092     89.762   5.040  9.30801E-01  9.97326E-01 -6.65249E-02
    9085.634     91.304   5.080  9.28842E-01  9.97679E-01 -6.88371E-02
    9087.188     92.858   5.120  9.28762E-01  9.98045E-01 -6.92832E-02
    9088.755     94.425   5.160  9.29696E-01  9.98381E-01 -6.86855E-02
    9090.334     96.004   5.200  9.30930E-01  9.98685E-01 -6.77548E-02
    9091.925     97.595   5.240  9.32143E-01  9.98976E-01 -6.68329E-02
    9093.528     99.198   5.280  9.33507E-01  9.99232E-01 -6.57255E-02
    9095.144    100.814   5.320  9.35631E-01  9.99455E-01 -6.38235E-02
    9096.771    102.441   5.360  9.39316E-01  9.99664E-01 -6.03482E-02
    9098.411    104.081   5.400  9.45072E-01  9.99838E-01 -5.47669E-02
    9100.063    105.733   5.440  9.52943E-01  9.99998E-01 -4.70548E-02
    9101.727    107.397   5.480  9.62346E-01  1.00010E+00 -3.77530E-02
    9103.404    109.074   5.520  9.72503E-01  1.00018E+00 -2.76800E-02
    9105.092    110.762   5.560  9.82645E-01  1.00023E+00 -1.75831E-02
    9106.793    112.463   5.600  9.92323E-01  1.00021E+00 -7.88840E-03
    9108.506    114.176   5.640  1.00141E+00  1.00018E+00  1.23022E-03
    9110.231    115.901   5.680  1.00979E+00  1.00013E+00  9.66010E-03
    9111.968    117.639   5.720  1.01720E+00  1.00003E+00  1.71768E-02
    9113.718    119.388   5.760  1.02332E+00  9.99880E-01  2.34444E-02
    9115.480    121.150   5.800  1.02783E+00  9.99718E-01  2.81079E-02
    9117.254    122.924   5.840  1.03043E+00  9.99497E-01  3.09283E-02
    9119.040    124.710   5.880  1.03108E+00  9.99265E-01  3.18171E-02
    9120.838    126.508   5.920  1.02986E+00  9.98998E-01  3.08626E-02
    9122.649    128.319   5.960  1.02704E+00  9.98695E-01  2.83484E-02
    9124.471    130.141   6.000  1.02283E+00  9.98334E-01  2.44938E-02
