# # comment:                                                     FEFF 9.9.1  
# # Source:
# # Structure
# # Reduced
# # space
# # abc:
# # angles:
# # sites:
# # POT  SCF 100  7.0000   0, screened core-hole, AFOLP (folp(0)= 1.150)
# # Abs   Z=29 Rmt= 1.125 Rnm= 1.257 K  shell
# # Pot 1 Z=30 Rmt= 1.285 Rnm= 1.400
# # Pot 2 Z=29 Rmt= 1.187 Rnm= 1.271
# # Pot 3 Z= 6 Rmt= 0.672 Rnm= 0.924
# # Pot 4 Z= 8 Rmt= 1.017 Rnm= 1.121
# # Gam_ch=1.729E+00 H-L exch Vi= 0.000E+00 Vr= 0.000E+00
# # Mu=-1.049E+01eV kf=2.274E+00 Vint=-1.661E+01eV Rs_int= 1.595
# FMS rfms= 9.0000
# # PATH  Rmax=-1.000,  Keep_limit= 0.00, Heap_limit 0.00  Pwcrit= 2.50%
#  S02=0.950  Temp=   0.00  Debye_temp=   0.00  Global_sig2= 0.00000
#  Energy zero shift, vr, vi    0.00000E+00   0.00000E+00
#  Curved wave amplitude ratio filter   4.000%
#     file         sig2 tot  cw amp ratio   deg  nlegs   reff  inp sig2
#     0/   0 paths used
#  xsedge+ 50, used to normalize mu           2.4645E-04
#  -----------------------------------------------------------------------
#  omega    e    k    mu    mu0     chi     @#
    8983.902    -14.299  -1.000  2.57315E-02  4.77035E-02 -2.19720E-02
    8984.201    -14.000  -0.960  2.66620E-02  5.09196E-02 -2.42575E-02
    8984.487    -13.714  -0.920  2.76381E-02  5.44694E-02 -2.68312E-02
    8984.761    -13.440  -0.880  2.86645E-02  5.83998E-02 -2.97353E-02
    8985.024    -13.177  -0.840  2.97467E-02  6.27651E-02 -3.30185E-02
    8985.273    -12.927  -0.800  3.08914E-02  6.76280E-02 -3.67366E-02
    8985.511    -12.690  -0.760  3.21065E-02  7.30599E-02 -4.09533E-02
    8985.737    -12.464  -0.720  3.34012E-02  7.91412E-02 -4.57400E-02
    8985.950    -12.251  -0.680  3.47857E-02  8.59602E-02 -5.11745E-02
    8986.151    -12.050  -0.640  3.62710E-02  9.36092E-02 -5.73383E-02
    8986.340    -11.861  -0.600  3.78678E-02  1.02179E-01 -6.43108E-02
    8986.517    -11.684  -0.560  3.95852E-02  1.11744E-01 -7.21591E-02
    8986.682    -11.519  -0.520  4.14272E-02  1.22350E-01 -8.09224E-02
    8986.834    -11.367  -0.480  4.33898E-02  1.33981E-01 -9.05907E-02
    8986.974    -11.227  -0.440  4.54561E-02  1.46536E-01 -1.01080E-01
    8987.102    -11.099  -0.400  4.75926E-02  1.59804E-01 -1.12212E-01
    8987.218    -10.983  -0.360  4.97488E-02  1.73454E-01 -1.23705E-01
    8987.322    -10.879  -0.320  5.18609E-02  1.87054E-01 -1.35193E-01
    8987.413    -10.788  -0.280  5.38602E-02  2.00126E-01 -1.46266E-01
    8987.492    -10.709  -0.240  5.56835E-02  2.12206E-01 -1.56522E-01
    8987.559    -10.641  -0.200  5.72814E-02  2.22899E-01 -1.65618E-01
    8987.614    -10.587  -0.160  5.86212E-02  2.31914E-01 -1.73293E-01
    8987.657    -10.544  -0.120  5.96854E-02  2.39055E-01 -1.79370E-01
    8987.687    -10.513  -0.080  6.04687E-02  2.44211E-01 -1.83742E-01
    8987.712    -10.489   0.000  6.11587E-02  2.48361E-01 -1.87202E-01
    8987.767    -10.434   0.120  6.28169E-02  2.57736E-01 -1.94919E-01
    8987.809    -10.392   0.160  6.39428E-02  2.65048E-01 -2.01105E-01
    8987.864    -10.337   0.200  6.52917E-02  2.74423E-01 -2.09131E-01
    8987.931    -10.270   0.240  6.68101E-02  2.85774E-01 -2.18964E-01
    8988.011    -10.190   0.280  6.83922E-02  2.98895E-01 -2.30503E-01
    8988.102    -10.099   0.320  6.99847E-02  3.13540E-01 -2.43555E-01
    8988.206     -9.995   0.360  7.14763E-02  3.29365E-01 -2.57889E-01
    8988.321     -9.879   0.400  7.27874E-02  3.45983E-01 -2.73195E-01
    8988.449     -9.751   0.440  7.39200E-02  3.63076E-01 -2.89156E-01
    8988.590     -9.611   0.480  7.48541E-02  3.80362E-01 -3.05508E-01
    8988.742     -9.459   0.520  7.56790E-02  3.97654E-01 -3.21975E-01
    8988.907     -9.294   0.560  7.65525E-02  4.14877E-01 -3.38325E-01
    8989.083     -9.117   0.600  7.76843E-02  4.32044E-01 -3.54360E-01
    8989.272     -8.928   0.640  7.91846E-02  4.49131E-01 -3.69947E-01
    8989.474     -8.727   0.680  8.12392E-02  4.66218E-01 -3.84979E-01
    8989.687     -8.514   0.720  8.40300E-02  4.83373E-01 -3.99343E-01
    8989.912     -8.288   0.760  8.76523E-02  5.00598E-01 -4.12946E-01
    8990.150     -8.051   0.800  9.22849E-02  5.17951E-01 -4.25666E-01
    8990.400     -7.801   0.840  9.81776E-02  5.35476E-01 -4.37298E-01
    8990.662     -7.539   0.880  1.05450E-01  5.53149E-01 -4.47698E-01
    8990.937     -7.264   0.920  1.14264E-01  5.70994E-01 -4.56730E-01
    8991.223     -6.978   0.960  1.24617E-01  5.89006E-01 -4.64389E-01
    8991.522     -6.679   1.000  1.36445E-01  6.07132E-01 -4.70687E-01
    8991.833     -6.368   1.040  1.50099E-01  6.25391E-01 -4.75293E-01
    8992.156     -6.045   1.080  1.66019E-01  6.43697E-01 -4.77678E-01
    8992.491     -5.710   1.120  1.84616E-01  6.62038E-01 -4.77422E-01
    8992.839     -5.362   1.160  2.06106E-01  6.80336E-01 -4.74230E-01
    8993.198     -5.003   1.200  2.31056E-01  6.98576E-01 -4.67520E-01
    8993.570     -4.631   1.240  2.60297E-01  7.16694E-01 -4.56397E-01
    8993.954     -4.247   1.280  2.93837E-01  7.34607E-01 -4.40770E-01
    8994.350     -3.851   1.320  3.30603E-01  7.52292E-01 -4.21689E-01
    8994.759     -3.442   1.360  3.71921E-01  7.69685E-01 -3.97764E-01
    8995.179     -3.021   1.400  4.22753E-01  7.86720E-01 -3.63967E-01
    8995.612     -2.589   1.440  4.86323E-01  8.03375E-01 -3.17052E-01
    8996.057     -2.144   1.480  5.58037E-01  8.19547E-01 -2.61510E-01
    8996.514     -1.686   1.520  6.26572E-01  8.35254E-01 -2.08682E-01
    8996.984     -1.217   1.560  6.78110E-01  8.50417E-01 -1.72307E-01
    8997.465     -0.736   1.600  7.06423E-01  8.64999E-01 -1.58577E-01
    8997.959     -0.242   1.640  7.15147E-01  8.78965E-01 -1.63818E-01
    8998.465      0.264   1.680  7.13213E-01  8.92322E-01 -1.79110E-01
    8998.983      0.782   1.720  7.17547E-01  9.05020E-01 -1.87473E-01
    8999.514      1.313   1.760  7.41854E-01  9.17029E-01 -1.75175E-01
    9000.056      1.855   1.800  7.81303E-01  9.28364E-01 -1.47061E-01
    9000.611      2.410   1.840  8.19551E-01  9.39004E-01 -1.19453E-01
    9001.178      2.977   1.880  8.55090E-01  9.48947E-01 -9.38571E-02
    9001.757      3.556   1.920  8.99456E-01  9.58214E-01 -5.87587E-02
    9002.348      4.147   1.960  9.60882E-01  9.66767E-01 -5.88509E-03
    9002.952      4.751   2.000  1.04250E+00  9.74674E-01  6.78208E-02
    9003.567      5.367   2.040  1.14600E+00  9.81901E-01  1.64100E-01
    9004.195      5.994   2.080  1.26853E+00  9.88473E-01  2.80058E-01
    9004.835      6.635   2.120  1.39620E+00  9.94403E-01  4.01799E-01
    9005.488      7.287   2.160  1.49028E+00  9.99743E-01  4.90534E-01
    9006.152      7.951   2.200  1.50479E+00  1.00450E+00  5.00282E-01
    9006.829      8.628   2.240  1.45413E+00  1.00870E+00  4.45434E-01
    9007.518      9.317   2.280  1.39147E+00  1.01236E+00  3.79112E-01
    9008.219     10.018   2.320  1.34074E+00  1.01550E+00  3.25241E-01
    9008.932     10.731   2.360  1.29901E+00  1.01817E+00  2.80836E-01
    9009.657     11.456   2.400  1.25745E+00  1.02040E+00  2.37051E-01
    9010.395     12.194   2.440  1.20781E+00  1.02219E+00  1.85622E-01
    9011.145     12.944   2.480  1.15114E+00  1.02360E+00  1.27546E-01
    9011.907     13.706   2.520  1.09630E+00  1.02464E+00  7.16604E-02
    9012.681     14.480   2.560  1.05848E+00  1.02535E+00  3.31324E-02
    9013.467     15.266   2.600  1.04523E+00  1.02573E+00  1.94918E-02
    9014.266     16.065   2.640  1.05059E+00  1.02584E+00  2.47490E-02
    9015.077     16.876   2.680  1.06523E+00  1.02569E+00  3.95368E-02
    9015.900     17.699   2.720  1.07974E+00  1.02530E+00  5.44361E-02
    9016.735     18.534   2.760  1.09056E+00  1.02470E+00  6.58565E-02
    9017.582     19.381   2.800  1.09782E+00  1.02393E+00  7.38908E-02
    9018.442     20.241   2.840  1.10290E+00  1.02300E+00  7.98992E-02
    9019.313     21.112   2.880  1.10619E+00  1.02191E+00  8.42807E-02
    9020.197     21.996   2.920  1.10647E+00  1.02069E+00  8.57767E-02
    9021.093     22.892   2.960  1.10200E+00  1.01936E+00  8.26394E-02
    9022.002     23.801   3.000  1.09181E+00  1.01796E+00  7.38540E-02
    9022.922     24.721   3.040  1.07591E+00  1.01647E+00  5.94442E-02
    9023.855     25.654   3.080  1.05570E+00  1.01494E+00  4.07530E-02
    9024.800     26.599   3.120  1.03328E+00  1.01336E+00  1.99256E-02
    9025.757     27.556   3.160  1.01032E+00  1.01175E+00 -1.43708E-03
    9026.726     28.525   3.200  9.88188E-01  1.01012E+00 -2.19324E-02
    9027.708     29.507   3.240  9.67967E-01  1.00848E+00 -4.05160E-02
    9028.701     30.500   3.280  9.50047E-01  1.00685E+00 -5.68023E-02
    9029.707     31.506   3.320  9.34403E-01  1.00524E+00 -7.08410E-02
    9030.725     32.524   3.360  9.20901E-01  1.00367E+00 -8.27700E-02
    9031.755     33.554   3.400  9.09049E-01  1.00211E+00 -9.30648E-02
    9032.798     34.597   3.440  8.98585E-01  1.00062E+00 -1.02033E-01
    9033.852     35.651   3.480  8.89498E-01  9.99142E-01 -1.09645E-01
    9034.919     36.718   3.520  8.82104E-01  9.97734E-01 -1.15630E-01
    9035.998     37.797   3.560  8.76704E-01  9.96396E-01 -1.19692E-01
    9037.089     38.888   3.600  8.73600E-01  9.95107E-01 -1.21507E-01
    9038.193     39.992   3.640  8.72931E-01  9.93871E-01 -1.20940E-01
    9039.308     41.107   3.680  8.74496E-01  9.92733E-01 -1.18237E-01
    9040.436     42.235   3.720  8.77892E-01  9.91650E-01 -1.13759E-01
    9041.576     43.375   3.760  8.82808E-01  9.90666E-01 -1.07858E-01
    9042.728     44.527   3.800  8.88909E-01  9.89741E-01 -1.00832E-01
    9043.892     45.691   3.840  8.95880E-01  9.88896E-01 -9.30156E-02
    9045.069     46.868   3.880  9.03506E-01  9.88130E-01 -8.46246E-02
    9046.258     48.057   3.920  9.11637E-01  9.87466E-01 -7.58296E-02
    9047.458     49.258   3.960  9.20143E-01  9.86863E-01 -6.67198E-02
    9048.672     50.471   4.000  9.29052E-01  9.86340E-01 -5.72878E-02
    9049.897     51.696   4.040  9.38508E-01  9.85920E-01 -4.74120E-02
    9051.134     52.933   4.080  9.48524E-01  9.85560E-01 -3.70364E-02
    9052.384     54.183   4.120  9.59066E-01  9.85300E-01 -2.62333E-02
    9053.646     55.445   4.160  9.69918E-01  9.85099E-01 -1.51812E-02
    9054.920     56.719   4.200  9.80784E-01  9.84998E-01 -4.21397E-03
    9056.206     58.005   4.240  9.91103E-01  9.84953E-01  6.15089E-03
    9057.505     59.304   4.280  1.00029E+00  9.84983E-01  1.53120E-02
    9058.815     60.614   4.320  1.00791E+00  9.85088E-01  2.28225E-02
    9060.138     61.937   4.360  1.01376E+00  9.85244E-01  2.85204E-02
    9061.473     63.272   4.400  1.01811E+00  9.85473E-01  3.26336E-02
    9062.820     64.619   4.440  1.02133E+00  9.85751E-01  3.55828E-02
    9064.180     65.979   4.480  1.02383E+00  9.86101E-01  3.77319E-02
    9065.551     67.350   4.520  1.02583E+00  9.86518E-01  3.93157E-02
    9066.935     68.734   4.560  1.02747E+00  9.86959E-01  4.05160E-02
    9068.331     70.130   4.600  1.02902E+00  9.87463E-01  4.15566E-02
    9069.739     71.538   4.640  1.03070E+00  9.88009E-01  4.26911E-02
    9071.160     72.959   4.680  1.03279E+00  9.88571E-01  4.42207E-02
    9072.592     74.391   4.720  1.03553E+00  9.89191E-01  4.63371E-02
    9074.037     75.836   4.760  1.03895E+00  9.89825E-01  4.91236E-02
    9075.494     77.293   4.800  1.04311E+00  9.90493E-01  5.26190E-02
    9076.963     78.762   4.840  1.04803E+00  9.91191E-01  5.68438E-02
    9078.444     80.243   4.880  1.05363E+00  9.91876E-01  6.17542E-02
    9079.938     81.737   4.920  1.05984E+00  9.92608E-01  6.72284E-02
    9081.444     83.243   4.960  1.06619E+00  9.93324E-01  7.28659E-02
    9082.961     84.761   5.000  1.07206E+00  9.94061E-01  7.79944E-02
    9084.492     86.291   5.040  1.07655E+00  9.94774E-01  8.17717E-02
    9086.034     87.833   5.080  1.07886E+00  9.95486E-01  8.33793E-02
    9087.588     89.387   5.120  1.07847E+00  9.96214E-01  8.22559E-02
    9089.155     90.954   5.160  1.07496E+00  9.96894E-01  7.80702E-02
    9090.734     92.533   5.200  1.06842E+00  9.97586E-01  7.08329E-02
    9092.325     94.124   5.240  1.05919E+00  9.98248E-01  6.09422E-02
    9093.928     95.727   5.280  1.04797E+00  9.98876E-01  4.90899E-02
    9095.544     97.343   5.320  1.03555E+00  9.99490E-01  3.60635E-02
    9097.171     98.970   5.360  1.02264E+00  1.00007E+00  2.25667E-02
    9098.811    100.610   5.400  1.00979E+00  1.00061E+00  9.17888E-03
    9100.463    102.262   5.440  9.97385E-01  1.00111E+00 -3.72058E-03
    9102.127    103.926   5.480  9.85667E-01  1.00156E+00 -1.58967E-02
    9103.804    105.603   5.520  9.74893E-01  1.00198E+00 -2.70866E-02
    9105.492    107.291   5.560  9.65390E-01  1.00235E+00 -3.69609E-02
    9107.193    108.992   5.600  9.57410E-01  1.00266E+00 -4.52469E-02
    9108.906    110.705   5.640  9.51058E-01  1.00294E+00 -5.18819E-02
    9110.631    112.430   5.680  9.46123E-01  1.00316E+00 -5.70354E-02
    9112.368    114.168   5.720  9.42312E-01  1.00333E+00 -6.10183E-02
    9114.118    115.917   5.760  9.39339E-01  1.00346E+00 -6.41165E-02
    9115.880    117.679   5.800  9.36974E-01  1.00351E+00 -6.65382E-02
    9117.654    119.453   5.840  9.35113E-01  1.00352E+00 -6.84095E-02
    9119.440    121.239   5.880  9.33662E-01  1.00346E+00 -6.98018E-02
    9121.238    123.037   5.920  9.32763E-01  1.00338E+00 -7.06206E-02
    9123.049    124.848   5.960  9.32731E-01  1.00323E+00 -7.04961E-02
    9124.871    126.670   6.000  9.34258E-01  1.00296E+00 -6.86988E-02
