# # comment:                                                     FEFF 9.9.1  
# # Source:
# # Structure
# # Reduced
# # space
# # abc:
# # angles:
# # sites:
# # POT  SCF 100  7.0000   0, screened core-hole, AFOLP (folp(0)= 1.150)
# # Abs   Z=29 Rmt= 1.197 Rnm= 1.299 K  shell
# # Pot 1 Z=23 Rmt= 1.084 Rnm= 1.300
# # Pot 2 Z=30 Rmt= 1.301 Rnm= 1.428
# # Pot 3 Z=29 Rmt= 1.197 Rnm= 1.299
# # Pot 4 Z= 8 Rmt= 0.935 Rnm= 1.094
# # Gam_ch=1.729E+00 H-L exch Vi= 0.000E+00 Vr= 0.000E+00
# # Mu=-8.906E+00eV kf=2.249E+00 Vint=-1.728E+01eV Rs_int= 1.613
# FMS rfms= 9.0000
# # PATH  Rmax=-1.000,  Keep_limit= 0.00, Heap_limit 0.00  Pwcrit= 2.50%
#  S02=0.950  Temp=   0.00  Debye_temp=   0.00  Global_sig2= 0.00000
#  Energy zero shift, vr, vi    0.00000E+00   0.00000E+00
#  Curved wave amplitude ratio filter   4.000%
#     file         sig2 tot  cw amp ratio   deg  nlegs   reff  inp sig2
#     0/   0 paths used
#  xsedge+ 50, used to normalize mu           2.4723E-04
#  -----------------------------------------------------------------------
#  omega    e    k    mu    mu0     chi     @#
    8984.174    -12.716  -1.000  3.93749E-02  5.18933E-02 -1.25184E-02
    8984.473    -12.417  -0.960  4.18373E-02  5.55994E-02 -1.37621E-02
    8984.759    -12.130  -0.920  4.45601E-02  5.97120E-02 -1.51519E-02
    8985.034    -11.856  -0.880  4.75830E-02  6.42905E-02 -1.67076E-02
    8985.296    -11.594  -0.840  5.09525E-02  6.94040E-02 -1.84515E-02
    8985.546    -11.344  -0.800  5.47230E-02  7.51324E-02 -2.04095E-02
    8985.783    -11.106  -0.760  5.89568E-02  8.15674E-02 -2.26106E-02
    8986.009    -10.881  -0.720  6.37251E-02  8.88124E-02 -2.50874E-02
    8986.222    -10.667  -0.680  6.91064E-02  9.69813E-02 -2.78749E-02
    8986.423    -10.466  -0.640  7.51843E-02  1.06194E-01 -3.10100E-02
    8986.612    -10.277  -0.600  8.20409E-02  1.16569E-01 -3.45281E-02
    8986.789    -10.100  -0.560  8.97469E-02  1.28206E-01 -3.84589E-02
    8986.954     -9.936  -0.520  9.83447E-02  1.41164E-01 -4.28192E-02
    8987.106     -9.783  -0.480  1.07826E-01  1.55429E-01 -4.76031E-02
    8987.246     -9.643  -0.440  1.18106E-01  1.70877E-01 -5.27707E-02
    8987.374     -9.515  -0.400  1.29000E-01  1.87239E-01 -5.82385E-02
    8987.490     -9.399  -0.360  1.40221E-01  2.04096E-01 -6.38750E-02
    8987.594     -9.296  -0.320  1.51394E-01  2.20902E-01 -6.95084E-02
    8987.685     -9.204  -0.280  1.62108E-01  2.37052E-01 -7.49435E-02
    8987.765     -9.125  -0.240  1.71974E-01  2.51961E-01 -7.99871E-02
    8987.832     -9.058  -0.200  1.80671E-01  2.65141E-01 -8.44700E-02
    8987.886     -9.003  -0.160  1.87972E-01  2.76232E-01 -8.82599E-02
    8987.929     -8.960  -0.120  1.93738E-01  2.85003E-01 -9.12647E-02
    8987.960     -8.930  -0.080  1.97895E-01  2.91324E-01 -9.34296E-02
    8987.984     -8.906   0.000  2.01241E-01  2.96406E-01 -9.51647E-02
    8988.039     -8.851   0.120  2.08510E-01  3.07849E-01 -9.93391E-02
    8988.082     -8.808   0.160  2.14218E-01  3.16771E-01 -1.02552E-01
    8988.136     -8.753   0.200  2.21483E-01  3.28144E-01 -1.06661E-01
    8988.203     -8.686   0.240  2.30274E-01  3.41861E-01 -1.11587E-01
    8988.283     -8.607   0.280  2.40413E-01  3.57620E-01 -1.17206E-01
    8988.374     -8.515   0.320  2.51768E-01  3.75054E-01 -1.23286E-01
    8988.478     -8.412   0.360  2.64128E-01  3.93661E-01 -1.29533E-01
    8988.594     -8.296   0.400  2.77337E-01  4.12926E-01 -1.35589E-01
    8988.722     -8.168   0.440  2.91241E-01  4.32379E-01 -1.41139E-01
    8988.862     -8.028   0.480  3.05600E-01  4.51637E-01 -1.46037E-01
    8989.014     -7.875   0.520  3.19994E-01  4.70468E-01 -1.50475E-01
    8989.179     -7.711   0.560  3.33553E-01  4.88747E-01 -1.55194E-01
    8989.356     -7.534   0.600  3.44959E-01  5.06444E-01 -1.61485E-01
    8989.545     -7.345   0.640  3.52815E-01  5.23629E-01 -1.70814E-01
    8989.746     -7.144   0.680  3.56258E-01  5.40368E-01 -1.84111E-01
    8989.959     -6.930   0.720  3.55222E-01  5.56718E-01 -2.01496E-01
    8990.185     -6.705   0.760  3.50208E-01  5.72772E-01 -2.22564E-01
    8990.422     -6.467   0.800  3.41986E-01  5.88598E-01 -2.46612E-01
    8990.672     -6.217   0.840  3.31827E-01  6.04249E-01 -2.72422E-01
    8990.934     -5.955   0.880  3.21466E-01  6.19767E-01 -2.98301E-01
    8991.209     -5.681   0.920  3.12635E-01  6.35201E-01 -3.22566E-01
    8991.495     -5.394   0.960  3.06549E-01  6.50549E-01 -3.44000E-01
    8991.794     -5.096   1.000  3.04074E-01  6.65819E-01 -3.61745E-01
    8992.105     -4.785   1.040  3.06653E-01  6.80988E-01 -3.74335E-01
    8992.428     -4.462   1.080  3.16059E-01  6.96091E-01 -3.80031E-01
    8992.763     -4.126   1.120  3.32440E-01  7.11093E-01 -3.78652E-01
    8993.111     -3.779   1.160  3.53626E-01  7.25955E-01 -3.72329E-01
    8993.470     -3.419   1.200  3.75955E-01  7.40656E-01 -3.64701E-01
    8993.842     -3.047   1.240  3.96612E-01  7.55192E-01 -3.58580E-01
    8994.226     -2.663   1.280  4.16760E-01  7.69513E-01 -3.52753E-01
    8994.622     -2.267   1.320  4.39731E-01  7.83591E-01 -3.43860E-01
    8995.031     -1.859   1.360  4.66227E-01  7.97396E-01 -3.31169E-01
    8995.452     -1.438   1.400  4.93513E-01  8.10919E-01 -3.17406E-01
    8995.884     -1.005   1.440  5.18524E-01  8.24085E-01 -3.05561E-01
    8996.329     -0.560   1.480  5.42922E-01  8.36905E-01 -2.93983E-01
    8996.787     -0.103   1.520  5.72820E-01  8.49351E-01 -2.76530E-01
    8997.256      0.366   1.560  6.12097E-01  8.61370E-01 -2.49273E-01
    8997.738      0.848   1.600  6.61311E-01  8.72953E-01 -2.11642E-01
    8998.231      1.342   1.640  7.20516E-01  8.84093E-01 -1.63577E-01
    8998.737      1.848   1.680  7.88999E-01  8.94764E-01 -1.05765E-01
    8999.255      2.366   1.720  8.67923E-01  9.04959E-01 -3.70359E-02
    8999.786      2.896   1.760  9.56849E-01  9.14656E-01  4.21934E-02
    9000.328      3.439   1.800  1.04258E+00  9.23870E-01  1.18708E-01
    9000.883      3.994   1.840  1.10811E+00  9.32559E-01  1.75547E-01
    9001.450      4.560   1.880  1.15817E+00  9.40744E-01  2.17428E-01
    9002.029      5.140   1.920  1.21727E+00  9.48404E-01  2.68862E-01
    9002.620      5.731   1.960  1.30474E+00  9.55583E-01  3.49155E-01
    9003.224      6.334   2.000  1.41630E+00  9.62265E-01  4.54034E-01
    9003.840      6.950   2.040  1.52319E+00  9.68431E-01  5.54763E-01
    9004.467      7.578   2.080  1.57427E+00  9.74129E-01  6.00140E-01
    9005.108      8.218   2.120  1.53890E+00  9.79365E-01  5.59530E-01
    9005.760      8.870   2.160  1.45369E+00  9.84125E-01  4.69569E-01
    9006.424      9.535   2.200  1.35852E+00  9.88459E-01  3.70057E-01
    9007.101     10.211   2.240  1.26586E+00  9.92372E-01  2.73485E-01
    9007.790     10.900   2.280  1.18583E+00  9.95854E-01  1.89975E-01
    9008.491     11.601   2.320  1.12698E+00  9.98954E-01  1.28022E-01
    9009.204     12.315   2.360  1.09296E+00  1.00166E+00  9.13040E-02
    9009.929     13.040   2.400  1.08350E+00  1.00402E+00  7.94754E-02
    9010.667     13.778   2.440  1.09459E+00  1.00606E+00  8.85346E-02
    9011.417     14.527   2.480  1.11039E+00  1.00777E+00  1.02623E-01
    9012.179     15.289   2.520  1.10800E+00  1.00919E+00  9.88132E-02
    9012.953     16.064   2.560  1.08777E+00  1.01032E+00  7.74477E-02
    9013.739     16.850   2.600  1.06970E+00  1.01120E+00  5.84960E-02
    9014.538     17.648   2.640  1.05911E+00  1.01184E+00  4.72694E-02
    9015.349     18.459   2.680  1.04779E+00  1.01227E+00  3.55178E-02
    9016.172     19.282   2.720  1.03430E+00  1.01249E+00  2.18100E-02
    9017.007     20.117   2.760  1.02233E+00  1.01252E+00  9.81582E-03
    9017.854     20.965   2.800  1.01271E+00  1.01237E+00  3.33044E-04
    9018.714     21.824   2.840  1.00444E+00  1.01207E+00 -7.63485E-03
    9019.585     22.696   2.880  9.96318E-01  1.01164E+00 -1.53228E-02
    9020.469     23.580   2.920  9.87207E-01  1.01111E+00 -2.39010E-02
    9021.366     24.476   2.960  9.76227E-01  1.01044E+00 -3.42128E-02
    9022.274     25.384   3.000  9.62941E-01  1.00970E+00 -4.67627E-02
    9023.194     26.305   3.040  9.47432E-01  1.00887E+00 -6.14341E-02
    9024.127     27.237   3.080  9.30828E-01  1.00797E+00 -7.71456E-02
    9025.072     28.182   3.120  9.14457E-01  1.00703E+00 -9.25751E-02
    9026.029     29.139   3.160  8.99566E-01  1.00603E+00 -1.06462E-01
    9026.998     30.109   3.200  8.87375E-01  1.00501E+00 -1.17630E-01
    9027.980     31.090   3.240  8.78518E-01  1.00397E+00 -1.25452E-01
    9028.973     32.084   3.280  8.73047E-01  1.00291E+00 -1.29859E-01
    9029.979     33.090   3.320  8.70782E-01  1.00182E+00 -1.31034E-01
    9030.997     34.108   3.360  8.71633E-01  1.00075E+00 -1.29116E-01
    9032.027     35.138   3.400  8.75103E-01  9.99705E-01 -1.24602E-01
    9033.070     36.180   3.440  8.80847E-01  9.98647E-01 -1.17800E-01
    9034.124     37.235   3.480  8.88657E-01  9.97641E-01 -1.08984E-01
    9035.191     38.302   3.520  8.97968E-01  9.96648E-01 -9.86795E-02
    9036.270     39.381   3.560  9.07944E-01  9.95688E-01 -8.77441E-02
    9037.361     40.472   3.600  9.17647E-01  9.94745E-01 -7.70982E-02
    9038.465     41.575   3.640  9.26318E-01  9.93863E-01 -6.75445E-02
    9039.580     42.691   3.680  9.33489E-01  9.93023E-01 -5.95339E-02
    9040.708     43.819   3.720  9.39232E-01  9.92227E-01 -5.29950E-02
    9041.848     44.958   3.760  9.44159E-01  9.91496E-01 -4.73376E-02
    9043.000     46.111   3.800  9.49066E-01  9.90812E-01 -4.17463E-02
    9044.164     47.275   3.840  9.54685E-01  9.90171E-01 -3.54864E-02
    9045.341     48.451   3.880  9.61481E-01  9.89576E-01 -2.80951E-02
    9046.530     49.640   3.920  9.69454E-01  9.89050E-01 -1.95962E-02
    9047.731     50.841   3.960  9.78052E-01  9.88593E-01 -1.05406E-02
    9048.944     52.054   4.000  9.86357E-01  9.88163E-01 -1.80560E-03
    9050.169     53.279   4.040  9.93747E-01  9.87822E-01  5.92497E-03
    9051.406     54.517   4.080  1.00000E+00  9.87507E-01  1.24939E-02
    9052.656     55.767   4.120  1.00566E+00  9.87262E-01  1.84015E-02
    9053.918     57.028   4.160  1.01162E+00  9.87085E-01  2.45398E-02
    9055.192     58.303   4.200  1.01863E+00  9.86953E-01  3.16765E-02
    9056.478     59.589   4.240  1.02694E+00  9.86867E-01  4.00743E-02
    9057.777     60.887   4.280  1.03641E+00  9.86825E-01  4.95892E-02
    9059.087     62.198   4.320  1.04659E+00  9.86850E-01  5.97362E-02
    9060.410     63.521   4.360  1.05674E+00  9.86917E-01  6.98208E-02
    9061.745     64.856   4.400  1.06614E+00  9.87026E-01  7.91116E-02
    9063.092     66.203   4.440  1.07410E+00  9.87176E-01  8.69239E-02
    9064.452     67.562   4.480  1.08001E+00  9.87365E-01  9.26402E-02
    9065.823     68.934   4.520  1.08344E+00  9.87593E-01  9.58505E-02
    9067.207     70.318   4.560  1.08421E+00  9.87858E-01  9.63564E-02
    9068.603     71.714   4.600  1.08225E+00  9.88160E-01  9.40883E-02
    9070.011     73.122   4.640  1.07762E+00  9.88474E-01  8.91473E-02
    9071.432     74.542   4.680  1.07068E+00  9.88820E-01  8.18621E-02
    9072.864     75.975   4.720  1.06187E+00  9.89200E-01  7.26725E-02
    9074.309     77.420   4.760  1.05175E+00  9.89589E-01  6.21620E-02
    9075.766     78.876   4.800  1.04105E+00  9.90006E-01  5.10436E-02
    9077.235     80.346   4.840  1.03045E+00  9.90430E-01  4.00172E-02
    9078.716     81.827   4.880  1.02045E+00  9.90858E-01  2.95934E-02
    9080.210     83.320   4.920  1.01131E+00  9.91310E-01  1.99985E-02
    9081.716     84.826   4.960  1.00302E+00  9.91742E-01  1.12743E-02
    9083.234     86.344   5.000  9.95633E-01  9.92196E-01  3.43706E-03
    9084.764     87.874   5.040  9.89104E-01  9.92648E-01 -3.54351E-03
    9086.306     89.416   5.080  9.83243E-01  9.93075E-01 -9.83161E-03
    9087.860     90.971   5.120  9.77769E-01  9.93496E-01 -1.57272E-02
    9089.427     92.538   5.160  9.72369E-01  9.93913E-01 -2.15435E-02
    9091.006     94.116   5.200  9.66861E-01  9.94324E-01 -2.74626E-02
    9092.597     95.707   5.240  9.61226E-01  9.94706E-01 -3.34807E-02
    9094.200     97.311   5.280  9.55711E-01  9.95080E-01 -3.93692E-02
    9095.816     98.926   5.320  9.50754E-01  9.95442E-01 -4.46879E-02
    9097.443    100.554   5.360  9.46917E-01  9.95748E-01 -4.88305E-02
    9099.083    102.194   5.400  9.44701E-01  9.96041E-01 -5.13397E-02
    9100.735    103.846   5.440  9.44117E-01  9.96322E-01 -5.22058E-02
    9102.399    105.510   5.480  9.44672E-01  9.96544E-01 -5.18716E-02
    9104.076    107.186   5.520  9.45924E-01  9.96751E-01 -5.08272E-02
    9105.764    108.875   5.560  9.47578E-01  9.96922E-01 -4.93441E-02
    9107.465    110.576   5.600  9.49504E-01  9.97056E-01 -4.75521E-02
    9109.178    112.288   5.640  9.51534E-01  9.97173E-01 -4.56394E-02
    9110.903    114.014   5.680  9.53482E-01  9.97228E-01 -4.37459E-02
    9112.641    115.751   5.720  9.55496E-01  9.97243E-01 -4.17468E-02
    9114.390    117.501   5.760  9.58021E-01  9.97242E-01 -3.92206E-02
    9116.152    119.262   5.800  9.61510E-01  9.97181E-01 -3.56709E-02
    9117.926    121.036   5.840  9.66312E-01  9.97104E-01 -3.07926E-02
    9119.712    122.822   5.880  9.72253E-01  9.96989E-01 -2.47358E-02
    9121.510    124.621   5.920  9.78658E-01  9.96811E-01 -1.81533E-02
    9123.321    126.431   5.960  9.84624E-01  9.96618E-01 -1.19933E-02
    9125.143    128.254   6.000  9.89372E-01  9.96363E-01 -6.99095E-03
