# # comment:                                                     FEFF 9.9.1  
# # Source:
# # Structure
# # Reduced
# # space
# # abc:
# # angles:
# # sites:
# # POT  SCF 100  7.0000   0, screened core-hole, AFOLP (folp(0)= 1.150)
# # Abs   Z=29 Rmt= 1.095 Rnm= 1.362 K  shell
# # Pot 1 Z=29 Rmt= 1.107 Rnm= 1.363
# # Pot 2 Z= 7 Rmt= 1.025 Rnm= 1.275
# # Pot 3 Z= 8 Rmt= 0.635 Rnm= 0.996
# # Gam_ch=1.729E+00 H-L exch Vi= 0.000E+00 Vr= 0.000E+00
# # Mu=-7.632E+00eV kf=2.301E+00 Vint=-1.349E+01eV Rs_int= 1.576
# FMS rfms= 9.0000
# # PATH  Rmax=-1.000,  Keep_limit= 0.00, Heap_limit 0.00  Pwcrit= 2.50%
#  S02=0.950  Temp=   0.00  Debye_temp=   0.00  Global_sig2= 0.00000
#  Energy zero shift, vr, vi    0.00000E+00   0.00000E+00
#  Curved wave amplitude ratio filter   4.000%
#     file         sig2 tot  cw amp ratio   deg  nlegs   reff  inp sig2
#     0/   0 paths used
#  xsedge+ 50, used to normalize mu           2.4381E-04
#  -----------------------------------------------------------------------
#  omega    e    k    mu    mu0     chi     @#
    8983.404    -11.442  -1.000  3.64559E-02  5.18570E-02 -1.54011E-02
    8983.703    -11.144  -0.960  3.82606E-02  5.53989E-02 -1.71382E-02
    8983.989    -10.857  -0.920  4.01885E-02  5.93089E-02 -1.91204E-02
    8984.263    -10.583  -0.880  4.22509E-02  6.36387E-02 -2.13878E-02
    8984.526    -10.321  -0.840  4.44604E-02  6.84479E-02 -2.39874E-02
    8984.775    -10.071  -0.800  4.68312E-02  7.38051E-02 -2.69739E-02
    8985.013     -9.833  -0.760  4.93789E-02  7.97889E-02 -3.04100E-02
    8985.239     -9.607  -0.720  5.21211E-02  8.64874E-02 -3.43663E-02
    8985.452     -9.394  -0.680  5.50762E-02  9.39973E-02 -3.89210E-02
    8985.653     -9.193  -0.640  5.82631E-02  1.02420E-01 -4.41566E-02
    8985.842     -9.004  -0.600  6.16986E-02  1.11853E-01 -5.01548E-02
    8986.019     -8.827  -0.560  6.53943E-02  1.22381E-01 -5.69872E-02
    8986.184     -8.663  -0.520  6.93502E-02  1.34051E-01 -6.47009E-02
    8986.336     -8.510  -0.480  7.35474E-02  1.46846E-01 -7.32990E-02
    8986.476     -8.370  -0.440  7.79391E-02  1.60657E-01 -8.27175E-02
    8986.604     -8.242  -0.400  8.24440E-02  1.75249E-01 -9.28050E-02
    8986.720     -8.126  -0.360  8.69463E-02  1.90260E-01 -1.03314E-01
    8986.824     -8.023  -0.320  9.13064E-02  2.05218E-01 -1.13912E-01
    8986.915     -7.931  -0.280  9.53815E-02  2.19597E-01 -1.24215E-01
    8986.994     -7.852  -0.240  9.90475E-02  2.32887E-01 -1.33840E-01
    8987.061     -7.785  -0.200  1.02214E-01  2.44656E-01 -1.42441E-01
    8987.116     -7.730  -0.160  1.04827E-01  2.54579E-01 -1.49752E-01
    8987.159     -7.687  -0.120  1.06860E-01  2.62443E-01 -1.55583E-01
    8987.189     -7.657  -0.080  1.08311E-01  2.68121E-01 -1.59810E-01
    8987.214     -7.632   0.000  1.09506E-01  2.72694E-01 -1.63188E-01
    8987.269     -7.578   0.120  1.12818E-01  2.83019E-01 -1.70201E-01
    8987.311     -7.535   0.160  1.15133E-01  2.91090E-01 -1.75957E-01
    8987.366     -7.480   0.200  1.17953E-01  3.01426E-01 -1.83474E-01
    8987.433     -7.413   0.240  1.21200E-01  3.13950E-01 -1.92750E-01
    8987.513     -7.334   0.280  1.24729E-01  3.28449E-01 -2.03720E-01
    8987.604     -7.242   0.320  1.28461E-01  3.44656E-01 -2.16195E-01
    8987.708     -7.139   0.360  1.32281E-01  3.62179E-01 -2.29898E-01
    8987.823     -7.023   0.400  1.36191E-01  3.80623E-01 -2.44431E-01
    8987.951     -6.895   0.440  1.40328E-01  3.99619E-01 -2.59292E-01
    8988.092     -6.755   0.480  1.44961E-01  4.18887E-01 -2.73925E-01
    8988.244     -6.602   0.520  1.50495E-01  4.38224E-01 -2.87729E-01
    8988.409     -6.438   0.560  1.57477E-01  4.57546E-01 -3.00068E-01
    8988.585     -6.261   0.600  1.66509E-01  4.76825E-01 -3.10316E-01
    8988.774     -6.072   0.640  1.78389E-01  4.96079E-01 -3.17690E-01
    8988.976     -5.871   0.680  1.94140E-01  5.15389E-01 -3.21249E-01
    8989.189     -5.657   0.720  2.15145E-01  5.34745E-01 -3.19600E-01
    8989.415     -5.432   0.760  2.43582E-01  5.54253E-01 -3.10671E-01
    8989.652     -5.194   0.800  2.82529E-01  5.73908E-01 -2.91379E-01
    8989.902     -4.944   0.840  3.36311E-01  5.93736E-01 -2.57426E-01
    8990.164     -4.682   0.880  4.09709E-01  6.13749E-01 -2.04040E-01
    8990.439     -4.408   0.920  5.04582E-01  6.33925E-01 -1.29343E-01
    8990.725     -4.121   0.960  6.13742E-01  6.54237E-01 -4.04949E-02
    8991.024     -3.822   1.000  7.18981E-01  6.74664E-01  4.43170E-02
    8991.335     -3.512   1.040  7.97860E-01  6.95159E-01  1.02701E-01
    8991.658     -3.188   1.080  8.26779E-01  7.15668E-01  1.11111E-01
    8991.993     -2.853   1.120  7.90197E-01  7.36109E-01  5.40880E-02
    8992.341     -2.506   1.160  7.09258E-01  7.56460E-01 -4.72018E-02
    8992.700     -2.146   1.200  6.24465E-01  7.76612E-01 -1.52147E-01
    8993.072     -1.774   1.240  5.60242E-01  7.96496E-01 -2.36254E-01
    8993.456     -1.390   1.280  5.24063E-01  8.16081E-01 -2.92018E-01
    8993.852     -0.994   1.320  5.12770E-01  8.35254E-01 -3.22485E-01
    8994.261     -0.585   1.360  5.14117E-01  8.53966E-01 -3.39849E-01
    8994.681     -0.165   1.400  5.10152E-01  8.72166E-01 -3.62014E-01
    8995.114      0.268   1.440  4.94070E-01  8.89765E-01 -3.95695E-01
    8995.559      0.713   1.480  4.76034E-01  9.06694E-01 -4.30661E-01
    8996.016      1.170   1.520  4.69177E-01  9.22952E-01 -4.53775E-01
    8996.486      1.640   1.560  4.82590E-01  9.38456E-01 -4.55867E-01
    8996.967      2.121   1.600  5.19080E-01  9.53167E-01 -4.34088E-01
    8997.461      2.615   1.640  5.74479E-01  9.67093E-01 -3.92614E-01
    8997.967      3.121   1.680  6.40344E-01  9.80158E-01 -3.39814E-01
    8998.485      3.639   1.720  7.08512E-01  9.92354E-01 -2.83842E-01
    8999.016      4.169   1.760  7.73196E-01  1.00370E+00 -2.30504E-01
    8999.558      4.712   1.800  8.34560E-01  1.01417E+00 -1.79612E-01
    9000.113      5.267   1.840  8.98004E-01  1.02375E+00 -1.25745E-01
    9000.680      5.834   1.880  9.64724E-01  1.03248E+00 -6.77547E-02
    9001.259      6.413   1.920  1.02943E+00  1.04037E+00 -1.09366E-02
    9001.850      7.004   1.960  1.08838E+00  1.04740E+00  4.09783E-02
    9002.454      7.608   2.000  1.14591E+00  1.05364E+00  9.22695E-02
    9003.070      8.223   2.040  1.22610E+00  1.05907E+00  1.67029E-01
    9003.697      8.851   2.080  1.32963E+00  1.06377E+00  2.65863E-01
    9004.337      9.491   2.120  1.41040E+00  1.06773E+00  3.42669E-01
    9004.990     10.143   2.160  1.43771E+00  1.07100E+00  3.66711E-01
    9005.654     10.808   2.200  1.41664E+00  1.07360E+00  3.43037E-01
    9006.331     11.485   2.240  1.36686E+00  1.07559E+00  2.91273E-01
    9007.020     12.173   2.280  1.30561E+00  1.07702E+00  2.28595E-01
    9007.721     12.874   2.320  1.24851E+00  1.07788E+00  1.70628E-01
    9008.434     13.588   2.360  1.20181E+00  1.07825E+00  1.23565E-01
    9009.159     14.313   2.400  1.16504E+00  1.07815E+00  8.68854E-02
    9009.897     15.051   2.440  1.14159E+00  1.07761E+00  6.39764E-02
    9010.647     15.801   2.480  1.13147E+00  1.07669E+00  5.47798E-02
    9011.409     16.563   2.520  1.12086E+00  1.07541E+00  4.54502E-02
    9012.183     17.337   2.560  1.09598E+00  1.07381E+00  2.21659E-02
    9012.969     18.123   2.600  1.06283E+00  1.07191E+00 -9.07591E-03
    9013.768     18.922   2.640  1.04184E+00  1.06975E+00 -2.79109E-02
    9014.579     19.732   2.680  1.04694E+00  1.06737E+00 -2.04326E-02
    9015.402     20.555   2.720  1.07191E+00  1.06480E+00  7.11220E-03
    9016.237     21.391   2.760  1.09345E+00  1.06205E+00  3.14013E-02
    9017.084     22.238   2.800  1.10815E+00  1.05917E+00  4.89801E-02
    9017.944     23.097   2.840  1.11493E+00  1.05615E+00  5.87821E-02
    9018.815     23.969   2.880  1.11564E+00  1.05306E+00  6.25787E-02
    9019.699     24.853   2.920  1.11308E+00  1.04989E+00  6.31930E-02
    9020.595     25.749   2.960  1.10936E+00  1.04665E+00  6.27104E-02
    9021.504     26.657   3.000  1.10550E+00  1.04337E+00  6.21338E-02
    9022.424     27.578   3.040  1.10168E+00  1.04009E+00  6.15831E-02
    9023.357     28.511   3.080  1.09745E+00  1.03680E+00  6.06476E-02
    9024.302     29.456   3.120  1.09200E+00  1.03354E+00  5.84619E-02
    9025.259     30.413   3.160  1.08410E+00  1.03029E+00  5.38138E-02
    9026.228     31.382   3.200  1.07255E+00  1.02707E+00  4.54777E-02
    9027.210     32.363   3.240  1.05688E+00  1.02392E+00  3.29544E-02
    9028.203     33.357   3.280  1.03760E+00  1.02083E+00  1.67660E-02
    9029.209     34.363   3.320  1.01588E+00  1.01781E+00 -1.93714E-03
    9030.227     35.381   3.360  9.93217E-01  1.01489E+00 -2.16761E-02
    9031.257     36.411   3.400  9.71110E-01  1.01205E+00 -4.09360E-02
    9032.300     37.453   3.440  9.50764E-01  1.00931E+00 -5.85449E-02
    9033.354     38.508   3.480  9.32979E-01  1.00665E+00 -7.36735E-02
    9034.421     39.575   3.520  9.18202E-01  1.00411E+00 -8.59112E-02
    9035.500     40.654   3.560  9.06603E-01  1.00170E+00 -9.50964E-02
    9036.591     41.745   3.600  8.98271E-01  9.99382E-01 -1.01111E-01
    9037.695     42.848   3.640  8.93253E-01  9.97203E-01 -1.03950E-01
    9038.810     43.964   3.680  8.91418E-01  9.95150E-01 -1.03732E-01
    9039.938     45.092   3.720  8.92630E-01  9.93223E-01 -1.00593E-01
    9041.078     46.232   3.760  8.96689E-01  9.91417E-01 -9.47278E-02
    9042.230     47.384   3.800  9.03549E-01  9.89732E-01 -8.61829E-02
    9043.394     48.548   3.840  9.13136E-01  9.88180E-01 -7.50436E-02
    9044.571     49.725   3.880  9.25123E-01  9.86780E-01 -6.16562E-02
    9045.760     50.913   3.920  9.39072E-01  9.85502E-01 -4.64301E-02
    9046.961     52.114   3.960  9.54414E-01  9.84353E-01 -2.99393E-02
    9048.174     53.327   4.000  9.70396E-01  9.83354E-01 -1.29580E-02
    9049.399     54.553   4.040  9.85942E-01  9.82482E-01  3.46055E-03
    9050.636     55.790   4.080  9.99714E-01  9.81734E-01  1.79801E-02
    9051.886     57.040   4.120  1.01034E+00  9.81109E-01  2.92312E-02
    9053.148     58.302   4.160  1.01673E+00  9.80609E-01  3.61197E-02
    9054.422     59.576   4.200  1.01843E+00  9.80230E-01  3.81999E-02
    9055.708     60.862   4.240  1.01577E+00  9.79973E-01  3.58006E-02
    9057.007     62.160   4.280  1.00987E+00  9.79837E-01  3.00372E-02
    9058.317     63.471   4.320  1.00235E+00  9.79821E-01  2.25328E-02
    9059.640     64.794   4.360  9.94968E-01  9.79924E-01  1.50444E-02
    9060.975     66.129   4.400  9.89157E-01  9.80121E-01  9.03588E-03
    9062.322     67.476   4.440  9.85891E-01  9.80432E-01  5.45896E-03
    9063.682     68.836   4.480  9.85497E-01  9.80856E-01  4.64094E-03
    9065.053     70.207   4.520  9.87675E-01  9.81370E-01  6.30556E-03
    9066.437     71.591   4.560  9.91736E-01  9.81967E-01  9.76912E-03
    9067.833     72.987   4.600  9.96747E-01  9.82646E-01  1.41012E-02
    9069.241     74.395   4.640  1.00175E+00  9.83407E-01  1.83423E-02
    9070.662     75.815   4.680  1.00601E+00  9.84247E-01  2.17649E-02
    9072.094     77.248   4.720  1.00914E+00  9.85164E-01  2.39776E-02
    9073.539     78.693   4.760  1.01101E+00  9.86132E-01  2.48821E-02
    9074.996     80.150   4.800  1.01175E+00  9.87171E-01  2.45829E-02
    9076.465     81.619   4.840  1.01155E+00  9.88257E-01  2.32971E-02
    9077.946     83.100   4.880  1.01068E+00  9.89389E-01  2.12876E-02
    9079.440     84.594   4.920  1.00941E+00  9.90583E-01  1.88238E-02
    9080.946     86.099   4.960  1.00790E+00  9.91794E-01  1.61045E-02
    9082.463     87.617   5.000  1.00633E+00  9.93042E-01  1.32869E-02
    9083.994     89.147   5.040  1.00482E+00  9.94322E-01  1.05028E-02
    9085.536     90.690   5.080  1.00348E+00  9.95609E-01  7.87079E-03
    9087.090     92.244   5.120  1.00244E+00  9.96902E-01  5.53361E-03
    9088.657     93.811   5.160  1.00193E+00  9.98221E-01  3.70855E-03
    9090.236     95.390   5.200  1.00225E+00  9.99539E-01  2.71267E-03
    9091.827     96.981   5.240  1.00370E+00  1.00083E+00  2.87087E-03
    9093.430     98.584   5.280  1.00650E+00  1.00212E+00  4.38721E-03
    9095.046    100.199   5.320  1.01061E+00  1.00339E+00  7.21742E-03
    9096.673    101.827   5.360  1.01569E+00  1.00463E+00  1.10550E-02
    9098.313    103.467   5.400  1.02125E+00  1.00584E+00  1.54072E-02
    9099.965    105.119   5.440  1.02668E+00  1.00700E+00  1.96751E-02
    9101.629    106.783   5.480  1.03133E+00  1.00815E+00  2.31778E-02
    9103.306    108.459   5.520  1.03446E+00  1.00923E+00  2.52264E-02
    9104.994    110.148   5.560  1.03557E+00  1.01026E+00  2.53070E-02
    9106.695    111.849   5.600  1.03447E+00  1.01123E+00  2.32454E-02
    9108.408    113.562   5.640  1.03139E+00  1.01216E+00  1.92228E-02
    9110.133    115.287   5.680  1.02672E+00  1.01300E+00  1.37205E-02
    9111.870    117.024   5.720  1.02125E+00  1.01379E+00  7.46483E-03
    9113.620    118.774   5.760  1.01580E+00  1.01450E+00  1.30350E-03
    9115.382    120.535   5.800  1.01111E+00  1.01515E+00 -4.03691E-03
    9117.156    122.309   5.840  1.00750E+00  1.01570E+00 -8.20191E-03
    9118.942    124.096   5.880  1.00482E+00  1.01619E+00 -1.13637E-02
    9120.740    125.894   5.920  1.00240E+00  1.01656E+00 -1.41570E-02
    9122.551    127.704   5.960  9.99503E-01  1.01685E+00 -1.73463E-02
    9124.373    129.527   6.000  9.95460E-01  1.01697E+00 -2.15110E-02
