# # comment:                                                     FEFF 9.9.1  
# # Source:
# # Structure
# # Reduced
# # space
# # abc:
# # angles:
# # sites:
# # POT  SCF 100  7.0000   0, screened core-hole, AFOLP (folp(0)= 1.150)
# # Abs   Z=29 Rmt= 1.186 Rnm= 1.280 K  shell
# # Pot 1 Z=56 Rmt= 1.898 Rnm= 1.958
# # Pot 2 Z=13 Rmt= 1.438 Rnm= 1.498
# # Pot 3 Z=29 Rmt= 1.186 Rnm= 1.280
# # Pot 4 Z= 8 Rmt= 1.031 Rnm= 1.094
# # Gam_ch=1.729E+00 H-L exch Vi= 0.000E+00 Vr= 0.000E+00
# # Mu=-7.439E+00eV kf=2.078E+00 Vint=-1.670E+01eV Rs_int= 1.746
# FMS rfms= 9.0000
# # PATH  Rmax=-1.000,  Keep_limit= 0.00, Heap_limit 0.00  Pwcrit= 2.50%
#  S02=0.950  Temp=   0.00  Debye_temp=   0.00  Global_sig2= 0.00000
#  Energy zero shift, vr, vi    0.00000E+00   0.00000E+00
#  Curved wave amplitude ratio filter   4.000%
#     file         sig2 tot  cw amp ratio   deg  nlegs   reff  inp sig2
#     0/   0 paths used
#  xsedge+ 50, used to normalize mu           2.4348E-04
#  -----------------------------------------------------------------------
#  omega    e    k    mu    mu0     chi     @#
    8984.571    -11.249  -1.000  4.16387E-02  5.96678E-02 -1.80291E-02
    8984.870    -10.951  -0.960  4.39547E-02  6.41572E-02 -2.02026E-02
    8985.156    -10.664  -0.920  4.64613E-02  6.91578E-02 -2.26965E-02
    8985.431    -10.390  -0.880  4.91810E-02  7.47457E-02 -2.55647E-02
    8985.693    -10.128  -0.840  5.21391E-02  8.10097E-02 -2.88706E-02
    8985.943     -9.878  -0.800  5.53646E-02  8.80527E-02 -3.26881E-02
    8986.181     -9.640  -0.760  5.88901E-02  9.59928E-02 -3.71027E-02
    8986.406     -9.414  -0.720  6.27521E-02  1.04964E-01 -4.22117E-02
    8986.620     -9.201  -0.680  6.69898E-02  1.15113E-01 -4.81231E-02
    8986.821     -9.000  -0.640  7.16437E-02  1.26596E-01 -5.49520E-02
    8987.010     -8.811  -0.600  7.67521E-02  1.39566E-01 -6.28136E-02
    8987.186     -8.634  -0.560  8.23442E-02  1.54154E-01 -7.18094E-02
    8987.351     -8.469  -0.520  8.84306E-02  1.70438E-01 -8.20075E-02
    8987.503     -8.317  -0.480  9.49898E-02  1.88404E-01 -9.34137E-02
    8987.644     -8.177  -0.440  1.01952E-01  2.07892E-01 -1.05939E-01
    8987.772     -8.049  -0.400  1.09189E-01  2.28561E-01 -1.19372E-01
    8987.887     -7.933  -0.360  1.16509E-01  2.49873E-01 -1.33364E-01
    8987.991     -7.829  -0.320  1.23676E-01  2.71131E-01 -1.47455E-01
    8988.083     -7.738  -0.280  1.30440E-01  2.91558E-01 -1.61118E-01
    8988.162     -7.659  -0.240  1.36575E-01  3.10410E-01 -1.73834E-01
    8988.229     -7.592  -0.200  1.41908E-01  3.27064E-01 -1.85156E-01
    8988.284     -7.537  -0.160  1.46330E-01  3.41067E-01 -1.94737E-01
    8988.326     -7.494  -0.120  1.49784E-01  3.52132E-01 -2.02348E-01
    8988.357     -7.464  -0.080  1.52249E-01  3.60100E-01 -2.07851E-01
    8988.381     -7.439   0.000  1.54212E-01  3.66498E-01 -2.12287E-01
    8988.436     -7.384   0.120  1.58665E-01  3.80923E-01 -2.22257E-01
    8988.479     -7.342   0.160  1.62052E-01  3.92119E-01 -2.30067E-01
    8988.534     -7.287   0.200  1.66345E-01  4.06422E-01 -2.40077E-01
    8988.601     -7.220   0.240  1.71427E-01  4.23584E-01 -2.52157E-01
    8988.680     -7.141   0.280  1.77212E-01  4.43249E-01 -2.66037E-01
    8988.771     -7.049   0.320  1.83661E-01  4.64917E-01 -2.81256E-01
    8988.875     -6.946   0.360  1.90783E-01  4.87924E-01 -2.97140E-01
    8988.991     -6.830   0.400  1.98699E-01  5.11541E-01 -3.12841E-01
    8989.119     -6.702   0.440  2.07870E-01  5.35164E-01 -3.27294E-01
    8989.259     -6.561   0.480  2.18945E-01  5.58309E-01 -3.39364E-01
    8989.411     -6.409   0.520  2.32783E-01  5.80606E-01 -3.47822E-01
    8989.576     -6.244   0.560  2.50546E-01  6.01929E-01 -3.51383E-01
    8989.753     -6.068   0.600  2.73442E-01  6.22222E-01 -3.48780E-01
    8989.942     -5.879   0.640  3.02720E-01  6.41549E-01 -3.38829E-01
    8990.143     -5.678   0.680  3.39261E-01  6.60001E-01 -3.20740E-01
    8990.356     -5.464   0.720  3.82950E-01  6.77682E-01 -2.94732E-01
    8990.582     -5.239   0.760  4.31863E-01  6.94676E-01 -2.62813E-01
    8990.820     -5.001   0.800  4.81763E-01  7.11098E-01 -2.29335E-01
    8991.070     -4.751   0.840  5.26352E-01  7.27006E-01 -2.00654E-01
    8991.332     -4.489   0.880  5.58157E-01  7.42484E-01 -1.84327E-01
    8991.606     -4.215   0.920  5.70835E-01  7.57535E-01 -1.86700E-01
    8991.893     -3.928   0.960  5.63271E-01  7.72236E-01 -2.08965E-01
    8992.191     -3.629   1.000  5.40063E-01  7.86568E-01 -2.46505E-01
    8992.502     -3.318   1.040  5.09146E-01  8.00540E-01 -2.91394E-01
    8992.825     -2.995   1.080  4.79959E-01  8.14175E-01 -3.34216E-01
    8993.160     -2.660   1.120  4.59559E-01  8.27450E-01 -3.67892E-01
    8993.508     -2.313   1.160  4.49420E-01  8.40355E-01 -3.90935E-01
    8993.868     -1.953   1.200  4.47489E-01  8.52876E-01 -4.05387E-01
    8994.239     -1.581   1.240  4.51570E-01  8.64996E-01 -4.13427E-01
    8994.624     -1.197   1.280  4.59656E-01  8.76698E-01 -4.17043E-01
    8995.020     -0.801   1.320  4.71049E-01  8.87961E-01 -4.16913E-01
    8995.428     -0.392   1.360  4.88465E-01  8.98783E-01 -4.10317E-01
    8995.849      0.028   1.400  5.16815E-01  9.09143E-01 -3.92327E-01
    8996.282      0.461   1.440  5.60285E-01  9.19018E-01 -3.58733E-01
    8996.727      0.906   1.480  6.23645E-01  9.28387E-01 -3.04742E-01
    8997.184      1.363   1.520  7.15039E-01  9.37270E-01 -2.22231E-01
    8997.653      1.833   1.560  8.43442E-01  9.45648E-01 -1.02207E-01
    8998.135      2.314   1.600  1.01538E+00  9.53522E-01  6.18614E-02
    8998.629      2.808   1.640  1.22318E+00  9.60873E-01  2.62308E-01
    8999.135      3.314   1.680  1.42232E+00  9.67702E-01  4.54620E-01
    8999.653      3.832   1.720  1.53388E+00  9.74057E-01  5.59824E-01
    9000.183      4.363   1.760  1.53043E+00  9.79881E-01  5.50544E-01
    9000.726      4.905   1.800  1.47683E+00  9.85242E-01  4.91584E-01
    9001.280      5.460   1.840  1.43337E+00  9.90105E-01  4.43267E-01
    9001.847      6.027   1.880  1.42766E+00  9.94520E-01  4.33136E-01
    9002.426      6.606   1.920  1.44170E+00  9.98473E-01  4.43224E-01
    9003.018      7.197   1.960  1.43644E+00  1.00202E+00  4.34428E-01
    9003.621      7.801   2.000  1.40235E+00  1.00512E+00  3.97230E-01
    9004.237      8.416   2.040  1.36070E+00  1.00783E+00  3.52870E-01
    9004.865      9.044   2.080  1.31704E+00  1.01016E+00  3.06879E-01
    9005.505      9.684   2.120  1.26627E+00  1.01214E+00  2.54124E-01
    9006.157     10.337   2.160  1.21905E+00  1.01379E+00  2.05263E-01
    9006.822     11.001   2.200  1.17994E+00  1.01513E+00  1.64811E-01
    9007.498     11.678   2.240  1.14644E+00  1.01615E+00  1.30292E-01
    9008.187     12.367   2.280  1.11707E+00  1.01693E+00  1.00139E-01
    9008.888     13.068   2.320  1.08952E+00  1.01743E+00  7.20877E-02
    9009.601     13.781   2.360  1.06291E+00  1.01772E+00  4.51980E-02
    9010.327     14.506   2.400  1.03826E+00  1.01779E+00  2.04705E-02
    9011.064     15.244   2.440  1.01743E+00  1.01766E+00 -2.31755E-04
    9011.814     15.994   2.480  1.00604E+00  1.01738E+00 -1.13366E-02
    9012.576     16.756   2.520  1.00525E+00  1.01694E+00 -1.16930E-02
    9013.350     17.530   2.560  1.00530E+00  1.01635E+00 -1.10485E-02
    9014.137     18.316   2.600  1.00628E+00  1.01565E+00 -9.37103E-03
    9014.935     19.115   2.640  1.00854E+00  1.01486E+00 -6.32618E-03
    9015.746     19.926   2.680  1.01092E+00  1.01399E+00 -3.07061E-03
    9016.569     20.749   2.720  1.01234E+00  1.01303E+00 -6.94727E-04
    9017.404     21.584   2.760  1.01221E+00  1.01203E+00  1.81996E-04
    9018.252     22.431   2.800  1.01064E+00  1.01096E+00 -3.22772E-04
    9019.111     23.291   2.840  1.00819E+00  1.00987E+00 -1.68293E-03
    9019.983     24.162   2.880  1.00525E+00  1.00878E+00 -3.52972E-03
    9020.867     25.046   2.920  1.00196E+00  1.00767E+00 -5.71022E-03
    9021.763     25.942   2.960  9.98348E-01  1.00657E+00 -8.22057E-03
    9022.671     26.851   3.000  9.94441E-01  1.00547E+00 -1.10271E-02
    9023.592     27.771   3.040  9.90342E-01  1.00438E+00 -1.40335E-02
    9024.524     28.704   3.080  9.85785E-01  1.00334E+00 -1.75512E-02
    9025.469     29.649   3.120  9.79969E-01  1.00231E+00 -2.23423E-02
    9026.426     30.606   3.160  9.72136E-01  1.00133E+00 -2.91900E-02
    9027.395     31.575   3.200  9.61656E-01  1.00038E+00 -3.87262E-02
    9028.377     32.556   3.240  9.48472E-01  9.99506E-01 -5.10344E-02
    9029.371     33.550   3.280  9.33091E-01  9.98679E-01 -6.55871E-02
    9030.376     34.556   3.320  9.16659E-01  9.97921E-01 -8.12615E-02
    9031.394     35.574   3.360  9.00523E-01  9.97214E-01 -9.66905E-02
    9032.425     36.604   3.400  8.85953E-01  9.96580E-01 -1.10627E-01
    9033.467     37.647   3.440  8.73525E-01  9.96019E-01 -1.22494E-01
    9034.522     38.701   3.480  8.63679E-01  9.95514E-01 -1.31835E-01
    9035.588     39.768   3.520  8.57024E-01  9.95085E-01 -1.38061E-01
    9036.667     40.847   3.560  8.54171E-01  9.94734E-01 -1.40564E-01
    9037.759     41.938   3.600  8.55764E-01  9.94461E-01 -1.38697E-01
    9038.862     43.041   3.640  8.62423E-01  9.94266E-01 -1.31843E-01
    9039.978     44.157   3.680  8.74413E-01  9.94147E-01 -1.19734E-01
    9041.105     45.285   3.720  8.91114E-01  9.94083E-01 -1.02969E-01
    9042.245     46.425   3.760  9.11294E-01  9.94094E-01 -8.27995E-02
    9043.397     47.577   3.800  9.33060E-01  9.94182E-01 -6.11215E-02
    9044.562     48.741   3.840  9.54180E-01  9.94323E-01 -4.01427E-02
    9045.738     49.918   3.880  9.72886E-01  9.94558E-01 -2.16717E-02
    9046.927     51.106   3.920  9.88150E-01  9.94826E-01 -6.67570E-03
    9048.128     52.307   3.960  9.99841E-01  9.95185E-01  4.65564E-03
    9049.341     53.520   4.000  1.00853E+00  9.95595E-01  1.29386E-02
    9050.566     54.746   4.040  1.01546E+00  9.96051E-01  1.94065E-02
    9051.804     55.983   4.080  1.02200E+00  9.96551E-01  2.54510E-02
    9053.053     57.233   4.120  1.02908E+00  9.97117E-01  3.19633E-02
    9054.315     58.495   4.160  1.03703E+00  9.97727E-01  3.92996E-02
    9055.589     59.769   4.200  1.04571E+00  9.98378E-01  4.73300E-02
    9056.876     61.055   4.240  1.05495E+00  9.99045E-01  5.59003E-02
    9058.174     62.354   4.280  1.06474E+00  9.99771E-01  6.49655E-02
    9059.485     63.664   4.320  1.07488E+00  1.00053E+00  7.43423E-02
    9060.808     64.987   4.360  1.08480E+00  1.00131E+00  8.34953E-02
    9062.143     66.322   4.400  1.09360E+00  1.00209E+00  9.15117E-02
    9063.490     67.669   4.440  1.10038E+00  1.00289E+00  9.74904E-02
    9064.849     69.029   4.480  1.10430E+00  1.00371E+00  1.00594E-01
    9066.221     70.400   4.520  1.10488E+00  1.00455E+00  1.00335E-01
    9067.605     71.784   4.560  1.10223E+00  1.00537E+00  9.68596E-02
    9069.001     73.180   4.600  1.09716E+00  1.00620E+00  9.09563E-02
    9070.409     74.588   4.640  1.09081E+00  1.00702E+00  8.37917E-02
    9071.829     76.009   4.680  1.08424E+00  1.00782E+00  7.64178E-02
    9073.262     77.441   4.720  1.07788E+00  1.00863E+00  6.92526E-02
    9074.706     78.886   4.760  1.07137E+00  1.00942E+00  6.19447E-02
    9076.163     80.343   4.800  1.06383E+00  1.01018E+00  5.36527E-02
    9077.632     81.812   4.840  1.05444E+00  1.01090E+00  4.35314E-02
    9079.114     83.293   4.880  1.04276E+00  1.01159E+00  3.11710E-02
    9080.607     84.787   4.920  1.02905E+00  1.01226E+00  1.67898E-02
    9082.113     86.292   4.960  1.01417E+00  1.01290E+00  1.26931E-03
    9083.631     87.810   5.000  9.99530E-01  1.01349E+00 -1.39586E-02
    9085.161     89.340   5.040  9.86748E-01  1.01404E+00 -2.72902E-02
    9086.703     90.883   5.080  9.77151E-01  1.01454E+00 -3.73932E-02
    9088.258     92.437   5.120  9.71495E-01  1.01498E+00 -4.34880E-02
    9089.824     94.004   5.160  9.69956E-01  1.01540E+00 -4.54423E-02
    9091.403     95.583   5.200  9.72098E-01  1.01575E+00 -4.36470E-02
    9092.994     97.174   5.240  9.77131E-01  1.01604E+00 -3.89131E-02
    9094.598     98.777   5.280  9.83939E-01  1.01627E+00 -3.23361E-02
    9096.213    100.392   5.320  9.91318E-01  1.01648E+00 -2.51609E-02
    9097.841    102.020   5.360  9.97880E-01  1.01661E+00 -1.87332E-02
    9099.480    103.660   5.400  1.00216E+00  1.01668E+00 -1.45116E-02
    9101.132    105.312   5.440  1.00287E+00  1.01669E+00 -1.38145E-02
    9102.797    106.976   5.480  9.99339E-01  1.01666E+00 -1.73189E-02
    9104.473    108.652   5.520  9.91994E-01  1.01658E+00 -2.45844E-02
    9106.162    110.341   5.560  9.82342E-01  1.01643E+00 -3.40860E-02
    9107.862    112.042   5.600  9.72594E-01  1.01623E+00 -4.36360E-02
    9109.575    113.755   5.640  9.64963E-01  1.01596E+00 -5.09994E-02
    9111.300    115.480   5.680  9.61249E-01  1.01565E+00 -5.44009E-02
    9113.038    117.217   5.720  9.62205E-01  1.01532E+00 -5.31114E-02
    9114.787    118.967   5.760  9.67400E-01  1.01489E+00 -4.74948E-02
    9116.549    120.729   5.800  9.75610E-01  1.01445E+00 -3.88435E-02
    9118.323    122.503   5.840  9.84983E-01  1.01398E+00 -2.89927E-02
    9120.109    124.289   5.880  9.93591E-01  1.01346E+00 -1.98691E-02
    9121.907    126.087   5.920  9.99725E-01  1.01288E+00 -1.31594E-02
    9123.718    127.897   5.960  1.00230E+00  1.01230E+00 -1.00066E-02
    9125.541    129.720   6.000  1.00075E+00  1.01166E+00 -1.09101E-02
