# # comment:                                                     FEFF 9.9.1  
# # Source:
# # Structure
# # Reduced
# # space
# # abc:
# # angles:
# # sites:
# # POT  SCF 100  7.0000   0, screened core-hole, AFOLP (folp(0)= 1.150)
# # Abs   Z=29 Rmt= 1.250 Rnm= 1.342 K  shell
# # Pot 1 Z= 3 Rmt= 1.289 Rnm= 1.345
# # Pot 2 Z=41 Rmt= 1.296 Rnm= 1.435
# # Pot 3 Z=29 Rmt= 1.250 Rnm= 1.342
# # Pot 4 Z= 8 Rmt= 1.004 Rnm= 1.100
# # Gam_ch=1.729E+00 H-L exch Vi= 0.000E+00 Vr= 0.000E+00
# # Mu=-6.332E+00eV kf=2.159E+00 Vint=-1.637E+01eV Rs_int= 1.680
# FMS rfms= 9.0000
# # PATH  Rmax=-1.000,  Keep_limit= 0.00, Heap_limit 0.00  Pwcrit= 2.50%
#  S02=0.950  Temp=   0.00  Debye_temp=   0.00  Global_sig2= 0.00000
#  Energy zero shift, vr, vi    0.00000E+00   0.00000E+00
#  Curved wave amplitude ratio filter   4.000%
#     file         sig2 tot  cw amp ratio   deg  nlegs   reff  inp sig2
#     0/   0 paths used
#  xsedge+ 50, used to normalize mu           2.4631E-04
#  -----------------------------------------------------------------------
#  omega    e    k    mu    mu0     chi     @#
    8983.657    -10.142  -1.000  4.57118E-02  5.72154E-02 -1.15035E-02
    8983.956     -9.843  -0.960  4.85745E-02  6.14803E-02 -1.29058E-02
    8984.242     -9.557  -0.920  5.17184E-02  6.62293E-02 -1.45109E-02
    8984.516     -9.283  -0.880  5.51833E-02  7.15345E-02 -1.63512E-02
    8984.779     -9.021  -0.840  5.90158E-02  7.74799E-02 -1.84640E-02
    8985.029     -8.771  -0.800  6.32702E-02  8.41630E-02 -2.08928E-02
    8985.266     -8.533  -0.760  6.80090E-02  9.16960E-02 -2.36870E-02
    8985.492     -8.307  -0.720  7.33037E-02  1.00205E-01 -2.69018E-02
    8985.705     -8.094  -0.680  7.92332E-02  1.09831E-01 -3.05981E-02
    8985.906     -7.893  -0.640  8.58816E-02  1.20721E-01 -3.48395E-02
    8986.095     -7.704  -0.600  9.33310E-02  1.33020E-01 -3.96892E-02
    8986.272     -7.527  -0.560  1.01651E-01  1.46853E-01 -4.52023E-02
    8986.437     -7.362  -0.520  1.10878E-01  1.62294E-01 -5.14158E-02
    8986.589     -7.210  -0.480  1.20994E-01  1.79328E-01 -5.83344E-02
    8986.729     -7.070  -0.440  1.31893E-01  1.97806E-01 -6.59135E-02
    8986.857     -6.942  -0.400  1.43359E-01  2.17403E-01 -7.40436E-02
    8986.973     -6.826  -0.360  1.55067E-01  2.37609E-01 -8.25423E-02
    8987.077     -6.722  -0.320  1.66602E-01  2.57761E-01 -9.11591E-02
    8987.168     -6.631  -0.280  1.77526E-01  2.77123E-01 -9.95974E-02
    8987.247     -6.552  -0.240  1.87442E-01  2.94990E-01 -1.07548E-01
    8987.315     -6.485  -0.200  1.96051E-01  3.10772E-01 -1.14721E-01
    8987.369     -6.430  -0.160  2.03166E-01  3.24039E-01 -1.20873E-01
    8987.412     -6.387  -0.120  2.08703E-01  3.34521E-01 -1.25818E-01
    8987.443     -6.357  -0.080  2.12639E-01  3.42068E-01 -1.29429E-01
    8987.467     -6.332   0.000  2.15748E-01  3.48128E-01 -1.32380E-01
    8987.522     -6.277   0.120  2.22454E-01  3.61787E-01 -1.39333E-01
    8987.564     -6.235   0.160  2.27635E-01  3.72390E-01 -1.44755E-01
    8987.619     -6.180   0.200  2.34137E-01  3.85925E-01 -1.51787E-01
    8987.686     -6.113   0.240  2.41746E-01  4.02152E-01 -1.60406E-01
    8987.766     -6.034   0.280  2.50245E-01  4.20770E-01 -1.70525E-01
    8987.857     -5.942   0.320  2.59294E-01  4.41239E-01 -1.81945E-01
    8987.961     -5.838   0.360  2.68625E-01  4.62965E-01 -1.94339E-01
    8988.077     -5.723   0.400  2.78110E-01  4.85271E-01 -2.07161E-01
    8988.205     -5.595   0.440  2.87946E-01  5.07540E-01 -2.19594E-01
    8988.345     -5.454   0.480  2.98836E-01  5.29333E-01 -2.30498E-01
    8988.497     -5.302   0.520  3.11902E-01  5.50295E-01 -2.38393E-01
    8988.662     -5.137   0.560  3.28617E-01  5.70330E-01 -2.41713E-01
    8988.839     -4.961   0.600  3.50261E-01  5.89384E-01 -2.39123E-01
    8989.028     -4.772   0.640  3.77434E-01  6.07524E-01 -2.30090E-01
    8989.229     -4.570   0.680  4.09377E-01  6.24818E-01 -2.15440E-01
    8989.442     -4.357   0.720  4.43300E-01  6.41389E-01 -1.98089E-01
    8989.668     -4.132   0.760  4.74152E-01  6.57359E-01 -1.83207E-01
    8989.905     -3.894   0.800  4.95963E-01  6.72783E-01 -1.76820E-01
    8990.155     -3.644   0.840  5.05450E-01  6.87799E-01 -1.82349E-01
    8990.417     -3.382   0.880  5.04611E-01  7.02410E-01 -1.97799E-01
    8990.692     -3.107   0.920  4.99531E-01  7.16726E-01 -2.17195E-01
    8990.978     -2.821   0.960  4.95970E-01  7.30740E-01 -2.34770E-01
    8991.277     -2.522   1.000  4.97172E-01  7.44476E-01 -2.47304E-01
    8991.588     -2.211   1.040  5.04003E-01  7.57969E-01 -2.53966E-01
    8991.911     -1.888   1.080  5.15097E-01  7.71222E-01 -2.56125E-01
    8992.246     -1.553   1.120  5.27493E-01  7.84214E-01 -2.56722E-01
    8992.594     -1.205   1.160  5.39124E-01  7.96958E-01 -2.57834E-01
    8992.953     -0.846   1.200  5.53415E-01  8.09421E-01 -2.56006E-01
    8993.325     -0.474   1.240  5.80470E-01  8.21627E-01 -2.41157E-01
    8993.709     -0.090   1.280  6.28804E-01  8.33519E-01 -2.04715E-01
    8994.105      0.306   1.320  6.95982E-01  8.45095E-01 -1.49113E-01
    8994.514      0.715   1.360  7.65969E-01  8.56357E-01 -9.03879E-02
    8994.935      1.135   1.400  8.18699E-01  8.67260E-01 -4.85608E-02
    8995.367      1.568   1.440  8.45862E-01  8.77799E-01 -3.19370E-02
    8995.812      2.013   1.480  8.55344E-01  8.87973E-01 -3.26288E-02
    8996.270      2.470   1.520  8.61726E-01  8.97739E-01 -3.60134E-02
    8996.739      2.940   1.560  8.77859E-01  9.07092E-01 -2.92331E-02
    8997.221      3.421   1.600  9.14828E-01  9.16052E-01 -1.22334E-03
    8997.714      3.915   1.640  9.81834E-01  9.24575E-01  5.72591E-02
    8998.220      4.421   1.680  1.07502E+00  9.32660E-01  1.42364E-01
    8998.738      4.939   1.720  1.16948E+00  9.40309E-01  2.29167E-01
    8999.269      5.470   1.760  1.24968E+00  9.47520E-01  3.02156E-01
    8999.811      6.012   1.800  1.31379E+00  9.54296E-01  3.59489E-01
    9000.366      6.567   1.840  1.34834E+00  9.60639E-01  3.87703E-01
    9000.933      7.134   1.880  1.35078E+00  9.66552E-01  3.84229E-01
    9001.512      7.713   1.920  1.33844E+00  9.72040E-01  3.66398E-01
    9002.103      8.304   1.960  1.33215E+00  9.77106E-01  3.55044E-01
    9002.707      8.908   2.000  1.34128E+00  9.81756E-01  3.59525E-01
    9003.323      9.523   2.040  1.36677E+00  9.86016E-01  3.80753E-01
    9003.950     10.151   2.080  1.39757E+00  9.89872E-01  4.07698E-01
    9004.591     10.791   2.120  1.40522E+00  9.93373E-01  4.11849E-01
    9005.243     11.444   2.160  1.36986E+00  9.96505E-01  3.73352E-01
    9005.907     12.108   2.200  1.30439E+00  9.99297E-01  3.05096E-01
    9006.584     12.785   2.240  1.23178E+00  1.00174E+00  2.30044E-01
    9007.273     13.474   2.280  1.16086E+00  1.00389E+00  1.56967E-01
    9007.974     14.175   2.320  1.09157E+00  1.00573E+00  8.58390E-02
    9008.687     14.888   2.360  1.02747E+00  1.00731E+00  2.01583E-02
    9009.412     15.613   2.400  9.77807E-01  1.00861E+00 -3.07978E-02
    9010.150     16.351   2.440  9.51072E-01  1.00965E+00 -5.85815E-02
    9010.900     17.101   2.480  9.46016E-01  1.01048E+00 -6.44657E-02
    9011.662     17.863   2.520  9.53042E-01  1.01108E+00 -5.80358E-02
    9012.436     18.637   2.560  9.65781E-01  1.01149E+00 -4.57104E-02
    9013.222     19.423   2.600  9.79924E-01  1.01173E+00 -3.18079E-02
    9014.021     20.222   2.640  9.88776E-01  1.01178E+00 -2.30089E-02
    9014.832     21.033   2.680  9.89820E-01  1.01170E+00 -2.18795E-02
    9015.655     21.856   2.720  9.81372E-01  1.01149E+00 -3.01133E-02
    9016.490     22.691   2.760  9.67119E-01  1.01115E+00 -4.40276E-02
    9017.337     23.538   2.800  9.51763E-01  1.01069E+00 -5.89292E-02
    9018.197     24.398   2.840  9.37843E-01  1.01017E+00 -7.23250E-02
    9019.068     25.269   2.880  9.25569E-01  1.00954E+00 -8.39706E-02
    9019.952     26.153   2.920  9.14749E-01  1.00883E+00 -9.40841E-02
    9020.849     27.049   2.960  9.05635E-01  1.00808E+00 -1.02441E-01
    9021.757     27.958   3.000  8.98170E-01  1.00729E+00 -1.09124E-01
    9022.677     28.878   3.040  8.91924E-01  1.00645E+00 -1.14527E-01
    9023.610     29.811   3.080  8.86985E-01  1.00557E+00 -1.18584E-01
    9024.555     30.756   3.120  8.83879E-01  1.00468E+00 -1.20798E-01
    9025.512     31.713   3.160  8.83012E-01  1.00378E+00 -1.20768E-01
    9026.481     32.682   3.200  8.84630E-01  1.00288E+00 -1.18251E-01
    9027.463     33.663   3.240  8.88668E-01  1.00198E+00 -1.13314E-01
    9028.456     34.657   3.280  8.94360E-01  1.00111E+00 -1.06748E-01
    9029.462     35.663   3.320  9.00845E-01  1.00024E+00 -9.93957E-02
    9030.480     36.681   3.360  9.07458E-01  9.99382E-01 -9.19237E-02
    9031.510     37.711   3.400  9.13761E-01  9.98556E-01 -8.47955E-02
    9032.553     38.754   3.440  9.19539E-01  9.97765E-01 -7.82267E-02
    9033.607     39.808   3.480  9.24971E-01  9.97012E-01 -7.20406E-02
    9034.674     40.875   3.520  9.30439E-01  9.96297E-01 -6.58577E-02
    9035.753     41.954   3.560  9.36198E-01  9.95621E-01 -5.94233E-02
    9036.844     43.045   3.600  9.42465E-01  9.94986E-01 -5.25206E-02
    9037.948     44.149   3.640  9.49616E-01  9.94393E-01 -4.47770E-02
    9039.063     45.264   3.680  9.58197E-01  9.93844E-01 -3.56477E-02
    9040.191     46.392   3.720  9.68850E-01  9.93361E-01 -2.45108E-02
    9041.331     47.532   3.760  9.81867E-01  9.92923E-01 -1.10560E-02
    9042.483     48.684   3.800  9.96934E-01  9.92530E-01  4.40457E-03
    9043.647     49.848   3.840  1.01312E+00  9.92203E-01  2.09171E-02
    9044.824     51.025   3.880  1.02914E+00  9.91923E-01  3.72211E-02
    9046.013     52.214   3.920  1.04368E+00  9.91688E-01  5.19952E-02
    9047.214     53.414   3.960  1.05568E+00  9.91519E-01  6.41653E-02
    9048.427     54.628   4.000  1.06478E+00  9.91396E-01  7.33846E-02
    9049.652     55.853   4.040  1.07140E+00  9.91316E-01  8.00828E-02
    9050.889     57.090   4.080  1.07623E+00  9.91280E-01  8.49471E-02
    9052.139     58.340   4.120  1.07966E+00  9.91309E-01  8.83470E-02
    9053.401     59.602   4.160  1.08156E+00  9.91381E-01  9.01836E-02
    9054.675     60.876   4.200  1.08154E+00  9.91492E-01  9.00467E-02
    9055.961     62.162   4.240  1.07926E+00  9.91621E-01  8.76356E-02
    9057.260     63.461   4.280  1.07488E+00  9.91812E-01  8.30645E-02
    9058.570     64.771   4.320  1.06901E+00  9.92043E-01  7.69717E-02
    9059.893     66.094   4.360  1.06263E+00  9.92310E-01  7.03177E-02
    9061.228     67.429   4.400  1.05668E+00  9.92591E-01  6.40872E-02
    9062.575     68.776   4.440  1.05182E+00  9.92906E-01  5.89112E-02
    9063.935     70.136   4.480  1.04795E+00  9.93256E-01  5.46904E-02
    9065.306     71.507   4.520  1.04423E+00  9.93637E-01  5.05892E-02
    9066.690     72.891   4.560  1.03956E+00  9.94027E-01  4.55288E-02
    9068.086     74.287   4.600  1.03321E+00  9.94425E-01  3.87894E-02
    9069.494     75.695   4.640  1.02521E+00  9.94850E-01  3.03616E-02
    9070.915     77.116   4.680  1.01612E+00  9.95279E-01  2.08369E-02
    9072.347     78.548   4.720  1.00672E+00  9.95712E-01  1.10038E-02
    9073.792     79.993   4.760  9.97718E-01  9.96169E-01  1.54890E-03
    9075.249     81.450   4.800  9.89556E-01  9.96605E-01 -7.04936E-03
    9076.718     82.919   4.840  9.82529E-01  9.97060E-01 -1.45308E-02
    9078.199     84.400   4.880  9.76819E-01  9.97494E-01 -2.06747E-02
    9079.693     85.894   4.920  9.72685E-01  9.97945E-01 -2.52598E-02
    9081.199     87.399   4.960  9.70151E-01  9.98367E-01 -2.82161E-02
    9082.717     88.917   5.000  9.69025E-01  9.98762E-01 -2.97376E-02
    9084.247     90.447   5.040  9.68837E-01  9.99171E-01 -3.03348E-02
    9085.789     91.990   5.080  9.68939E-01  9.99550E-01 -3.06108E-02
    9087.343     93.544   5.120  9.68839E-01  9.99896E-01 -3.10566E-02
    9088.910     95.111   5.160  9.68238E-01  1.00023E+00 -3.19925E-02
    9090.489     96.690   5.200  9.66961E-01  1.00053E+00 -3.35718E-02
    9092.080     98.281   5.240  9.64983E-01  1.00082E+00 -3.58401E-02
    9093.683     99.884   5.280  9.62401E-01  1.00108E+00 -3.86766E-02
    9095.299    101.499   5.320  9.59507E-01  1.00130E+00 -4.17895E-02
    9096.926    103.127   5.360  9.56705E-01  1.00150E+00 -4.47966E-02
    9098.566    104.767   5.400  9.54276E-01  1.00167E+00 -4.73923E-02
    9100.218    106.419   5.440  9.52397E-01  1.00177E+00 -4.93764E-02
    9101.882    108.083   5.480  9.51351E-01  1.00186E+00 -5.05125E-02
    9103.559    109.760   5.520  9.51613E-01  1.00194E+00 -5.03252E-02
    9105.247    111.448   5.560  9.53842E-01  1.00195E+00 -4.81100E-02
    9106.948    113.149   5.600  9.58657E-01  1.00192E+00 -4.32660E-02
    9108.661    114.862   5.640  9.66034E-01  1.00186E+00 -3.58221E-02
    9110.386    116.587   5.680  9.75166E-01  1.00177E+00 -2.66072E-02
    9112.124    118.324   5.720  9.84626E-01  1.00163E+00 -1.70039E-02
    9113.873    120.074   5.760  9.93022E-01  1.00147E+00 -8.44881E-03
    9115.635    121.836   5.800  9.99279E-01  1.00128E+00 -1.99705E-03
    9117.409    123.610   5.840  1.00299E+00  1.00104E+00  1.95345E-03
    9119.195    125.396   5.880  1.00446E+00  1.00075E+00  3.71339E-03
    9120.993    127.194   5.920  1.00465E+00  1.00047E+00  4.18746E-03
    9122.804    129.005   5.960  1.00469E+00  1.00013E+00  4.55985E-03
    9124.626    130.827   6.000  1.00565E+00  9.99726E-01  5.92326E-03
