# # comment:                                                     FEFF 9.9.1  
# # Source:
# # Structure
# # Reduced
# # space
# # abc:
# # angles:
# # sites:
# # POT  SCF 100  7.0000   0, screened core-hole, AFOLP (folp(0)= 1.150)
# # Abs   Z=29 Rmt= 1.282 Rnm= 1.340 K  shell
# # Pot 1 Z= 4 Rmt= 0.960 Rnm= 1.109
# # Pot 2 Z=29 Rmt= 1.301 Rnm= 1.363
# # Pot 3 Z=14 Rmt= 1.016 Rnm= 1.221
# # Pot 4 Z= 8 Rmt= 0.920 Rnm= 1.057
# # Gam_ch=1.729E+00 H-L exch Vi= 0.000E+00 Vr= 0.000E+00
# # Mu=-8.132E+00eV kf=2.358E+00 Vint=-1.786E+01eV Rs_int= 1.538
# FMS rfms= 9.0000
# # PATH  Rmax=-1.000,  Keep_limit= 0.00, Heap_limit 0.00  Pwcrit= 2.50%
#  S02=0.950  Temp=   0.00  Debye_temp=   0.00  Global_sig2= 0.00000
#  Energy zero shift, vr, vi    0.00000E+00   0.00000E+00
#  Curved wave amplitude ratio filter   4.000%
#     file         sig2 tot  cw amp ratio   deg  nlegs   reff  inp sig2
#     0/   0 paths used
#  xsedge+ 50, used to normalize mu           2.5078E-04
#  -----------------------------------------------------------------------
#  omega    e    k    mu    mu0     chi     @#
    8983.472    -11.942  -1.000  3.06254E-02  4.54382E-02 -1.48128E-02
    8983.771    -11.644  -0.960  3.19171E-02  4.85798E-02 -1.66627E-02
    8984.057    -11.357  -0.920  3.32755E-02  5.20619E-02 -1.87864E-02
    8984.331    -11.083  -0.880  3.47052E-02  5.59344E-02 -2.12292E-02
    8984.594    -10.821  -0.840  3.62110E-02  6.02551E-02 -2.40440E-02
    8984.844    -10.571  -0.800  3.77984E-02  6.50911E-02 -2.72927E-02
    8985.081    -10.333  -0.760  3.94730E-02  7.05196E-02 -3.10465E-02
    8985.307    -10.108  -0.720  4.12410E-02  7.66274E-02 -3.53864E-02
    8985.520     -9.894  -0.680  4.31084E-02  8.35104E-02 -4.04019E-02
    8985.721     -9.693  -0.640  4.50810E-02  9.12696E-02 -4.61887E-02
    8985.910     -9.504  -0.600  4.71631E-02  1.00004E-01 -5.28413E-02
    8986.087     -9.327  -0.560  4.93566E-02  1.09799E-01 -6.04425E-02
    8986.252     -9.163  -0.520  5.16587E-02  1.20704E-01 -6.90450E-02
    8986.404     -9.010  -0.480  5.40595E-02  1.32707E-01 -7.86470E-02
    8986.544     -8.870  -0.440  5.65389E-02  1.45702E-01 -8.91632E-02
    8986.672     -8.742  -0.400  5.90642E-02  1.59465E-01 -1.00401E-01
    8986.788     -8.626  -0.360  6.15892E-02  1.73642E-01 -1.12052E-01
    8986.892     -8.523  -0.320  6.40569E-02  1.87772E-01 -1.23715E-01
    8986.983     -8.431  -0.280  6.64045E-02  2.01346E-01 -1.34942E-01
    8987.062     -8.352  -0.240  6.85697E-02  2.13874E-01 -1.45304E-01
    8987.130     -8.285  -0.200  7.04968E-02  2.24944E-01 -1.54447E-01
    8987.184     -8.230  -0.160  7.21393E-02  2.34255E-01 -1.62116E-01
    8987.227     -8.187  -0.120  7.34605E-02  2.41616E-01 -1.68156E-01
    8987.258     -8.157  -0.080  7.44329E-02  2.46920E-01 -1.72487E-01
    8987.282     -8.132   0.000  7.52453E-02  2.51181E-01 -1.75936E-01
    8987.337     -8.078   0.120  7.70904E-02  2.60789E-01 -1.83698E-01
    8987.379     -8.035   0.160  7.85086E-02  2.68257E-01 -1.89749E-01
    8987.434     -7.980   0.200  8.03406E-02  2.77792E-01 -1.97451E-01
    8987.501     -7.913   0.240  8.26047E-02  2.89264E-01 -2.06659E-01
    8987.581     -7.834   0.280  8.53254E-02  3.02446E-01 -2.17121E-01
    8987.672     -7.742   0.320  8.85335E-02  3.17004E-01 -2.28471E-01
    8987.776     -7.639   0.360  9.22924E-02  3.32525E-01 -2.40232E-01
    8987.892     -7.523   0.400  9.66339E-02  3.48549E-01 -2.51915E-01
    8988.020     -7.395   0.440  1.01672E-01  3.64674E-01 -2.63001E-01
    8988.160     -7.255   0.480  1.07492E-01  3.80612E-01 -2.73121E-01
    8988.312     -7.102   0.520  1.14170E-01  3.96169E-01 -2.81999E-01
    8988.477     -6.938   0.560  1.21665E-01  4.11217E-01 -2.89552E-01
    8988.654     -6.761   0.600  1.29914E-01  4.25771E-01 -2.95857E-01
    8988.842     -6.572   0.640  1.38766E-01  4.39860E-01 -3.01093E-01
    8989.044     -6.371   0.680  1.48198E-01  4.53562E-01 -3.05364E-01
    8989.257     -6.157   0.720  1.58314E-01  4.66967E-01 -3.08653E-01
    8989.483     -5.932   0.760  1.69371E-01  4.80163E-01 -3.10792E-01
    8989.720     -5.694   0.800  1.81422E-01  4.93213E-01 -3.11791E-01
    8989.970     -5.444   0.840  1.94179E-01  5.06185E-01 -3.12006E-01
    8990.232     -5.182   0.880  2.07031E-01  5.19122E-01 -3.12091E-01
    8990.507     -4.908   0.920  2.19939E-01  5.32074E-01 -3.12135E-01
    8990.793     -4.621   0.960  2.34426E-01  5.45060E-01 -3.10634E-01
    8991.092     -4.322   1.000  2.53119E-01  5.58116E-01 -3.04997E-01
    8991.403     -4.012   1.040  2.77884E-01  5.71244E-01 -2.93361E-01
    8991.726     -3.688   1.080  3.08730E-01  5.84465E-01 -2.75735E-01
    8992.061     -3.353   1.120  3.43461E-01  5.97771E-01 -2.54310E-01
    8992.409     -3.006   1.160  3.78202E-01  6.11153E-01 -2.32951E-01
    8992.768     -2.646   1.200  4.10368E-01  6.24615E-01 -2.14247E-01
    8993.140     -2.274   1.240  4.41434E-01  6.38157E-01 -1.96724E-01
    8993.524     -1.890   1.280  4.75168E-01  6.51721E-01 -1.76553E-01
    8993.920     -1.494   1.320  5.14386E-01  6.65323E-01 -1.50937E-01
    8994.329     -1.085   1.360  5.60470E-01  6.78936E-01 -1.18466E-01
    8994.749     -0.665   1.400  6.13596E-01  6.92535E-01 -7.89394E-02
    8995.182     -0.232   1.440  6.71410E-01  7.06112E-01 -3.47015E-02
    8995.627      0.213   1.480  7.31975E-01  7.19618E-01  1.23571E-02
    8996.084      0.670   1.520  7.97516E-01  7.33042E-01  6.44741E-02
    8996.554      1.140   1.560  8.66667E-01  7.46353E-01  1.20315E-01
    8997.035      1.621   1.600  9.35570E-01  7.59520E-01  1.76050E-01
    8997.529      2.115   1.640  1.00462E+00  7.72533E-01  2.32089E-01
    8998.035      2.621   1.680  1.07118E+00  7.85359E-01  2.85817E-01
    8998.553      3.139   1.720  1.13042E+00  7.97946E-01  3.32476E-01
    8999.084      3.669   1.760  1.17975E+00  8.10324E-01  3.69423E-01
    8999.626      4.212   1.800  1.21117E+00  8.22422E-01  3.88746E-01
    9000.181      4.767   1.840  1.22291E+00  8.34228E-01  3.88684E-01
    9000.748      5.334   1.880  1.22485E+00  8.45732E-01  3.79122E-01
    9001.327      5.913   1.920  1.22639E+00  8.56905E-01  3.69481E-01
    9001.918      6.504   1.960  1.23329E+00  8.67718E-01  3.65577E-01
    9002.522      7.108   2.000  1.24204E+00  8.78162E-01  3.63879E-01
    9003.138      7.723   2.040  1.23033E+00  8.88230E-01  3.42100E-01
    9003.765      8.351   2.080  1.18216E+00  8.97915E-01  2.84246E-01
    9004.406      8.991   2.120  1.11843E+00  9.07172E-01  2.11256E-01
    9005.058      9.643   2.160  1.06781E+00  9.16015E-01  1.51797E-01
    9005.722     10.308   2.200  1.03554E+00  9.24421E-01  1.11118E-01
    9006.399     10.985   2.240  1.01713E+00  9.32406E-01  8.47223E-02
    9007.088     11.673   2.280  1.01293E+00  9.39928E-01  7.30010E-02
    9007.789     12.374   2.320  1.02357E+00  9.47026E-01  7.65479E-02
    9008.502     13.088   2.360  1.04684E+00  9.53681E-01  9.31551E-02
    9009.227     13.813   2.400  1.07692E+00  9.59872E-01  1.17046E-01
    9009.965     14.551   2.440  1.10063E+00  9.65641E-01  1.34988E-01
    9010.715     15.301   2.480  1.10429E+00  9.70972E-01  1.33317E-01
    9011.477     16.063   2.520  1.08397E+00  9.75888E-01  1.08082E-01
    9012.251     16.837   2.560  1.04317E+00  9.80371E-01  6.27963E-02
    9013.037     17.623   2.600  9.88852E-01  9.84447E-01  4.40506E-03
    9013.836     18.422   2.640  9.29615E-01  9.88120E-01 -5.85051E-02
    9014.647     19.232   2.680  8.75251E-01  9.91395E-01 -1.16144E-01
    9015.470     20.055   2.720  8.35902E-01  9.94280E-01 -1.58378E-01
    9016.305     20.891   2.760  8.22197E-01  9.96821E-01 -1.74624E-01
    9017.152     21.738   2.800  8.25685E-01  9.99007E-01 -1.73322E-01
    9018.012     22.597   2.840  8.32450E-01  1.00087E+00 -1.68415E-01
    9018.883     23.469   2.880  8.38645E-01  1.00240E+00 -1.63758E-01
    9019.767     24.353   2.920  8.43657E-01  1.00363E+00 -1.59969E-01
    9020.663     25.249   2.960  8.48012E-01  1.00457E+00 -1.56553E-01
    9021.572     26.157   3.000  8.52404E-01  1.00525E+00 -1.52845E-01
    9022.492     27.078   3.040  8.57280E-01  1.00566E+00 -1.48385E-01
    9023.425     28.011   3.080  8.62905E-01  1.00584E+00 -1.42936E-01
    9024.370     28.956   3.120  8.69421E-01  1.00581E+00 -1.36386E-01
    9025.327     29.913   3.160  8.76627E-01  1.00557E+00 -1.28945E-01
    9026.296     30.882   3.200  8.84379E-01  1.00516E+00 -1.20782E-01
    9027.278     31.863   3.240  8.92739E-01  1.00457E+00 -1.11827E-01
    9028.271     32.857   3.280  9.01957E-01  1.00381E+00 -1.01855E-01
    9029.277     33.863   3.320  9.12060E-01  1.00293E+00 -9.08678E-02
    9030.295     34.881   3.360  9.23218E-01  1.00192E+00 -7.87056E-02
    9031.325     35.911   3.400  9.35591E-01  1.00082E+00 -6.52327E-02
    9032.368     36.953   3.440  9.49078E-01  9.99616E-01 -5.05385E-02
    9033.422     38.008   3.480  9.63593E-01  9.98328E-01 -3.47344E-02
    9034.489     39.075   3.520  9.79077E-01  9.96964E-01 -1.78862E-02
    9035.568     40.154   3.560  9.95352E-01  9.95573E-01 -2.21449E-04
    9036.659     41.245   3.600  1.01196E+00  9.94121E-01  1.78402E-02
    9037.763     42.348   3.640  1.02835E+00  9.92632E-01  3.57159E-02
    9038.878     43.464   3.680  1.04367E+00  9.91153E-01  5.25190E-02
    9040.006     44.592   3.720  1.05678E+00  9.89628E-01  6.71567E-02
    9041.146     45.732   3.760  1.06685E+00  9.88123E-01  7.87238E-02
    9042.298     46.884   3.800  1.07334E+00  9.86644E-01  8.66949E-02
    9043.462     48.048   3.840  1.07616E+00  9.85174E-01  9.09870E-02
    9044.639     49.225   3.880  1.07576E+00  9.83714E-01  9.20439E-02
    9045.828     50.413   3.920  1.07289E+00  9.82310E-01  9.05766E-02
    9047.029     51.614   3.960  1.06827E+00  9.80926E-01  8.73468E-02
    9048.242     52.827   4.000  1.06262E+00  9.79604E-01  8.30145E-02
    9049.467     54.053   4.040  1.05640E+00  9.78327E-01  7.80734E-02
    9050.704     55.290   4.080  1.04981E+00  9.77097E-01  7.27093E-02
    9051.954     56.540   4.120  1.04285E+00  9.75937E-01  6.69084E-02
    9053.216     57.802   4.160  1.03551E+00  9.74849E-01  6.06628E-02
    9054.490     59.076   4.200  1.02787E+00  9.73816E-01  5.40516E-02
    9055.776     60.362   4.240  1.02016E+00  9.72878E-01  4.72790E-02
    9057.075     61.660   4.280  1.01265E+00  9.71996E-01  4.06543E-02
    9058.385     62.971   4.320  1.00567E+00  9.71191E-01  3.44768E-02
    9059.708     64.294   4.360  9.99297E-01  9.70464E-01  2.88325E-02
    9061.043     65.629   4.400  9.93447E-01  9.69817E-01  2.36297E-02
    9062.390     66.976   4.440  9.87912E-01  9.69271E-01  1.86417E-02
    9063.750     68.335   4.480  9.82356E-01  9.68782E-01  1.35741E-02
    9065.121     69.707   4.520  9.76595E-01  9.68371E-01  8.22340E-03
    9066.505     71.091   4.560  9.70631E-01  9.68039E-01  2.59214E-03
    9067.901     72.487   4.600  9.64665E-01  9.67786E-01 -3.12070E-03
    9069.309     73.895   4.640  9.59028E-01  9.67633E-01 -8.60439E-03
    9070.730     75.315   4.680  9.53962E-01  9.67534E-01 -1.35719E-02
    9072.162     76.748   4.720  9.49553E-01  9.67489E-01 -1.79358E-02
    9073.607     78.193   4.760  9.45720E-01  9.67540E-01 -2.18197E-02
    9075.064     79.650   4.800  9.42169E-01  9.67644E-01 -2.54752E-02
    9076.533     81.119   4.840  9.38704E-01  9.67821E-01 -2.91169E-02
    9078.014     82.600   4.880  9.35313E-01  9.68070E-01 -3.27574E-02
    9079.508     84.094   4.920  9.32178E-01  9.68369E-01 -3.61915E-02
    9081.014     85.599   4.960  9.29638E-01  9.68733E-01 -3.90953E-02
    9082.532     87.117   5.000  9.28028E-01  9.69119E-01 -4.10918E-02
    9084.062     88.647   5.040  9.27674E-01  9.69570E-01 -4.18964E-02
    9085.604     90.190   5.080  9.28644E-01  9.70065E-01 -4.14213E-02
    9087.158     91.744   5.120  9.30787E-01  9.70619E-01 -3.98313E-02
    9088.725     93.311   5.160  9.33645E-01  9.71166E-01 -3.75211E-02
    9090.304     94.890   5.200  9.36853E-01  9.71769E-01 -3.49157E-02
    9091.895     96.481   5.240  9.40078E-01  9.72383E-01 -3.23046E-02
    9093.498     98.084   5.280  9.43331E-01  9.73027E-01 -2.96966E-02
    9095.114     99.699   5.320  9.46818E-01  9.73679E-01 -2.68611E-02
    9096.741    101.327   5.360  9.50825E-01  9.74356E-01 -2.35314E-02
    9098.381    102.967   5.400  9.55360E-01  9.75014E-01 -1.96542E-02
    9100.033    104.619   5.440  9.60214E-01  9.75691E-01 -1.54770E-02
    9101.697    106.283   5.480  9.64956E-01  9.76344E-01 -1.13875E-02
    9103.374    107.959   5.520  9.69335E-01  9.76992E-01 -7.65645E-03
    9105.062    109.648   5.560  9.73272E-01  9.77633E-01 -4.36087E-03
    9106.763    111.349   5.600  9.76704E-01  9.78244E-01 -1.54021E-03
    9108.476    113.062   5.640  9.79501E-01  9.78845E-01  6.56498E-04
    9110.201    114.787   5.680  9.81420E-01  9.79412E-01  2.00753E-03
    9111.938    116.524   5.720  9.82346E-01  9.79966E-01  2.38024E-03
    9113.688    118.274   5.760  9.82372E-01  9.80456E-01  1.91592E-03
    9115.450    120.035   5.800  9.81982E-01  9.80907E-01  1.07488E-03
    9117.224    121.809   5.840  9.81826E-01  9.81339E-01  4.87901E-04
    9119.010    123.596   5.880  9.82414E-01  9.81704E-01  7.10943E-04
    9120.808    125.394   5.920  9.84103E-01  9.82021E-01  2.08214E-03
    9122.619    127.204   5.960  9.86973E-01  9.82283E-01  4.68991E-03
    9124.441    129.027   6.000  9.90931E-01  9.82448E-01  8.48209E-03
