# # comment:                                                     FEFF 9.9.1  
# # Source:
# # Structure
# # Reduced
# # space
# # abc:
# # angles:102.862694
# # sites:
# # POT  SCF 100  7.0000   0, screened core-hole, AFOLP (folp(0)= 1.150)
# # Abs   Z=29 Rmt= 1.265 Rnm= 1.348 K  shell
# # Pot 1 Z=11 Rmt= 1.593 Rnm= 1.647
# # Pot 2 Z=29 Rmt= 1.265 Rnm= 1.348
# # Pot 3 Z=14 Rmt= 0.996 Rnm= 1.213
# # Pot 4 Z= 8 Rmt= 0.938 Rnm= 1.080
# # Gam_ch=1.729E+00 H-L exch Vi= 0.000E+00 Vr= 0.000E+00
# # Mu=-8.288E+00eV kf=2.316E+00 Vint=-1.700E+01eV Rs_int= 1.566
# FMS rfms= 9.0000
# # PATH  Rmax=-1.000,  Keep_limit= 0.00, Heap_limit 0.00  Pwcrit= 2.50%
#  S02=0.950  Temp=   0.00  Debye_temp=   0.00  Global_sig2= 0.00000
#  Energy zero shift, vr, vi    0.00000E+00   0.00000E+00
#  Curved wave amplitude ratio filter   4.000%
#     file         sig2 tot  cw amp ratio   deg  nlegs   reff  inp sig2
#     0/   0 paths used
#  xsedge+ 50, used to normalize mu           2.4943E-04
#  -----------------------------------------------------------------------
#  omega    e    k    mu    mu0     chi     @#
    8983.507    -12.098  -1.000  3.36707E-02  4.65261E-02 -1.28554E-02
    8983.806    -11.799  -0.960  3.53401E-02  4.97390E-02 -1.43989E-02
    8984.093    -11.512  -0.920  3.71256E-02  5.32980E-02 -1.61724E-02
    8984.367    -11.238  -0.880  3.90379E-02  5.72533E-02 -1.82154E-02
    8984.629    -10.976  -0.840  4.10887E-02  6.16634E-02 -2.05746E-02
    8984.879    -10.726  -0.800  4.32909E-02  6.65958E-02 -2.33048E-02
    8985.117    -10.488  -0.760  4.56585E-02  7.21281E-02 -2.64696E-02
    8985.342    -10.263  -0.720  4.82061E-02  7.83479E-02 -3.01418E-02
    8985.556    -10.049  -0.680  5.09489E-02  8.53515E-02 -3.44026E-02
    8985.757     -9.848  -0.640  5.39012E-02  9.32404E-02 -3.93392E-02
    8985.946     -9.659  -0.600  5.70754E-02  1.02114E-01 -4.50388E-02
    8986.122     -9.483  -0.560  6.04791E-02  1.12058E-01 -5.15784E-02
    8986.287     -9.318  -0.520  6.41117E-02  1.23120E-01 -5.90084E-02
    8986.439     -9.166  -0.480  6.79594E-02  1.35290E-01 -6.73302E-02
    8986.580     -9.025  -0.440  7.19895E-02  1.48459E-01 -7.64698E-02
    8986.708     -8.897  -0.400  7.61463E-02  1.62402E-01 -8.62556E-02
    8986.824     -8.781  -0.360  8.03488E-02  1.76760E-01 -9.64117E-02
    8986.927     -8.678  -0.320  8.44948E-02  1.91072E-01 -1.06577E-01
    8987.019     -8.586  -0.280  8.84692E-02  2.04822E-01 -1.16353E-01
    8987.098     -8.507  -0.240  9.21564E-02  2.17514E-01 -1.25358E-01
    8987.165     -8.440  -0.200  9.54510E-02  2.28734E-01 -1.33283E-01
    8987.220     -8.385  -0.160  9.82645E-02  2.38175E-01 -1.39910E-01
    8987.262     -8.343  -0.120  1.00528E-01  2.45641E-01 -1.45113E-01
    8987.293     -8.312  -0.080  1.02190E-01  2.51021E-01 -1.48832E-01
    8987.317     -8.288   0.000  1.03568E-01  2.55346E-01 -1.51779E-01
    8987.372     -8.233   0.120  1.06707E-01  2.65111E-01 -1.58404E-01
    8987.415     -8.190   0.160  1.09138E-01  2.72703E-01 -1.63565E-01
    8987.470     -8.135   0.200  1.12294E-01  2.82389E-01 -1.70095E-01
    8987.537     -8.068   0.240  1.16199E-01  2.94065E-01 -1.77866E-01
    8987.616     -7.989   0.280  1.20907E-01  3.07507E-01 -1.86600E-01
    8987.707     -7.898   0.320  1.26422E-01  3.22368E-01 -1.95946E-01
    8987.811     -7.794   0.360  1.32806E-01  3.38239E-01 -2.05433E-01
    8987.927     -7.678   0.400  1.40156E-01  3.54705E-01 -2.14549E-01
    8988.055     -7.550   0.440  1.48560E-01  3.71331E-01 -2.22771E-01
    8988.195     -7.410   0.480  1.58229E-01  3.87828E-01 -2.29599E-01
    8988.348     -7.257   0.520  1.69456E-01  4.04004E-01 -2.34548E-01
    8988.512     -7.093   0.560  1.82569E-01  4.19751E-01 -2.37182E-01
    8988.689     -6.916   0.600  1.98009E-01  4.35064E-01 -2.37055E-01
    8988.878     -6.727   0.640  2.16124E-01  4.49971E-01 -2.33847E-01
    8989.079     -6.526   0.680  2.36987E-01  4.64567E-01 -2.27580E-01
    8989.292     -6.313   0.720  2.59960E-01  4.78919E-01 -2.18959E-01
    8989.518     -6.087   0.760  2.83499E-01  4.93092E-01 -2.09593E-01
    8989.756     -5.849   0.800  3.06078E-01  5.07162E-01 -2.01084E-01
    8990.006     -5.599   0.840  3.27653E-01  5.21179E-01 -1.93526E-01
    8990.268     -5.337   0.880  3.50035E-01  5.35179E-01 -1.85144E-01
    8990.542     -5.063   0.920  3.75036E-01  5.49229E-01 -1.74193E-01
    8990.829     -4.776   0.960  4.02188E-01  5.63346E-01 -1.61158E-01
    8991.127     -4.478   1.000  4.28959E-01  5.77517E-01 -1.48558E-01
    8991.438     -4.167   1.040  4.52541E-01  5.91763E-01 -1.39222E-01
    8991.761     -3.844   1.080  4.69572E-01  6.06079E-01 -1.36507E-01
    8992.097     -3.508   1.120  4.75853E-01  6.20473E-01 -1.44620E-01
    8992.444     -3.161   1.160  4.71154E-01  6.34910E-01 -1.63756E-01
    8992.804     -2.801   1.200  4.62432E-01  6.49390E-01 -1.86958E-01
    8993.176     -2.429   1.240  4.58153E-01  6.63873E-01 -2.05719E-01
    8993.560     -2.045   1.280  4.63231E-01  6.78371E-01 -2.15141E-01
    8993.956     -1.649   1.320  4.79553E-01  6.92837E-01 -2.13284E-01
    8994.364     -1.241   1.360  5.06020E-01  7.07224E-01 -2.01203E-01
    8994.785     -0.820   1.400  5.37577E-01  7.21540E-01 -1.83964E-01
    8995.218     -0.387   1.440  5.67622E-01  7.35755E-01 -1.68133E-01
    8995.663      0.058   1.480  5.92799E-01  7.49795E-01 -1.56996E-01
    8996.120      0.515   1.520  6.16519E-01  7.63668E-01 -1.47148E-01
    8996.589      0.984   1.560  6.45054E-01  7.77340E-01 -1.32286E-01
    8997.071      1.466   1.600  6.79865E-01  7.90761E-01 -1.10896E-01
    8997.565      1.960   1.640  7.21170E-01  8.03936E-01 -8.27654E-02
    8998.071      2.466   1.680  7.71228E-01  8.16813E-01 -4.55845E-02
    8998.589      2.984   1.720  8.30722E-01  8.29360E-01  1.36226E-03
    8999.119      3.514   1.760  8.96580E-01  8.41565E-01  5.50156E-02
    8999.662      4.057   1.800  9.59673E-01  8.53420E-01  1.06253E-01
    9000.216      4.611   1.840  1.01190E+00  8.64874E-01  1.47023E-01
    9000.783      5.178   1.880  1.05445E+00  8.75937E-01  1.78516E-01
    9001.362      5.757   1.920  1.09411E+00  8.86562E-01  2.07544E-01
    9001.954      6.349   1.960  1.13674E+00  8.96761E-01  2.39978E-01
    9002.557      6.952   2.000  1.17616E+00  9.06490E-01  2.69671E-01
    9003.173      7.568   2.040  1.19968E+00  9.15784E-01  2.83900E-01
    9003.801      8.196   2.080  1.20618E+00  9.24578E-01  2.81598E-01
    9004.441      8.836   2.120  1.20253E+00  9.32933E-01  2.69598E-01
    9005.093      9.488   2.160  1.19418E+00  9.40785E-01  2.53390E-01
    9005.758     10.153   2.200  1.18340E+00  9.48176E-01  2.35227E-01
    9006.434     10.829   2.240  1.17022E+00  9.55106E-01  2.15118E-01
    9007.123     11.518   2.280  1.15746E+00  9.61534E-01  1.95924E-01
    9007.824     12.219   2.320  1.14886E+00  9.67506E-01  1.81352E-01
    9008.537     12.932   2.360  1.14280E+00  9.73025E-01  1.69776E-01
    9009.263     13.658   2.400  1.13506E+00  9.78096E-01  1.56961E-01
    9010.000     14.395   2.440  1.12469E+00  9.82724E-01  1.41967E-01
    9010.750     15.145   2.480  1.11413E+00  9.86913E-01  1.27221E-01
    9011.512     15.907   2.520  1.10435E+00  9.90691E-01  1.13660E-01
    9012.286     16.681   2.560  1.09270E+00  9.94064E-01  9.86407E-02
    9013.073     17.468   2.600  1.07538E+00  9.97039E-01  7.83361E-02
    9013.871     18.266   2.640  1.05138E+00  9.99645E-01  5.17347E-02
    9014.682     19.077   2.680  1.02570E+00  1.00189E+00  2.38056E-02
    9015.505     19.900   2.720  1.00764E+00  1.00381E+00  3.82893E-03
    9016.340     20.735   2.760  9.99119E-01  1.00540E+00 -6.27892E-03
    9017.188     21.583   2.800  9.93913E-01  1.00669E+00 -1.27820E-02
    9018.047     22.442   2.840  9.87298E-01  1.00769E+00 -2.03888E-02
    9018.919     23.314   2.880  9.78494E-01  1.00842E+00 -2.99261E-02
    9019.803     24.198   2.920  9.68278E-01  1.00889E+00 -4.06109E-02
    9020.699     25.094   2.960  9.57767E-01  1.00914E+00 -5.13721E-02
    9021.607     26.002   3.000  9.47692E-01  1.00918E+00 -6.14864E-02
    9022.528     26.923   3.040  9.38183E-01  1.00900E+00 -7.08136E-02
    9023.460     27.855   3.080  9.29026E-01  1.00864E+00 -7.96177E-02
    9024.405     28.800   3.120  9.19977E-01  1.00815E+00 -8.81703E-02
    9025.362     29.757   3.160  9.10525E-01  1.00747E+00 -9.69493E-02
    9026.332     30.727   3.200  9.00451E-01  1.00667E+00 -1.06222E-01
    9027.313     31.708   3.240  8.89934E-01  1.00577E+00 -1.15838E-01
    9028.307     32.702   3.280  8.79495E-01  1.00474E+00 -1.25243E-01
    9029.312     33.707   3.320  8.69931E-01  1.00364E+00 -1.33707E-01
    9030.330     34.725   3.360  8.62164E-01  1.00246E+00 -1.40294E-01
    9031.361     35.756   3.400  8.57356E-01  1.00121E+00 -1.43850E-01
    9032.403     36.798   3.440  8.55989E-01  9.99908E-01 -1.43918E-01
    9033.458     37.853   3.480  8.58318E-01  9.98569E-01 -1.40251E-01
    9034.525     38.920   3.520  8.64366E-01  9.97217E-01 -1.32851E-01
    9035.603     39.999   3.560  8.73872E-01  9.95834E-01 -1.21961E-01
    9036.695     41.090   3.600  8.86416E-01  9.94445E-01 -1.08030E-01
    9037.798     42.193   3.640  9.01567E-01  9.93056E-01 -9.14895E-02
    9038.914     43.309   3.680  9.18769E-01  9.91672E-01 -7.29031E-02
    9040.041     44.436   3.720  9.37240E-01  9.90316E-01 -5.30756E-02
    9041.181     45.576   3.760  9.56270E-01  9.88992E-01 -3.27222E-02
    9042.333     46.728   3.800  9.75216E-01  9.87682E-01 -1.24656E-02
    9043.498     47.893   3.840  9.93522E-01  9.86411E-01  7.11141E-03
    9044.674     49.069   3.880  1.01088E+00  9.85201E-01  2.56769E-02
    9045.863     50.258   3.920  1.02707E+00  9.84014E-01  4.30543E-02
    9047.064     51.459   3.960  1.04199E+00  9.82914E-01  5.90731E-02
    9048.277     52.672   4.000  1.05539E+00  9.81842E-01  7.35430E-02
    9049.502     53.897   4.040  1.06706E+00  9.80839E-01  8.62163E-02
    9050.740     55.135   4.080  1.07657E+00  9.79908E-01  9.66646E-02
    9051.989     56.384   4.120  1.08325E+00  9.79029E-01  1.04222E-01
    9053.251     57.646   4.160  1.08648E+00  9.78223E-01  1.08255E-01
    9054.525     58.920   4.200  1.08580E+00  9.77493E-01  1.08305E-01
    9055.812     60.207   4.240  1.08115E+00  9.76841E-01  1.04311E-01
    9057.110     61.505   4.280  1.07307E+00  9.76263E-01  9.68086E-02
    9058.421     62.816   4.320  1.06267E+00  9.75740E-01  8.69293E-02
    9059.744     64.139   4.360  1.05140E+00  9.75293E-01  7.61017E-02
    9061.079     65.474   4.400  1.04061E+00  9.74943E-01  6.56657E-02
    9062.426     66.821   4.440  1.03117E+00  9.74627E-01  5.65396E-02
    9063.785     68.180   4.480  1.02333E+00  9.74408E-01  4.89191E-02
    9065.157     69.552   4.520  1.01670E+00  9.74264E-01  4.24338E-02
    9066.541     70.936   4.560  1.01063E+00  9.74173E-01  3.64593E-02
    9067.937     72.332   4.600  1.00458E+00  9.74157E-01  3.04223E-02
    9069.345     73.740   4.640  9.98184E-01  9.74211E-01  2.39729E-02
    9070.765     75.160   4.680  9.91351E-01  9.74315E-01  1.70361E-02
    9072.198     76.593   4.720  9.84208E-01  9.74469E-01  9.73900E-03
    9073.642     78.037   4.760  9.77051E-01  9.74712E-01  2.33923E-03
    9075.099     79.494   4.800  9.70152E-01  9.74980E-01 -4.82824E-03
    9076.568     80.963   4.840  9.63870E-01  9.75314E-01 -1.14439E-02
    9078.050     82.445   4.880  9.58441E-01  9.75692E-01 -1.72516E-02
    9079.543     83.938   4.920  9.54018E-01  9.76110E-01 -2.20921E-02
    9081.049     85.444   4.960  9.50623E-01  9.76566E-01 -2.59434E-02
    9082.567     86.962   5.000  9.48191E-01  9.77060E-01 -2.88685E-02
    9084.097     88.492   5.040  9.46607E-01  9.77566E-01 -3.09591E-02
    9085.639     90.034   5.080  9.45845E-01  9.78128E-01 -3.22828E-02
    9087.194     91.589   5.120  9.45822E-01  9.78679E-01 -3.28568E-02
    9088.760     93.155   5.160  9.46578E-01  9.79282E-01 -3.27042E-02
    9090.339     94.734   5.200  9.48083E-01  9.79893E-01 -3.18099E-02
    9091.930     96.325   5.240  9.50272E-01  9.80507E-01 -3.02353E-02
    9093.534     97.929   5.280  9.52905E-01  9.81121E-01 -2.82156E-02
    9095.149     99.544   5.320  9.55549E-01  9.81735E-01 -2.61853E-02
    9096.777    101.172   5.360  9.57740E-01  9.82346E-01 -2.46058E-02
    9098.416    102.811   5.400  9.59149E-01  9.82951E-01 -2.38020E-02
    9100.068    104.463   5.440  9.59667E-01  9.83530E-01 -2.38630E-02
    9101.733    106.128   5.480  9.59449E-01  9.84102E-01 -2.46528E-02
    9103.409    107.804   5.520  9.58794E-01  9.84665E-01 -2.58708E-02
    9105.098    109.493   5.560  9.58033E-01  9.85195E-01 -2.71612E-02
    9106.798    111.193   5.600  9.57475E-01  9.85689E-01 -2.82141E-02
    9108.511    112.906   5.640  9.57352E-01  9.86168E-01 -2.88169E-02
    9110.237    114.632   5.680  9.57724E-01  9.86588E-01 -2.88640E-02
    9111.974    116.369   5.720  9.58601E-01  9.86988E-01 -2.83871E-02
    9113.723    118.118   5.760  9.59794E-01  9.87327E-01 -2.75331E-02
    9115.485    119.880   5.800  9.61196E-01  9.87649E-01 -2.64534E-02
    9117.259    121.654   5.840  9.62785E-01  9.87928E-01 -2.51433E-02
    9119.045    123.440   5.880  9.64713E-01  9.88140E-01 -2.34275E-02
    9120.844    125.239   5.920  9.67240E-01  9.88305E-01 -2.10656E-02
    9122.654    127.049   5.960  9.70564E-01  9.88416E-01 -1.78522E-02
    9124.477    128.872   6.000  9.74958E-01  9.88426E-01 -1.34678E-02
