# # comment:                                                     FEFF 9.9.1  
# # Source:
# # Structure
# # Reduced
# # space
# # abc:
# # angles:
# # sites:
# # POT  SCF 100  7.0000   0, screened core-hole, AFOLP (folp(0)= 1.150)
# # Abs   Z=29 Rmt= 1.117 Rnm= 1.314 K  shell
# # Pot 1 Z=56 Rmt= 1.966 Rnm= 2.022
# # Pot 2 Z=39 Rmt= 1.633 Rnm= 1.710
# # Pot 3 Z=29 Rmt= 1.119 Rnm= 1.315
# # Pot 4 Z= 8 Rmt= 1.071 Rnm= 1.130
# # Gam_ch=1.729E+00 H-L exch Vi= 0.000E+00 Vr= 0.000E+00
# # Mu=-8.644E+00eV kf=1.980E+00 Vint=-1.683E+01eV Rs_int= 1.832
# FMS rfms= 9.0000
# # PATH  Rmax=-1.000,  Keep_limit= 0.00, Heap_limit 0.00  Pwcrit= 2.50%
#  S02=0.950  Temp=   0.00  Debye_temp=   0.00  Global_sig2= 0.00000
#  Energy zero shift, vr, vi    0.00000E+00   0.00000E+00
#  Curved wave amplitude ratio filter   4.000%
#     file         sig2 tot  cw amp ratio   deg  nlegs   reff  inp sig2
#     0/   0 paths used
#  xsedge+ 50, used to normalize mu           2.4645E-04
#  -----------------------------------------------------------------------
#  omega    e    k    mu    mu0     chi     @#
    8984.683    -12.454  -1.000  4.11472E-02  5.43606E-02 -1.32133E-02
    8984.982    -12.155  -0.960  4.35798E-02  5.82604E-02 -1.46806E-02
    8985.268    -11.869  -0.920  4.62422E-02  6.25877E-02 -1.63455E-02
    8985.542    -11.595  -0.880  4.91666E-02  6.74047E-02 -1.82381E-02
    8985.804    -11.333  -0.840  5.23905E-02  7.27838E-02 -2.03933E-02
    8986.054    -11.083  -0.800  5.59576E-02  7.88086E-02 -2.28511E-02
    8986.292    -10.845  -0.760  5.99182E-02  8.55754E-02 -2.56572E-02
    8986.518    -10.619  -0.720  6.43297E-02  9.31925E-02 -2.88628E-02
    8986.731    -10.406  -0.680  6.92554E-02  1.01779E-01 -3.25237E-02
    8986.932    -10.205  -0.640  7.47624E-02  1.11461E-01 -3.66985E-02
    8987.121    -10.016  -0.600  8.09167E-02  1.22361E-01 -4.14445E-02
    8987.298     -9.839  -0.560  8.77743E-02  1.34585E-01 -4.68106E-02
    8987.463     -9.674  -0.520  9.53676E-02  1.48194E-01 -5.28262E-02
    8987.615     -9.522  -0.480  1.03686E-01  1.63173E-01 -5.94868E-02
    8987.755     -9.382  -0.440  1.12654E-01  1.79391E-01 -6.67367E-02
    8987.883     -9.254  -0.400  1.22114E-01  1.96567E-01 -7.44535E-02
    8987.999     -9.138  -0.360  1.31819E-01  2.14262E-01 -8.24431E-02
    8988.103     -9.034  -0.320  1.41454E-01  2.31904E-01 -9.04497E-02
    8988.194     -8.943  -0.280  1.50673E-01  2.48857E-01 -9.81840E-02
    8988.273     -8.864  -0.240  1.59149E-01  2.64510E-01 -1.05361E-01
    8988.340     -8.797  -0.200  1.66614E-01  2.78349E-01 -1.11736E-01
    8988.395     -8.742  -0.160  1.72875E-01  2.89996E-01 -1.17122E-01
    8988.438     -8.699  -0.120  1.77811E-01  2.99208E-01 -1.21398E-01
    8988.468     -8.669  -0.080  1.81355E-01  3.05848E-01 -1.24493E-01
    8988.493     -8.644   0.000  1.84184E-01  3.11185E-01 -1.27001E-01
    8988.548     -8.589   0.120  1.90775E-01  3.23217E-01 -1.32442E-01
    8988.590     -8.547   0.160  1.95874E-01  3.32590E-01 -1.36716E-01
    8988.645     -8.492   0.200  2.02352E-01  3.44556E-01 -1.42204E-01
    8988.712     -8.425   0.240  2.10109E-01  3.58962E-01 -1.48853E-01
    8988.792     -8.346   0.280  2.19012E-01  3.75556E-01 -1.56544E-01
    8988.883     -8.254   0.320  2.28763E-01  3.93895E-01 -1.65132E-01
    8988.987     -8.150   0.360  2.39070E-01  4.13519E-01 -1.74449E-01
    8989.102     -8.035   0.400  2.49432E-01  4.33832E-01 -1.84400E-01
    8989.230     -7.907   0.440  2.59347E-01  4.54384E-01 -1.95037E-01
    8989.371     -7.766   0.480  2.68130E-01  4.74758E-01 -2.06627E-01
    8989.523     -7.614   0.520  2.75167E-01  4.94711E-01 -2.19544E-01
    8989.688     -7.449   0.560  2.80061E-01  5.14134E-01 -2.34073E-01
    8989.864     -7.273   0.600  2.83025E-01  5.32994E-01 -2.49969E-01
    8990.053     -7.084   0.640  2.85062E-01  5.51326E-01 -2.66264E-01
    8990.255     -6.882   0.680  2.87993E-01  5.69195E-01 -2.81202E-01
    8990.468     -6.669   0.720  2.93964E-01  5.86723E-01 -2.92759E-01
    8990.693     -6.444   0.760  3.04571E-01  6.03925E-01 -2.99354E-01
    8990.931     -6.206   0.800  3.20376E-01  6.20932E-01 -3.00557E-01
    8991.181     -5.956   0.840  3.40147E-01  6.37778E-01 -2.97631E-01
    8991.443     -5.694   0.880  3.60891E-01  6.54485E-01 -2.93594E-01
    8991.718     -5.419   0.920  3.79518E-01  6.71101E-01 -2.91583E-01
    8992.004     -5.133   0.960  3.95666E-01  6.87624E-01 -2.91957E-01
    8992.303     -4.834   1.000  4.12888E-01  7.04059E-01 -2.91171E-01
    8992.614     -4.523   1.040  4.36306E-01  7.20425E-01 -2.84119E-01
    8992.937     -4.200   1.080  4.70578E-01  7.36651E-01 -2.66073E-01
    8993.272     -3.865   1.120  5.20906E-01  7.52782E-01 -2.31875E-01
    8993.620     -3.517   1.160  5.93800E-01  7.68735E-01 -1.74936E-01
    8993.979     -3.158   1.200  6.93800E-01  7.84487E-01 -9.06860E-02
    8994.351     -2.786   1.240  8.09715E-01  8.00048E-01  9.66733E-03
    8994.735     -2.402   1.280  8.99054E-01  8.15327E-01  8.37266E-02
    8995.131     -2.006   1.320  9.15691E-01  8.30315E-01  8.53763E-02
    8995.540     -1.597   1.360  8.68606E-01  8.44955E-01  2.36511E-02
    8995.960     -1.177   1.400  8.18946E-01  8.59255E-01 -4.03093E-02
    8996.393     -0.744   1.440  8.15826E-01  8.73122E-01 -5.72965E-02
    8996.838     -0.299   1.480  8.48392E-01  8.86562E-01 -3.81702E-02
    8997.295      0.158   1.520  8.56903E-01  8.99542E-01 -4.26398E-02
    8997.765      0.628   1.560  8.14316E-01  9.12012E-01 -9.76961E-02
    8998.246      1.109   1.600  7.52239E-01  9.23980E-01 -1.71741E-01
    8998.740      1.603   1.640  7.05390E-01  9.35376E-01 -2.29986E-01
    8999.246      2.109   1.680  6.88497E-01  9.46235E-01 -2.57738E-01
    8999.764      2.627   1.720  7.00528E-01  9.56509E-01 -2.55980E-01
    9000.295      3.158   1.760  7.32421E-01  9.66193E-01 -2.33772E-01
    9000.837      3.700   1.800  7.73414E-01  9.75286E-01 -2.01872E-01
    9001.392      4.255   1.840  8.31530E-01  9.83765E-01 -1.52236E-01
    9001.959      4.822   1.880  9.24389E-01  9.91673E-01 -6.72846E-02
    9002.538      5.401   1.920  1.03843E+00  9.98950E-01  3.94817E-02
    9003.129      5.992   1.960  1.11894E+00  1.00566E+00  1.13279E-01
    9003.733      6.596   2.000  1.13791E+00  1.01177E+00  1.26139E-01
    9004.348      7.211   2.040  1.12335E+00  1.01732E+00  1.06029E-01
    9004.976      7.839   2.080  1.10928E+00  1.02230E+00  8.69773E-02
    9005.616      8.479   2.120  1.11085E+00  1.02672E+00  8.41282E-02
    9006.269      9.132   2.160  1.12492E+00  1.03063E+00  9.42938E-02
    9006.933      9.796   2.200  1.13919E+00  1.03404E+00  1.05155E-01
    9007.610     10.473   2.240  1.14747E+00  1.03695E+00  1.10514E-01
    9008.299     11.162   2.280  1.15757E+00  1.03939E+00  1.18183E-01
    9009.000     11.863   2.320  1.18233E+00  1.04140E+00  1.40935E-01
    9009.713     12.576   2.360  1.22599E+00  1.04299E+00  1.83003E-01
    9010.438     13.301   2.400  1.27755E+00  1.04418E+00  2.33370E-01
    9011.176     14.039   2.440  1.31203E+00  1.04497E+00  2.67060E-01
    9011.926     14.789   2.480  1.31814E+00  1.04545E+00  2.72689E-01
    9012.688     15.551   2.520  1.29646E+00  1.04558E+00  2.50878E-01
    9013.462     16.325   2.560  1.25284E+00  1.04541E+00  2.07425E-01
    9014.248     17.111   2.600  1.19803E+00  1.04498E+00  1.53051E-01
    9015.047     17.910   2.640  1.14251E+00  1.04428E+00  9.82221E-02
    9015.858     18.721   2.680  1.09353E+00  1.04334E+00  5.01855E-02
    9016.681     19.544   2.720  1.05505E+00  1.04221E+00  1.28428E-02
    9017.516     20.379   2.760  1.02783E+00  1.04086E+00 -1.30320E-02
    9018.363     21.226   2.800  1.01079E+00  1.03937E+00 -2.85718E-02
    9019.223     22.086   2.840  1.00271E+00  1.03771E+00 -3.50021E-02
    9020.094     22.957   2.880  1.00198E+00  1.03593E+00 -3.39446E-02
    9020.978     23.841   2.920  1.00608E+00  1.03403E+00 -2.79451E-02
    9021.874     24.737   2.960  1.01250E+00  1.03203E+00 -1.95303E-02
    9022.783     25.646   3.000  1.01915E+00  1.02994E+00 -1.07857E-02
    9023.703     26.566   3.040  1.02495E+00  1.02781E+00 -2.85464E-03
    9024.636     27.499   3.080  1.02965E+00  1.02561E+00  4.03970E-03
    9025.581     28.444   3.120  1.03336E+00  1.02338E+00  9.98797E-03
    9026.538     29.401   3.160  1.03584E+00  1.02113E+00  1.47112E-02
    9027.507     30.370   3.200  1.03609E+00  1.01885E+00  1.72450E-02
    9028.489     31.351   3.240  1.03278E+00  1.01659E+00  1.61907E-02
    9029.482     32.345   3.280  1.02472E+00  1.01434E+00  1.03814E-02
    9030.488     33.351   3.320  1.01144E+00  1.01209E+00 -6.51603E-04
    9031.506     34.369   3.360  9.93632E-01  1.00988E+00 -1.62482E-02
    9032.536     35.399   3.400  9.73155E-01  1.00771E+00 -3.45510E-02
    9033.579     36.442   3.440  9.52358E-01  1.00558E+00 -5.32173E-02
    9034.633     37.496   3.480  9.33405E-01  1.00351E+00 -7.01059E-02
    9035.700     38.563   3.520  9.17784E-01  1.00149E+00 -8.37111E-02
    9036.779     39.642   3.560  9.06199E-01  9.99550E-01 -9.33510E-02
    9037.870     40.733   3.600  8.98651E-01  9.97659E-01 -9.90081E-02
    9038.974     41.837   3.640  8.94979E-01  9.95844E-01 -1.00865E-01
    9040.089     42.952   3.680  8.94969E-01  9.94131E-01 -9.91623E-02
    9041.217     44.080   3.720  8.98088E-01  9.92477E-01 -9.43887E-02
    9042.357     45.220   3.760  9.03592E-01  9.90906E-01 -8.73138E-02
    9043.509     46.372   3.800  9.10447E-01  9.89439E-01 -7.89923E-02
    9044.673     47.536   3.840  9.17646E-01  9.88057E-01 -7.04107E-02
    9045.850     48.713   3.880  9.24735E-01  9.86762E-01 -6.20273E-02
    9047.039     49.902   3.920  9.31964E-01  9.85575E-01 -5.36111E-02
    9048.239     51.102   3.960  9.39864E-01  9.84474E-01 -4.46102E-02
    9049.453     52.316   4.000  9.48855E-01  9.83461E-01 -3.46057E-02
    9050.678     53.541   4.040  9.59036E-01  9.82555E-01 -2.35191E-02
    9051.915     54.778   4.080  9.69937E-01  9.81736E-01 -1.17994E-02
    9053.165     56.028   4.120  9.80465E-01  9.81006E-01 -5.40847E-04
    9054.427     57.290   4.160  9.89040E-01  9.80384E-01  8.65540E-03
    9055.701     58.564   4.200  9.94084E-01  9.79850E-01  1.42340E-02
    9056.987     59.850   4.240  9.94864E-01  9.79424E-01  1.54407E-02
    9058.286     61.149   4.280  9.91896E-01  9.79084E-01  1.28126E-02
    9059.596     62.459   4.320  9.86782E-01  9.78827E-01  7.95506E-03
    9060.919     63.782   4.360  9.81516E-01  9.78653E-01  2.86259E-03
    9062.254     65.117   4.400  9.77819E-01  9.78563E-01 -7.44507E-04
    9063.601     66.464   4.440  9.76791E-01  9.78577E-01 -1.78569E-03
    9064.961     67.824   4.480  9.78907E-01  9.78649E-01  2.57501E-04
    9066.332     69.195   4.520  9.84377E-01  9.78823E-01  5.55383E-03
    9067.716     70.579   4.560  9.93056E-01  9.79053E-01  1.40030E-02
    9069.112     71.975   4.600  1.00432E+00  9.79357E-01  2.49653E-02
    9070.520     73.383   4.640  1.01666E+00  9.79735E-01  3.69272E-02
    9071.941     74.804   4.680  1.02775E+00  9.80162E-01  4.75852E-02
    9073.373     76.236   4.720  1.03519E+00  9.80640E-01  5.45476E-02
    9074.818     77.681   4.760  1.03756E+00  9.81209E-01  5.63507E-02
    9076.275     79.138   4.800  1.03498E+00  9.81802E-01  5.31801E-02
    9077.744     80.607   4.840  1.02904E+00  9.82459E-01  4.65804E-02
    9079.225     82.088   4.880  1.02163E+00  9.83135E-01  3.84992E-02
    9080.719     83.582   4.920  1.01450E+00  9.83872E-01  3.06276E-02
    9082.225     85.088   4.960  1.00886E+00  9.84623E-01  2.42352E-02
    9083.742     86.605   5.000  1.00548E+00  9.85411E-01  2.00640E-02
    9085.273     88.135   5.040  1.00452E+00  9.86233E-01  1.82887E-02
    9086.815     89.678   5.080  1.00569E+00  9.87085E-01  1.86014E-02
    9088.369     91.232   5.120  1.00849E+00  9.87921E-01  2.05735E-02
    9089.936     92.799   5.160  1.01259E+00  9.88784E-01  2.38074E-02
    9091.515     94.378   5.200  1.01735E+00  9.89652E-01  2.76970E-02
    9093.106     95.969   5.240  1.02159E+00  9.90542E-01  3.10434E-02
    9094.709     97.572   5.280  1.02362E+00  9.91407E-01  3.22095E-02
    9096.325     99.187   5.320  1.02228E+00  9.92266E-01  3.00090E-02
    9097.952    100.815   5.360  1.01767E+00  9.93098E-01  2.45714E-02
    9099.592    102.455   5.400  1.01134E+00  9.93944E-01  1.73968E-02
    9101.244    104.107   5.440  1.00465E+00  9.94736E-01  9.91431E-03
    9102.908    105.771   5.480  9.98450E-01  9.95516E-01  2.93476E-03
    9104.585    107.448   5.520  9.93038E-01  9.96282E-01 -3.24344E-03
    9106.273    109.136   5.560  9.88548E-01  9.96989E-01 -8.44131E-03
    9107.974    110.837   5.600  9.85190E-01  9.97679E-01 -1.24886E-02
    9109.687    112.550   5.640  9.83107E-01  9.98305E-01 -1.51989E-02
    9111.412    114.275   5.680  9.82538E-01  9.98914E-01 -1.63760E-02
    9113.149    116.012   5.720  9.83450E-01  9.99480E-01 -1.60294E-02
    9114.899    117.762   5.760  9.85442E-01  9.99977E-01 -1.45351E-02
    9116.661    119.524   5.800  9.87567E-01  1.00043E+00 -1.28582E-02
    9118.435    121.298   5.840  9.88753E-01  1.00080E+00 -1.20494E-02
    9120.221    123.084   5.880  9.88428E-01  1.00113E+00 -1.27031E-02
    9122.019    124.882   5.920  9.86477E-01  1.00141E+00 -1.49323E-02
    9123.830    126.693   5.960  9.83126E-01  1.00163E+00 -1.85005E-02
    9125.652    128.515   6.000  9.78880E-01  1.00170E+00 -2.28218E-02
