# # comment:                                                     FEFF 9.9.1  
# # Source:
# # Structure
# # Reduced
# # space
# # abc:
# # angles:
# # sites:
# # POT  SCF 100  7.0000   0, screened core-hole, AFOLP (folp(0)= 1.150)
# # Abs   Z=29 Rmt= 1.225 Rnm= 1.278 K  shell
# # Pot 1 Z= 3 Rmt= 1.245 Rnm= 1.287
# # Pot 2 Z=27 Rmt= 1.348 Rnm= 1.418
# # Pot 3 Z=29 Rmt= 1.226 Rnm= 1.279
# # Pot 4 Z= 8 Rmt= 0.999 Rnm= 1.069
# # Gam_ch=1.729E+00 H-L exch Vi= 0.000E+00 Vr= 0.000E+00
# # Mu=-1.121E+01eV kf=2.109E+00 Vint=-1.980E+01eV Rs_int= 1.719
# FMS rfms= 9.0000
# # PATH  Rmax=-1.000,  Keep_limit= 0.00, Heap_limit 0.00  Pwcrit= 2.50%
#  S02=0.950  Temp=   0.00  Debye_temp=   0.00  Global_sig2= 0.00000
#  Energy zero shift, vr, vi    0.00000E+00   0.00000E+00
#  Curved wave amplitude ratio filter   4.000%
#     file         sig2 tot  cw amp ratio   deg  nlegs   reff  inp sig2
#     0/   0 paths used
#  xsedge+ 50, used to normalize mu           2.4809E-04
#  -----------------------------------------------------------------------
#  omega    e    k    mu    mu0     chi     @#
    8985.608    -15.017  -1.000  2.99869E-02  4.95999E-02 -1.96131E-02
    8985.907    -14.718  -0.960  3.11521E-02  5.31049E-02 -2.19528E-02
    8986.193    -14.432  -0.920  3.23688E-02  5.69928E-02 -2.46240E-02
    8986.468    -14.157  -0.880  3.36401E-02  6.13193E-02 -2.76792E-02
    8986.730    -13.895  -0.840  3.49697E-02  6.61495E-02 -3.11798E-02
    8986.980    -13.645  -0.800  3.63619E-02  7.15586E-02 -3.51967E-02
    8987.217    -13.407  -0.760  3.78215E-02  7.76330E-02 -3.98115E-02
    8987.443    -13.182  -0.720  3.93539E-02  8.44701E-02 -4.51162E-02
    8987.656    -12.968  -0.680  4.09649E-02  9.21771E-02 -5.12122E-02
    8987.857    -12.767  -0.640  4.26603E-02  1.00867E-01 -5.82068E-02
    8988.046    -12.578  -0.600  4.44454E-02  1.10651E-01 -6.62057E-02
    8988.223    -12.402  -0.560  4.63231E-02  1.21623E-01 -7.53004E-02
    8988.388    -12.237  -0.520  4.82921E-02  1.33840E-01 -8.55480E-02
    8988.540    -12.085  -0.480  5.03438E-02  1.47288E-01 -9.69438E-02
    8988.680    -11.944  -0.440  5.24589E-02  1.61848E-01 -1.09389E-01
    8988.808    -11.816  -0.400  5.46049E-02  1.77269E-01 -1.22664E-01
    8988.924    -11.701  -0.360  5.67362E-02  1.93156E-01 -1.36419E-01
    8989.028    -11.597  -0.320  5.87975E-02  2.08993E-01 -1.50195E-01
    8989.119    -11.505  -0.280  6.07310E-02  2.24210E-01 -1.63479E-01
    8989.199    -11.426  -0.240  6.24845E-02  2.38258E-01 -1.75773E-01
    8989.266    -11.359  -0.200  6.40170E-02  2.50675E-01 -1.86658E-01
    8989.320    -11.304  -0.160  6.52999E-02  2.61123E-01 -1.95823E-01
    8989.363    -11.262  -0.120  6.63140E-02  2.69385E-01 -2.03071E-01
    8989.394    -11.231  -0.080  6.70461E-02  2.75339E-01 -2.08293E-01
    8989.418    -11.207   0.000  6.76350E-02  2.80125E-01 -2.12490E-01
    8989.473    -11.152   0.120  6.90538E-02  2.90916E-01 -2.21862E-01
    8989.516    -11.109   0.160  7.01360E-02  2.99306E-01 -2.29170E-01
    8989.570    -11.054   0.200  7.15265E-02  3.10029E-01 -2.38502E-01
    8989.637    -10.987   0.240  7.31818E-02  3.22923E-01 -2.49741E-01
    8989.717    -10.908   0.280  7.51649E-02  3.37781E-01 -2.62616E-01
    8989.808    -10.817   0.320  7.73960E-02  3.54174E-01 -2.76778E-01
    8989.912    -10.713   0.360  7.99369E-02  3.71689E-01 -2.91752E-01
    8990.028    -10.597   0.400  8.27698E-02  3.89819E-01 -3.07049E-01
    8990.156    -10.469   0.440  8.59385E-02  4.08100E-01 -3.22162E-01
    8990.296    -10.329   0.480  8.94860E-02  4.26211E-01 -3.36725E-01
    8990.448    -10.177   0.520  9.34287E-02  4.43913E-01 -3.50485E-01
    8990.613    -10.012   0.560  9.76644E-02  4.61087E-01 -3.63422E-01
    8990.790     -9.835   0.600  1.02042E-01  4.77744E-01 -3.75701E-01
    8990.979     -9.646   0.640  1.06262E-01  4.93895E-01 -3.87633E-01
    8991.180     -9.445   0.680  1.10115E-01  5.09622E-01 -3.99507E-01
    8991.393     -9.232   0.720  1.13652E-01  5.25017E-01 -4.11365E-01
    8991.619     -9.006   0.760  1.17368E-01  5.40134E-01 -4.22766E-01
    8991.856     -8.768   0.800  1.22003E-01  5.55075E-01 -4.33072E-01
    8992.106     -8.518   0.840  1.28261E-01  5.69873E-01 -4.41611E-01
    8992.368     -8.256   0.880  1.36763E-01  5.84568E-01 -4.47805E-01
    8992.643     -7.982   0.920  1.48210E-01  5.99209E-01 -4.50999E-01
    8992.929     -7.695   0.960  1.63618E-01  6.13834E-01 -4.50216E-01
    8993.228     -7.397   1.000  1.84482E-01  6.28411E-01 -4.43929E-01
    8993.539     -7.086   1.040  2.13070E-01  6.42961E-01 -4.29891E-01
    8993.862     -6.763   1.080  2.52524E-01  6.57478E-01 -4.04955E-01
    8994.197     -6.427   1.120  3.06654E-01  6.71951E-01 -3.65296E-01
    8994.545     -6.080   1.160  3.77184E-01  6.86361E-01 -3.09177E-01
    8994.904     -5.720   1.200  4.57073E-01  7.00690E-01 -2.43616E-01
    8995.276     -5.349   1.240  5.29922E-01  7.14933E-01 -1.85012E-01
    8995.660     -4.964   1.280  5.84312E-01  7.29025E-01 -1.44713E-01
    8996.057     -4.568   1.320  6.14912E-01  7.42960E-01 -1.28048E-01
    8996.465     -4.160   1.360  6.18255E-01  7.56728E-01 -1.38472E-01
    8996.886     -3.739   1.400  6.11106E-01  7.70276E-01 -1.59170E-01
    8997.318     -3.306   1.440  6.13202E-01  7.83577E-01 -1.70375E-01
    8997.763     -2.861   1.480  6.26492E-01  7.96620E-01 -1.70128E-01
    8998.221     -2.404   1.520  6.47545E-01  8.09352E-01 -1.61807E-01
    8998.690     -1.935   1.560  6.76084E-01  8.21763E-01 -1.45679E-01
    8999.172     -1.453   1.600  7.18884E-01  8.33846E-01 -1.14963E-01
    8999.665     -0.959   1.640  7.88901E-01  8.45549E-01 -5.66484E-02
    9000.171     -0.453   1.680  8.99780E-01  8.56864E-01  4.29159E-02
    9000.689      0.065   1.720  1.04884E+00  8.67762E-01  1.81074E-01
    9001.220      0.595   1.760  1.21366E+00  8.78260E-01  3.35402E-01
    9001.762      1.138   1.800  1.35839E+00  8.88309E-01  4.70077E-01
    9002.317      1.692   1.840  1.46036E+00  8.97926E-01  5.62431E-01
    9002.884      2.259   1.880  1.54287E+00  9.07068E-01  6.35798E-01
    9003.463      2.838   1.920  1.61620E+00  9.15774E-01  7.00430E-01
    9004.054      3.430   1.960  1.67021E+00  9.24021E-01  7.46185E-01
    9004.658      4.033   2.000  1.70374E+00  9.31811E-01  7.71932E-01
    9005.274      4.649   2.040  1.71348E+00  9.39124E-01  7.74354E-01
    9005.902      5.277   2.080  1.68060E+00  9.45981E-01  7.34622E-01
    9006.542      5.917   2.120  1.57095E+00  9.52407E-01  6.18540E-01
    9007.194      6.569   2.160  1.38804E+00  9.58364E-01  4.29674E-01
    9007.858      7.234   2.200  1.19836E+00  9.63897E-01  2.34462E-01
    9008.535      7.910   2.240  1.05341E+00  9.68992E-01  8.44132E-02
    9009.224      8.599   2.280  9.56064E-01  9.73696E-01 -1.76318E-02
    9009.925      9.300   2.320  8.89388E-01  9.77974E-01 -8.85858E-02
    9010.638     10.013   2.360  8.43490E-01  9.81874E-01 -1.38384E-01
    9011.364     10.739   2.400  8.14465E-01  9.85402E-01 -1.70937E-01
    9012.101     11.476   2.440  7.97354E-01  9.88569E-01 -1.91215E-01
    9012.851     12.226   2.480  7.88158E-01  9.91401E-01 -2.03243E-01
    9013.613     12.988   2.520  7.94278E-01  9.93906E-01 -1.99628E-01
    9014.387     13.762   2.560  8.19912E-01  9.96093E-01 -1.76181E-01
    9015.173     14.549   2.600  8.54752E-01  9.97992E-01 -1.43239E-01
    9015.972     15.347   2.640  8.92682E-01  9.99629E-01 -1.06947E-01
    9016.783     16.158   2.680  9.27681E-01  1.00099E+00 -7.33125E-02
    9017.606     16.981   2.720  9.54450E-01  1.00211E+00 -4.76635E-02
    9018.441     17.816   2.760  9.70493E-01  1.00300E+00 -3.25040E-02
    9019.288     18.664   2.800  9.76324E-01  1.00369E+00 -2.73695E-02
    9020.148     19.523   2.840  9.73351E-01  1.00417E+00 -3.08187E-02
    9021.020     20.395   2.880  9.63513E-01  1.00450E+00 -4.09828E-02
    9021.903     21.279   2.920  9.48506E-01  1.00464E+00 -5.61339E-02
    9022.800     22.175   2.960  9.30464E-01  1.00465E+00 -7.41822E-02
    9023.708     23.083   3.000  9.11684E-01  1.00450E+00 -9.28190E-02
    9024.628     24.004   3.040  8.93799E-01  1.00426E+00 -1.10461E-01
    9025.561     24.936   3.080  8.78413E-01  1.00390E+00 -1.25486E-01
    9026.506     25.881   3.120  8.67343E-01  1.00345E+00 -1.36108E-01
    9027.463     26.838   3.160  8.61323E-01  1.00290E+00 -1.41575E-01
    9028.432     27.807   3.200  8.60396E-01  1.00229E+00 -1.41892E-01
    9029.414     28.789   3.240  8.64104E-01  1.00163E+00 -1.37523E-01
    9030.407     29.783   3.280  8.71474E-01  1.00090E+00 -1.29424E-01
    9031.413     30.788   3.320  8.81713E-01  1.00013E+00 -1.18415E-01
    9032.431     31.806   3.360  8.94337E-01  9.99342E-01 -1.05004E-01
    9033.461     32.837   3.400  9.08492E-01  9.98523E-01 -9.00312E-02
    9034.504     33.879   3.440  9.22800E-01  9.97695E-01 -7.48957E-02
    9035.558     34.934   3.480  9.35578E-01  9.96841E-01 -6.12637E-02
    9036.625     36.000   3.520  9.45393E-01  9.96006E-01 -5.06131E-02
    9037.704     37.079   3.560  9.51701E-01  9.95173E-01 -4.34719E-02
    9038.795     38.171   3.600  9.55552E-01  9.94342E-01 -3.87902E-02
    9039.899     39.274   3.640  9.59143E-01  9.93518E-01 -3.43750E-02
    9041.014     40.390   3.680  9.64664E-01  9.92724E-01 -2.80601E-02
    9042.142     41.517   3.720  9.73693E-01  9.91961E-01 -1.82683E-02
    9043.282     42.657   3.760  9.86959E-01  9.91211E-01 -4.25238E-03
    9044.434     43.809   3.800  1.00441E+00  9.90496E-01  1.39156E-02
    9045.599     44.974   3.840  1.02526E+00  9.89818E-01  3.54452E-02
    9046.775     46.150   3.880  1.04833E+00  9.89180E-01  5.91479E-02
    9047.964     47.339   3.920  1.07214E+00  9.88581E-01  8.35593E-02
    9049.165     48.540   3.960  1.09530E+00  9.88046E-01  1.07252E-01
    9050.378     49.753   4.000  1.11649E+00  9.87529E-01  1.28960E-01
    9051.603     50.978   4.040  1.13453E+00  9.87052E-01  1.47475E-01
    9052.841     52.216   4.080  1.14809E+00  9.86641E-01  1.61450E-01
    9054.090     53.465   4.120  1.15586E+00  9.86272E-01  1.69585E-01
    9055.352     54.727   4.160  1.15695E+00  9.85945E-01  1.71001E-01
    9056.626     56.001   4.200  1.15084E+00  9.85659E-01  1.65183E-01
    9057.912     57.288   4.240  1.13757E+00  9.85417E-01  1.52154E-01
    9059.211     58.586   4.280  1.11804E+00  9.85239E-01  1.32805E-01
    9060.521     59.897   4.320  1.09408E+00  9.85103E-01  1.08979E-01
    9061.844     61.220   4.360  1.06802E+00  9.84986E-01  8.30337E-02
    9063.179     62.555   4.400  1.04225E+00  9.84931E-01  5.73144E-02
    9064.527     63.902   4.440  1.01850E+00  9.84917E-01  3.35875E-02
    9065.886     65.261   4.480  9.97704E-01  9.84942E-01  1.27616E-02
    9067.258     66.633   4.520  9.79853E-01  9.85007E-01 -5.15395E-03
    9068.641     68.017   4.560  9.64373E-01  9.85108E-01 -2.07352E-02
    9070.037     69.413   4.600  9.50612E-01  9.85225E-01 -3.46129E-02
    9071.445     70.821   4.640  9.38355E-01  9.85401E-01 -4.70461E-02
    9072.866     72.241   4.680  9.27756E-01  9.85589E-01 -5.78327E-02
    9074.298     73.674   4.720  9.19233E-01  9.85811E-01 -6.65777E-02
    9075.743     75.118   4.760  9.13066E-01  9.86065E-01 -7.29987E-02
    9077.200     76.575   4.800  9.09202E-01  9.86328E-01 -7.71261E-02
    9078.669     78.044   4.840  9.07222E-01  9.86599E-01 -7.93770E-02
    9080.150     79.526   4.880  9.06601E-01  9.86900E-01 -8.02999E-02
    9081.644     81.019   4.920  9.07047E-01  9.87231E-01 -8.01844E-02
    9083.150     82.525   4.960  9.08661E-01  9.87566E-01 -7.89057E-02
    9084.668     84.043   5.000  9.11816E-01  9.87904E-01 -7.60879E-02
    9086.198     85.573   5.040  9.16774E-01  9.88244E-01 -7.14700E-02
    9087.740     87.115   5.080  9.23558E-01  9.88582E-01 -6.50237E-02
    9089.294     88.670   5.120  9.32120E-01  9.88920E-01 -5.67994E-02
    9090.861     90.236   5.160  9.42609E-01  9.89257E-01 -4.66478E-02
    9092.440     91.815   5.200  9.55416E-01  9.89592E-01 -3.41761E-02
    9094.031     93.406   5.240  9.70640E-01  9.89926E-01 -1.92854E-02
    9095.634     95.010   5.280  9.87527E-01  9.90253E-01 -2.72539E-03
    9097.250     96.625   5.320  1.00426E+00  9.90552E-01  1.37123E-02
    9098.877     98.253   5.360  1.01857E+00  9.90844E-01  2.77291E-02
    9100.517     99.892   5.400  1.02883E+00  9.91130E-01  3.76980E-02
    9102.169    101.544   5.440  1.03494E+00  9.91385E-01  4.35525E-02
    9103.833    103.209   5.480  1.03796E+00  9.91629E-01  4.63279E-02
    9105.510    104.885   5.520  1.03873E+00  9.91840E-01  4.68938E-02
    9107.198    106.574   5.560  1.03735E+00  9.92016E-01  4.53295E-02
    9108.899    108.274   5.600  1.03327E+00  9.92180E-01  4.10897E-02
    9110.612    109.987   5.640  1.02585E+00  9.92309E-01  3.35461E-02
    9112.337    111.712   5.680  1.01525E+00  9.92402E-01  2.28447E-02
    9114.075    113.450   5.720  1.00299E+00  9.92484E-01  1.05093E-02
    9115.824    115.199   5.760  9.91394E-01  9.92530E-01 -1.13567E-03
    9117.586    116.961   5.800  9.82082E-01  9.92538E-01 -1.04556E-02
    9119.360    118.735   5.840  9.74930E-01  9.92508E-01 -1.75786E-02
    9121.146    120.521   5.880  9.68353E-01  9.92441E-01 -2.40873E-02
    9122.944    122.319   5.920  9.60850E-01  9.92337E-01 -3.14868E-02
    9124.755    124.130   5.960  9.52355E-01  9.92221E-01 -3.98660E-02
    9126.577    125.953   6.000  9.44254E-01  9.92050E-01 -4.77958E-02
