# # comment:                                                     FEFF 9.9.1  
# # Source:
# # Structure
# # Reduced
# # space
# # abc:
# # angles:111.293927
# # sites:
# # POT  SCF 100  7.0000   0, screened core-hole, AFOLP (folp(0)= 1.150)
# # Abs   Z=29 Rmt= 1.276 Rnm= 1.343 K  shell
# # Pot 1 Z= 3 Rmt= 1.329 Rnm= 1.395
# # Pot 2 Z=29 Rmt= 1.272 Rnm= 1.342
# # Pot 3 Z=15 Rmt= 0.941 Rnm= 1.155
# # Pot 4 Z= 8 Rmt= 0.916 Rnm= 1.044
# # Gam_ch=1.729E+00 H-L exch Vi= 0.000E+00 Vr= 0.000E+00
# # Mu=-6.204E+00eV kf=2.421E+00 Vint=-1.728E+01eV Rs_int= 1.498
# FMS rfms= 9.0000
# # PATH  Rmax=-1.000,  Keep_limit= 0.00, Heap_limit 0.00  Pwcrit= 2.50%
#  S02=0.950  Temp=   0.00  Debye_temp=   0.00  Global_sig2= 0.00000
#  Energy zero shift, vr, vi    0.00000E+00   0.00000E+00
#  Curved wave amplitude ratio filter   4.000%
#     file         sig2 tot  cw amp ratio   deg  nlegs   reff  inp sig2
#     0/   0 paths used
#  xsedge+ 50, used to normalize mu           2.4774E-04
#  -----------------------------------------------------------------------
#  omega    e    k    mu    mu0     chi     @#
    8983.499    -10.014  -1.000  4.82394E-02  5.55724E-02 -7.33303E-03
    8983.798     -9.715  -0.960  5.12668E-02  5.96922E-02 -8.42540E-03
    8984.084     -9.429  -0.920  5.45692E-02  6.42793E-02 -9.71009E-03
    8984.359     -9.155  -0.880  5.81786E-02  6.94034E-02 -1.12248E-02
    8984.621     -8.892  -0.840  6.21308E-02  7.51458E-02 -1.30150E-02
    8984.871     -8.643  -0.800  6.64657E-02  8.16010E-02 -1.51353E-02
    8985.108     -8.405  -0.760  7.12271E-02  8.88774E-02 -1.76503E-02
    8985.334     -8.179  -0.720  7.64618E-02  9.70979E-02 -2.06360E-02
    8985.547     -7.966  -0.680  8.22189E-02  1.06398E-01 -2.41788E-02
    8985.749     -7.765  -0.640  8.85468E-02  1.16920E-01 -2.83732E-02
    8985.938     -7.576  -0.600  9.54896E-02  1.28806E-01 -3.33161E-02
    8986.114     -7.399  -0.560  1.03080E-01  1.42175E-01 -3.90950E-02
    8986.279     -7.234  -0.520  1.11332E-01  1.57102E-01 -4.57693E-02
    8986.431     -7.082  -0.480  1.20226E-01  1.73570E-01 -5.33439E-02
    8986.572     -6.942  -0.440  1.29698E-01  1.91436E-01 -6.17383E-02
    8986.700     -6.814  -0.400  1.39623E-01  2.10385E-01 -7.07618E-02
    8986.815     -6.698  -0.360  1.49814E-01  2.29922E-01 -8.01080E-02
    8986.919     -6.594  -0.320  1.60024E-01  2.49407E-01 -8.93827E-02
    8987.010     -6.503  -0.280  1.69961E-01  2.68126E-01 -9.81643E-02
    8987.090     -6.424  -0.240  1.79318E-01  2.85396E-01 -1.06078E-01
    8987.157     -6.357  -0.200  1.87795E-01  3.00648E-01 -1.12853E-01
    8987.212     -6.302  -0.160  1.95123E-01  3.13468E-01 -1.18345E-01
    8987.254     -6.259  -0.120  2.01077E-01  3.23595E-01 -1.22518E-01
    8987.285     -6.229  -0.080  2.05479E-01  3.30885E-01 -1.25405E-01
    8987.309     -6.204   0.000  2.09142E-01  3.36738E-01 -1.27596E-01
    8987.364     -6.149   0.120  2.17430E-01  3.49942E-01 -1.32512E-01
    8987.407     -6.107   0.160  2.23984E-01  3.60174E-01 -1.36190E-01
    8987.462     -6.052   0.200  2.32668E-01  3.73226E-01 -1.40558E-01
    8987.529     -5.985   0.240  2.43637E-01  3.88879E-01 -1.45242E-01
    8987.608     -5.905   0.280  2.57115E-01  4.06817E-01 -1.49702E-01
    8987.699     -5.814   0.320  2.73342E-01  4.26551E-01 -1.53209E-01
    8987.803     -5.710   0.360  2.92506E-01  4.47436E-01 -1.54931E-01
    8987.919     -5.595   0.400  3.14825E-01  4.68856E-01 -1.54031E-01
    8988.047     -5.467   0.440  3.40358E-01  4.90206E-01 -1.49849E-01
    8988.187     -5.326   0.480  3.68865E-01  5.11058E-01 -1.42193E-01
    8988.339     -5.174   0.520  3.99477E-01  5.31087E-01 -1.31610E-01
    8988.504     -5.009   0.560  4.30520E-01  5.50161E-01 -1.19641E-01
    8988.681     -4.833   0.600  4.59695E-01  5.68269E-01 -1.08574E-01
    8988.870     -4.644   0.640  4.84925E-01  5.85458E-01 -1.00534E-01
    8989.071     -4.442   0.680  5.05256E-01  6.01838E-01 -9.65821E-02
    8989.284     -4.229   0.720  5.20805E-01  6.17492E-01 -9.66869E-02
    8989.510     -4.003   0.760  5.32143E-01  6.32564E-01 -1.00421E-01
    8989.748     -3.766   0.800  5.39858E-01  6.47148E-01 -1.07290E-01
    8989.997     -3.516   0.840  5.45341E-01  6.61305E-01 -1.15964E-01
    8990.260     -3.254   0.880  5.51662E-01  6.75140E-01 -1.23478E-01
    8990.534     -2.979   0.920  5.62389E-01  6.88704E-01 -1.26316E-01
    8990.820     -2.693   0.960  5.79251E-01  7.02016E-01 -1.22765E-01
    8991.119     -2.394   1.000  6.00456E-01  7.15122E-01 -1.14665E-01
    8991.430     -2.083   1.040  6.20893E-01  7.28038E-01 -1.07145E-01
    8991.753     -1.760   1.080  6.36293E-01  7.40771E-01 -1.04478E-01
    8992.088     -1.425   1.120  6.47778E-01  7.53364E-01 -1.05587E-01
    8992.436     -1.077   1.160  6.59791E-01  7.65752E-01 -1.05961E-01
    8992.795     -0.718   1.200  6.75089E-01  7.77985E-01 -1.02896E-01
    8993.167     -0.346   1.240  6.93207E-01  7.90028E-01 -9.68216E-02
    8993.551      0.038   1.280  7.15160E-01  8.01847E-01 -8.66865E-02
    8993.948      0.434   1.320  7.45592E-01  8.13480E-01 -6.78882E-02
    8994.356      0.843   1.360  7.85982E-01  8.24869E-01 -3.88869E-02
    8994.777      1.263   1.400  8.34765E-01  8.36010E-01 -1.24507E-03
    8995.210      1.696   1.440  8.93145E-01  8.46900E-01  4.62447E-02
    8995.655      2.141   1.480  9.58676E-01  8.57494E-01  1.01182E-01
    8996.112      2.598   1.520  1.01944E+00  8.67809E-01  1.51628E-01
    8996.581      3.068   1.560  1.06573E+00  8.77779E-01  1.87947E-01
    8997.063      3.549   1.600  1.09743E+00  8.87442E-01  2.09986E-01
    8997.556      4.043   1.640  1.11228E+00  8.96770E-01  2.15515E-01
    8998.062      4.549   1.680  1.11620E+00  9.05720E-01  2.10484E-01
    8998.581      5.067   1.720  1.13403E+00  9.14330E-01  2.19697E-01
    8999.111      5.598   1.760  1.17852E+00  9.22556E-01  2.55966E-01
    8999.653      6.140   1.800  1.23605E+00  9.30395E-01  3.05654E-01
    9000.208      6.695   1.840  1.28460E+00  9.37847E-01  3.46751E-01
    9000.775      7.262   1.880  1.31100E+00  9.44910E-01  3.66091E-01
    9001.354      7.841   1.920  1.30909E+00  9.51563E-01  3.57526E-01
    9001.946      8.432   1.960  1.28206E+00  9.57829E-01  3.24230E-01
    9002.549      9.036   2.000  1.24378E+00  9.63709E-01  2.80071E-01
    9003.165      9.652   2.040  1.20763E+00  9.69204E-01  2.38425E-01
    9003.793     10.279   2.080  1.18030E+00  9.74298E-01  2.05999E-01
    9004.433     10.919   2.120  1.16225E+00  9.79034E-01  1.83215E-01
    9005.085     11.572   2.160  1.14813E+00  9.83377E-01  1.64749E-01
    9005.749     12.236   2.200  1.12963E+00  9.87369E-01  1.42265E-01
    9006.426     12.913   2.240  1.10183E+00  9.90996E-01  1.10833E-01
    9007.115     13.602   2.280  1.06849E+00  9.94264E-01  7.42261E-02
    9007.816     14.303   2.320  1.03775E+00  9.97220E-01  4.05262E-02
    9008.529     15.016   2.360  1.01351E+00  9.99850E-01  1.36621E-02
    9009.255     15.741   2.400  9.97498E-01  1.00216E+00 -4.66298E-03
    9009.992     16.479   2.440  9.91179E-01  1.00418E+00 -1.30005E-02
    9010.742     17.229   2.480  9.93498E-01  1.00593E+00 -1.24349E-02
    9011.504     17.991   2.520  1.00166E+00  1.00741E+00 -5.75159E-03
    9012.278     18.765   2.560  1.01049E+00  1.00863E+00  1.85539E-03
    9013.065     19.551   2.600  1.01290E+00  1.00962E+00  3.28592E-03
    9013.863     20.350   2.640  1.00673E+00  1.01036E+00 -3.62671E-03
    9014.674     21.161   2.680  9.97352E-01  1.01092E+00 -1.35642E-02
    9015.497     21.984   2.720  9.85129E-01  1.01127E+00 -2.61437E-02
    9016.332     22.819   2.760  9.63162E-01  1.01143E+00 -4.82716E-02
    9017.179     23.666   2.800  9.31597E-01  1.01143E+00 -7.98332E-02
    9018.039     24.526   2.840  9.07562E-01  1.01129E+00 -1.03726E-01
    9018.911     25.397   2.880  8.95941E-01  1.01099E+00 -1.15052E-01
    9019.795     26.281   2.920  8.90759E-01  1.01059E+00 -1.19836E-01
    9020.691     27.177   2.960  8.88596E-01  1.01006E+00 -1.21461E-01
    9021.599     28.086   3.000  8.88061E-01  1.00945E+00 -1.21387E-01
    9022.519     29.006   3.040  8.88509E-01  1.00873E+00 -1.20221E-01
    9023.452     29.939   3.080  8.89639E-01  1.00793E+00 -1.18292E-01
    9024.397     30.884   3.120  8.91731E-01  1.00706E+00 -1.15326E-01
    9025.354     31.841   3.160  8.95349E-01  1.00615E+00 -1.10805E-01
    9026.323     32.810   3.200  9.00755E-01  1.00519E+00 -1.04431E-01
    9027.305     33.792   3.240  9.08077E-01  1.00418E+00 -9.60999E-02
    9028.298     34.785   3.280  9.17298E-01  1.00315E+00 -8.58563E-02
    9029.304     35.791   3.320  9.27856E-01  1.00210E+00 -7.42436E-02
    9030.322     36.809   3.360  9.39273E-01  1.00104E+00 -6.17660E-02
    9031.353     37.839   3.400  9.50969E-01  9.99977E-01 -4.90082E-02
    9032.395     38.882   3.440  9.62458E-01  9.98935E-01 -3.64771E-02
    9033.450     39.936   3.480  9.73338E-01  9.97877E-01 -2.45387E-02
    9034.516     41.003   3.520  9.83363E-01  9.96846E-01 -1.34833E-02
    9035.595     42.082   3.560  9.92144E-01  9.95845E-01 -3.70117E-03
    9036.687     43.173   3.600  9.99332E-01  9.94857E-01  4.47506E-03
    9037.790     44.277   3.640  1.00488E+00  9.93902E-01  1.09824E-02
    9038.905     45.392   3.680  1.00897E+00  9.92985E-01  1.59899E-02
    9040.033     46.520   3.720  1.01196E+00  9.92106E-01  1.98514E-02
    9041.173     47.660   3.760  1.01432E+00  9.91266E-01  2.30512E-02
    9042.325     48.812   3.800  1.01657E+00  9.90468E-01  2.61072E-02
    9043.490     49.976   3.840  1.01918E+00  9.89713E-01  2.94683E-02
    9044.666     51.153   3.880  1.02243E+00  9.89024E-01  3.34100E-02
    9045.855     52.342   3.920  1.02627E+00  9.88379E-01  3.78894E-02
    9047.056     53.543   3.960  1.03035E+00  9.87781E-01  4.25645E-02
    9048.269     54.756   4.000  1.03422E+00  9.87251E-01  4.69646E-02
    9049.494     55.981   4.040  1.03755E+00  9.86770E-01  5.07828E-02
    9050.732     57.218   4.080  1.04024E+00  9.86355E-01  5.38810E-02
    9051.981     58.468   4.120  1.04221E+00  9.85987E-01  5.62215E-02
    9053.243     59.730   4.160  1.04341E+00  9.85665E-01  5.77435E-02
    9054.517     61.004   4.200  1.04368E+00  9.85412E-01  5.82719E-02
    9055.803     62.290   4.240  1.04267E+00  9.85206E-01  5.74620E-02
    9057.102     63.589   4.280  1.04001E+00  9.85069E-01  5.49418E-02
    9058.413     64.899   4.320  1.03556E+00  9.84975E-01  5.05887E-02
    9059.735     66.222   4.360  1.02957E+00  9.84925E-01  4.46421E-02
    9061.070     67.557   4.400  1.02270E+00  9.84919E-01  3.77759E-02
    9062.418     68.904   4.440  1.01590E+00  9.84977E-01  3.09241E-02
    9063.777     70.264   4.480  1.00995E+00  9.85056E-01  2.48989E-02
    9065.149     71.635   4.520  1.00530E+00  9.85198E-01  2.01068E-02
    9066.532     73.019   4.560  1.00186E+00  9.85382E-01  1.64806E-02
    9067.928     74.415   4.600  9.99203E-01  9.85605E-01  1.35977E-02
    9069.337     75.823   4.640  9.96756E-01  9.85864E-01  1.08912E-02
    9070.757     77.244   4.680  9.94004E-01  9.86140E-01  7.86436E-03
    9072.189     78.676   4.720  9.90673E-01  9.86471E-01  4.20168E-03
    9073.634     80.121   4.760  9.86634E-01  9.86814E-01 -1.80112E-04
    9075.091     81.578   4.800  9.82099E-01  9.87168E-01 -5.06834E-03
    9076.560     83.047   4.840  9.77528E-01  9.87572E-01 -1.00445E-02
    9078.042     84.528   4.880  9.73357E-01  9.87964E-01 -1.46074E-02
    9079.535     86.022   4.920  9.70024E-01  9.88383E-01 -1.83584E-02
    9081.041     87.528   4.960  9.67642E-01  9.88807E-01 -2.11645E-02
    9082.559     89.045   5.000  9.66065E-01  9.89256E-01 -2.31909E-02
    9084.089     90.576   5.040  9.64840E-01  9.89685E-01 -2.48446E-02
    9085.631     92.118   5.080  9.63532E-01  9.90136E-01 -2.66041E-02
    9087.186     93.672   5.120  9.61794E-01  9.90586E-01 -2.87918E-02
    9088.752     95.239   5.160  9.59596E-01  9.91010E-01 -3.14144E-02
    9090.331     96.818   5.200  9.57333E-01  9.91429E-01 -3.40965E-02
    9091.922     98.409   5.240  9.55627E-01  9.91844E-01 -3.62170E-02
    9093.525    100.012   5.280  9.55112E-01  9.92252E-01 -3.71397E-02
    9095.141    101.628   5.320  9.56173E-01  9.92630E-01 -3.64568E-02
    9096.768    103.255   5.360  9.58882E-01  9.92999E-01 -3.41171E-02
    9098.408    104.895   5.400  9.62984E-01  9.93336E-01 -3.03527E-02
    9100.060    106.547   5.440  9.68119E-01  9.93662E-01 -2.55427E-02
    9101.724    108.211   5.480  9.73849E-01  9.93952E-01 -2.01028E-02
    9103.401    109.888   5.520  9.79741E-01  9.94204E-01 -1.44627E-02
    9105.089    111.576   5.560  9.85358E-01  9.94420E-01 -9.06144E-03
    9106.790    113.277   5.600  9.90270E-01  9.94621E-01 -4.35087E-03
    9108.503    114.990   5.640  9.93983E-01  9.94760E-01 -7.77442E-04
    9110.228    116.715   5.680  9.96234E-01  9.94884E-01  1.34980E-03
    9111.966    118.452   5.720  9.97003E-01  9.94969E-01  2.03332E-03
    9113.715    120.202   5.760  9.96637E-01  9.95015E-01  1.62255E-03
    9115.477    121.964   5.800  9.95686E-01  9.94997E-01  6.89292E-04
    9117.251    123.738   5.840  9.94810E-01  9.94962E-01 -1.51424E-04
    9119.037    125.524   5.880  9.94456E-01  9.94889E-01 -4.32686E-04
    9120.835    127.322   5.920  9.94812E-01  9.94776E-01  3.52707E-05
    9122.646    129.133   5.960  9.95748E-01  9.94595E-01  1.15257E-03
    9124.469    130.955   6.000  9.97000E-01  9.94375E-01  2.62554E-03
