# # comment:                                                     FEFF 9.9.1  
# # Source:
# # Structure
# # Reduced
# # space
# # abc:
# # angles:
# # sites:
# # POT  SCF 100  7.0000   0, screened core-hole, AFOLP (folp(0)= 1.150)
# # Abs   Z=29 Rmt= 1.174 Rnm= 1.286 K  shell
# # Pot 1 Z=56 Rmt= 1.926 Rnm= 1.985
# # Pot 2 Z=68 Rmt= 1.617 Rnm= 1.695
# # Pot 3 Z=29 Rmt= 1.174 Rnm= 1.286
# # Pot 4 Z= 8 Rmt= 1.086 Rnm= 1.136
# # Gam_ch=1.729E+00 H-L exch Vi= 0.000E+00 Vr= 0.000E+00
# # Mu=-9.248E+00eV kf=1.980E+00 Vint=-1.781E+01eV Rs_int= 1.832
# FMS rfms= 9.0000
# # PATH  Rmax=-1.000,  Keep_limit= 0.00, Heap_limit 0.00  Pwcrit= 2.50%
#  S02=0.950  Temp=   0.00  Debye_temp=   0.00  Global_sig2= 0.00000
#  Energy zero shift, vr, vi    0.00000E+00   0.00000E+00
#  Curved wave amplitude ratio filter   4.000%
#     file         sig2 tot  cw amp ratio   deg  nlegs   reff  inp sig2
#     0/   0 paths used
#  xsedge+ 50, used to normalize mu           2.4491E-04
#  -----------------------------------------------------------------------
#  omega    e    k    mu    mu0     chi     @#
    8985.189    -13.058  -1.000  3.81420E-02  5.62747E-02 -1.81327E-02
    8985.488    -12.759  -0.960  4.02716E-02  6.03915E-02 -2.01199E-02
    8985.774    -12.473  -0.920  4.26045E-02  6.49667E-02 -2.23622E-02
    8986.048    -12.199  -0.880  4.51721E-02  7.00676E-02 -2.48955E-02
    8986.311    -11.936  -0.840  4.80117E-02  7.57727E-02 -2.77609E-02
    8986.561    -11.686  -0.800  5.11674E-02  8.21727E-02 -3.10053E-02
    8986.798    -11.449  -0.760  5.46910E-02  8.93720E-02 -3.46810E-02
    8987.024    -11.223  -0.720  5.86421E-02  9.74880E-02 -3.88459E-02
    8987.237    -11.010  -0.680  6.30882E-02  1.06651E-01 -4.35623E-02
    8987.438    -10.809  -0.640  6.81018E-02  1.16996E-01 -4.88943E-02
    8987.627    -10.620  -0.600  7.37564E-02  1.28659E-01 -5.49026E-02
    8987.804    -10.443  -0.560  8.01172E-02  1.41754E-01 -6.16365E-02
    8987.969    -10.278  -0.520  8.72275E-02  1.56348E-01 -6.91206E-02
    8988.121    -10.126  -0.480  9.50889E-02  1.72427E-01 -7.73380E-02
    8988.261     -9.986  -0.440  1.03639E-01  1.89849E-01 -8.62101E-02
    8988.389     -9.858  -0.400  1.12730E-01  2.08312E-01 -9.55810E-02
    8988.505     -9.742  -0.360  1.22125E-01  2.27339E-01 -1.05213E-01
    8988.609     -9.638  -0.320  1.31507E-01  2.46312E-01 -1.14805E-01
    8988.700     -9.547  -0.280  1.40522E-01  2.64545E-01 -1.24023E-01
    8988.779     -9.468  -0.240  1.48828E-01  2.81377E-01 -1.32549E-01
    8988.847     -9.400  -0.200  1.56139E-01  2.96254E-01 -1.40114E-01
    8988.901     -9.346  -0.160  1.62256E-01  3.08769E-01 -1.46514E-01
    8988.944     -9.303  -0.120  1.67057E-01  3.18664E-01 -1.51607E-01
    8988.975     -9.272  -0.080  1.70487E-01  3.25793E-01 -1.55306E-01
    8988.999     -9.248   0.000  1.73198E-01  3.31521E-01 -1.58323E-01
    8989.054     -9.193   0.120  1.79323E-01  3.44457E-01 -1.65135E-01
    8989.096     -9.151   0.160  1.84008E-01  3.54490E-01 -1.70482E-01
    8989.151     -9.096   0.200  1.89869E-01  3.67323E-01 -1.77454E-01
    8989.218     -9.029   0.240  1.96622E-01  3.82746E-01 -1.86124E-01
    8989.298     -8.949   0.280  2.03881E-01  4.00475E-01 -1.96594E-01
    8989.389     -8.858   0.320  2.11043E-01  4.20065E-01 -2.09022E-01
    8989.493     -8.754   0.360  2.17249E-01  4.40945E-01 -2.23696E-01
    8989.609     -8.638   0.400  2.21582E-01  4.62502E-01 -2.40920E-01
    8989.737     -8.510   0.440  2.23276E-01  4.84219E-01 -2.60944E-01
    8989.877     -8.370   0.480  2.22010E-01  5.05639E-01 -2.83629E-01
    8990.029     -8.218   0.520  2.18198E-01  5.26496E-01 -3.08298E-01
    8990.194     -8.053   0.560  2.12971E-01  5.46665E-01 -3.33694E-01
    8990.371     -7.877   0.600  2.07692E-01  5.66114E-01 -3.58421E-01
    8990.560     -7.688   0.640  2.03583E-01  5.84857E-01 -3.81274E-01
    8990.761     -7.486   0.680  2.01527E-01  6.02991E-01 -4.01464E-01
    8990.974     -7.273   0.720  2.02056E-01  6.20624E-01 -4.18568E-01
    8991.200     -7.047   0.760  2.05474E-01  6.37801E-01 -4.32328E-01
    8991.437     -6.810   0.800  2.12002E-01  6.54640E-01 -4.42639E-01
    8991.687     -6.560   0.840  2.21691E-01  6.71163E-01 -4.49472E-01
    8991.949     -6.298   0.880  2.34684E-01  6.87460E-01 -4.52776E-01
    8992.224     -6.023   0.920  2.51484E-01  7.03523E-01 -4.52039E-01
    8992.510     -5.737   0.960  2.73320E-01  7.19375E-01 -4.46055E-01
    8992.809     -5.438   1.000  3.01975E-01  7.35048E-01 -4.33073E-01
    8993.120     -5.127   1.040  3.38939E-01  7.50501E-01 -4.11563E-01
    8993.443     -4.804   1.080  3.84378E-01  7.65750E-01 -3.81372E-01
    8993.778     -4.469   1.120  4.36587E-01  7.80782E-01 -3.44195E-01
    8994.126     -4.121   1.160  4.93297E-01  7.95539E-01 -3.02242E-01
    8994.485     -3.762   1.200  5.52622E-01  8.10020E-01 -2.57398E-01
    8994.857     -3.390   1.240  6.07698E-01  8.24201E-01 -2.16502E-01
    8995.241     -3.006   1.280  6.42671E-01  8.38035E-01 -1.95363E-01
    8995.637     -2.610   1.320  6.51776E-01  8.51513E-01 -1.99736E-01
    8996.046     -2.201   1.360  6.49189E-01  8.64587E-01 -2.15398E-01
    8996.467     -1.781   1.400  6.49408E-01  8.77249E-01 -2.27842E-01
    8996.899     -1.348   1.440  6.63509E-01  8.89449E-01 -2.25941E-01
    8997.344     -0.903   1.480  6.99784E-01  9.01159E-01 -2.01376E-01
    8997.802     -0.446   1.520  7.52555E-01  9.12391E-01 -1.59836E-01
    8998.271      0.024   1.560  7.89914E-01  9.23097E-01 -1.33183E-01
    8998.753      0.505   1.600  7.82629E-01  9.33296E-01 -1.50667E-01
    8999.246      0.999   1.640  7.63396E-01  9.42941E-01 -1.79544E-01
    8999.752      1.505   1.680  7.87912E-01  9.52028E-01 -1.64116E-01
    9000.270      2.023   1.720  8.84284E-01  9.60557E-01 -7.62737E-02
    9000.801      2.554   1.760  1.05439E+00  9.68529E-01  8.58586E-02
    9001.343      3.096   1.800  1.27607E+00  9.75945E-01  3.00128E-01
    9001.898      3.651   1.840  1.47980E+00  9.82809E-01  4.96994E-01
    9002.465      4.218   1.880  1.58672E+00  9.89125E-01  5.97595E-01
    9003.044      4.797   1.920  1.60188E+00  9.94896E-01  6.06988E-01
    9003.635      5.388   1.960  1.54365E+00  1.00013E+00  5.43514E-01
    9004.239      5.992   2.000  1.42351E+00  1.00488E+00  4.18628E-01
    9004.855      6.608   2.040  1.29573E+00  1.00911E+00  2.86621E-01
    9005.482      7.235   2.080  1.20933E+00  1.01287E+00  1.96466E-01
    9006.123      7.875   2.120  1.18333E+00  1.01617E+00  1.67165E-01
    9006.775      8.528   2.160  1.19569E+00  1.01904E+00  1.76653E-01
    9007.439      9.192   2.200  1.20290E+00  1.02147E+00  1.81425E-01
    9008.116      9.869   2.240  1.18546E+00  1.02352E+00  1.61942E-01
    9008.805     10.558   2.280  1.15472E+00  1.02519E+00  1.29533E-01
    9009.506     11.259   2.320  1.12908E+00  1.02652E+00  1.02565E-01
    9010.219     11.972   2.360  1.11766E+00  1.02752E+00  9.01476E-02
    9010.944     12.697   2.400  1.12010E+00  1.02819E+00  9.19088E-02
    9011.682     13.435   2.440  1.13005E+00  1.02858E+00  1.01465E-01
    9012.432     14.185   2.480  1.14859E+00  1.02872E+00  1.19876E-01
    9013.194     14.947   2.520  1.16919E+00  1.02863E+00  1.40560E-01
    9013.968     15.721   2.560  1.17716E+00  1.02830E+00  1.48859E-01
    9014.754     16.507   2.600  1.16498E+00  1.02777E+00  1.37213E-01
    9015.553     17.306   2.640  1.13560E+00  1.02709E+00  1.08506E-01
    9016.364     18.117   2.680  1.09735E+00  1.02623E+00  7.11241E-02
    9017.187     18.940   2.720  1.05853E+00  1.02523E+00  3.32997E-02
    9018.022     19.775   2.760  1.02389E+00  1.02410E+00 -2.17895E-04
    9018.869     20.622   2.800  9.94718E-01  1.02289E+00 -2.81684E-02
    9019.729     21.482   2.840  9.71403E-01  1.02156E+00 -5.01571E-02
    9020.600     22.353   2.880  9.53939E-01  1.02018E+00 -6.62382E-02
    9021.484     23.237   2.920  9.41651E-01  1.01872E+00 -7.70701E-02
    9022.381     24.133   2.960  9.33621E-01  1.01724E+00 -8.36202E-02
    9023.289     25.042   3.000  9.28493E-01  1.01570E+00 -8.72090E-02
    9024.209     25.962   3.040  9.25085E-01  1.01415E+00 -8.90665E-02
    9025.142     26.895   3.080  9.22408E-01  1.01260E+00 -9.01885E-02
    9026.087     27.840   3.120  9.19840E-01  1.01106E+00 -9.12222E-02
    9027.044     28.797   3.160  9.16713E-01  1.00951E+00 -9.27967E-02
    9028.013     29.766   3.200  9.12542E-01  1.00799E+00 -9.54461E-02
    9028.995     30.748   3.240  9.07060E-01  1.00650E+00 -9.94383E-02
    9029.988     31.741   3.280  9.00115E-01  1.00502E+00 -1.04909E-01
    9030.994     32.747   3.320  8.92047E-01  1.00361E+00 -1.11564E-01
    9032.012     33.765   3.360  8.83633E-01  1.00224E+00 -1.18610E-01
    9033.042     34.795   3.400  8.76065E-01  1.00092E+00 -1.24855E-01
    9034.085     35.838   3.440  8.70445E-01  9.99667E-01 -1.29222E-01
    9035.139     36.892   3.480  8.67744E-01  9.98465E-01 -1.30721E-01
    9036.206     37.959   3.520  8.68685E-01  9.97337E-01 -1.28653E-01
    9037.285     39.038   3.560  8.73436E-01  9.96285E-01 -1.22849E-01
    9038.376     40.129   3.600  8.81790E-01  9.95310E-01 -1.13519E-01
    9039.480     41.233   3.640  8.93457E-01  9.94392E-01 -1.00934E-01
    9040.595     42.348   3.680  9.08149E-01  9.93574E-01 -8.54252E-02
    9041.723     43.476   3.720  9.25335E-01  9.92816E-01 -6.74806E-02
    9042.863     44.616   3.760  9.44388E-01  9.92158E-01 -4.77694E-02
    9044.015     45.768   3.800  9.64188E-01  9.91561E-01 -2.73732E-02
    9045.179     46.932   3.840  9.83209E-01  9.91066E-01 -7.85748E-03
    9046.356     48.109   3.880  9.99797E-01  9.90653E-01  9.14463E-03
    9047.545     49.298   3.920  1.01291E+00  9.90298E-01  2.26143E-02
    9048.746     50.499   3.960  1.02242E+00  9.90046E-01  3.23758E-02
    9049.959     51.712   4.000  1.02901E+00  9.89874E-01  3.91350E-02
    9051.184     52.937   4.040  1.03396E+00  9.89759E-01  4.41961E-02
    9052.421     54.174   4.080  1.03875E+00  9.89743E-01  4.90037E-02
    9053.671     55.424   4.120  1.04442E+00  9.89785E-01  5.46323E-02
    9054.933     56.686   4.160  1.05129E+00  9.89901E-01  6.13940E-02
    9056.207     57.960   4.200  1.05847E+00  9.90092E-01  6.83801E-02
    9057.493     59.246   4.240  1.06393E+00  9.90337E-01  7.35891E-02
    9058.792     60.545   4.280  1.06553E+00  9.90655E-01  7.48726E-02
    9060.102     61.855   4.320  1.06208E+00  9.91045E-01  7.10380E-02
    9061.425     63.178   4.360  1.05394E+00  9.91483E-01  6.24551E-02
    9062.760     64.513   4.400  1.04295E+00  9.91967E-01  5.09849E-02
    9064.107     65.860   4.440  1.03177E+00  9.92519E-01  3.92516E-02
    9065.467     67.220   4.480  1.02293E+00  9.93111E-01  2.98213E-02
    9066.838     68.591   4.520  1.01840E+00  9.93722E-01  2.46782E-02
    9068.222     69.975   4.560  1.01935E+00  9.94395E-01  2.49502E-02
    9069.618     71.371   4.600  1.02575E+00  9.95107E-01  3.06463E-02
    9071.026     72.779   4.640  1.03646E+00  9.95832E-01  4.06236E-02
    9072.447     74.200   4.680  1.04944E+00  9.96590E-01  5.28457E-02
    9073.879     75.632   4.720  1.06221E+00  9.97378E-01  6.48312E-02
    9075.324     77.077   4.760  1.07232E+00  9.98174E-01  7.41437E-02
    9076.781     78.534   4.800  1.07786E+00  9.98974E-01  7.88839E-02
    9078.250     80.003   4.840  1.07785E+00  9.99777E-01  7.80737E-02
    9079.731     81.484   4.880  1.07223E+00  1.00060E+00  7.16317E-02
    9081.225     82.978   4.920  1.06157E+00  1.00141E+00  6.01608E-02
    9082.731     84.484   4.960  1.04707E+00  1.00223E+00  4.48442E-02
    9084.249     86.002   5.000  1.03045E+00  1.00302E+00  2.74314E-02
    9085.779     87.532   5.040  1.01373E+00  1.00379E+00  9.94523E-03
    9087.321     89.074   5.080  9.98739E-01  1.00457E+00 -5.82619E-03
    9088.875     90.628   5.120  9.86592E-01  1.00531E+00 -1.87200E-02
    9090.442     92.195   5.160  9.77573E-01  1.00602E+00 -2.84502E-02
    9092.021     93.774   5.200  9.71123E-01  1.00670E+00 -3.55742E-02
    9093.612     95.365   5.240  9.66187E-01  1.00735E+00 -4.11674E-02
    9095.215     96.968   5.280  9.61732E-01  1.00795E+00 -4.62197E-02
    9096.831     98.584   5.320  9.57428E-01  1.00853E+00 -5.11004E-02
    9098.458    100.211   5.360  9.53751E-01  1.00906E+00 -5.53132E-02
    9100.098    101.851   5.400  9.51696E-01  1.00953E+00 -5.78364E-02
    9101.750    103.503   5.440  9.52086E-01  1.00996E+00 -5.78690E-02
    9103.414    105.167   5.480  9.54877E-01  1.01033E+00 -5.54558E-02
    9105.091    106.844   5.520  9.59230E-01  1.01067E+00 -5.14353E-02
    9106.779    108.532   5.560  9.64148E-01  1.01093E+00 -4.67811E-02
    9108.480    110.233   5.600  9.69162E-01  1.01114E+00 -4.19824E-02
    9110.193    111.946   5.640  9.74211E-01  1.01131E+00 -3.71004E-02
    9111.918    113.671   5.680  9.79604E-01  1.01141E+00 -3.18043E-02
    9113.656    115.408   5.720  9.85393E-01  1.01146E+00 -2.60640E-02
    9115.405    117.158   5.760  9.91250E-01  1.01144E+00 -2.01846E-02
    9117.167    118.920   5.800  9.96318E-01  1.01137E+00 -1.50482E-02
    9118.941    120.694   5.840  9.99247E-01  1.01125E+00 -1.20031E-02
    9120.727    122.480   5.880  9.98995E-01  1.01106E+00 -1.20682E-02
    9122.525    124.278   5.920  9.95870E-01  1.01080E+00 -1.49320E-02
    9124.336    126.089   5.960  9.91875E-01  1.01049E+00 -1.86143E-02
    9126.158    127.911   6.000  9.88841E-01  1.01009E+00 -2.12478E-02
