# # comment:                                                     FEFF 9.9.1  
# # Source:
# # Structure
# # Reduced
# # space
# # abc:
# # angles:
# # sites:
# # POT  SCF 100  7.0000   0, screened core-hole, AFOLP (folp(0)= 1.150)
# # Abs   Z=29 Rmt= 1.276 Rnm= 1.351 K  shell
# # Pot 1 Z=29 Rmt= 1.276 Rnm= 1.351
# # Pot 2 Z=15 Rmt= 0.973 Rnm= 1.224
# # Pot 3 Z= 1 Rmt= 0.743 Rnm= 0.898
# # Pot 4 Z= 8 Rmt= 0.862 Rnm= 1.050
# # Gam_ch=1.729E+00 H-L exch Vi= 0.000E+00 Vr= 0.000E+00
# # Mu=-6.544E+00eV kf=2.371E+00 Vint=-1.551E+01eV Rs_int= 1.530
# FMS rfms= 9.0000
# # PATH  Rmax=-1.000,  Keep_limit= 0.00, Heap_limit 0.00  Pwcrit= 2.50%
#  S02=0.950  Temp=   0.00  Debye_temp=   0.00  Global_sig2= 0.00000
#  Energy zero shift, vr, vi    0.00000E+00   0.00000E+00
#  Curved wave amplitude ratio filter   4.000%
#     file         sig2 tot  cw amp ratio   deg  nlegs   reff  inp sig2
#     0/   0 paths used
#  xsedge+ 50, used to normalize mu           2.4634E-04
#  -----------------------------------------------------------------------
#  omega    e    k    mu    mu0     chi     @#
    8983.254    -10.354  -1.000  4.08339E-02  5.34482E-02 -1.26143E-02
    8983.553    -10.055  -0.960  4.31145E-02  5.73291E-02 -1.42146E-02
    8983.839     -9.769  -0.920  4.55738E-02  6.16417E-02 -1.60679E-02
    8984.114     -9.494  -0.880  4.82295E-02  6.64497E-02 -1.82202E-02
    8984.376     -9.232  -0.840  5.11005E-02  7.18271E-02 -2.07265E-02
    8984.626     -8.982  -0.800  5.42077E-02  7.78597E-02 -2.36519E-02
    8984.864     -8.744  -0.760  5.75731E-02  8.46459E-02 -2.70729E-02
    8985.089     -8.519  -0.720  6.12195E-02  9.22971E-02 -3.10776E-02
    8985.302     -8.306  -0.680  6.51701E-02  1.00936E-01 -3.57655E-02
    8985.504     -8.104  -0.640  6.94466E-02  1.10691E-01 -4.12443E-02
    8985.693     -7.915  -0.600  7.40668E-02  1.21690E-01 -4.76232E-02
    8985.869     -7.739  -0.560  7.90414E-02  1.34041E-01 -5.49997E-02
    8986.034     -7.574  -0.520  8.43687E-02  1.47809E-01 -6.34402E-02
    8986.186     -7.422  -0.480  9.00279E-02  1.62979E-01 -7.29510E-02
    8986.327     -7.281  -0.440  9.59719E-02  1.79418E-01 -8.34462E-02
    8986.455     -7.153  -0.400  1.02121E-01  1.96840E-01 -9.47192E-02
    8986.570     -7.038  -0.360  1.08360E-01  2.14795E-01 -1.06435E-01
    8986.674     -6.934  -0.320  1.14542E-01  2.32699E-01 -1.18156E-01
    8986.766     -6.842  -0.280  1.20502E-01  2.49902E-01 -1.29400E-01
    8986.845     -6.763  -0.240  1.26066E-01  2.65781E-01 -1.39715E-01
    8986.912     -6.696  -0.200  1.31073E-01  2.79813E-01 -1.48740E-01
    8986.967     -6.641  -0.160  1.35377E-01  2.91616E-01 -1.56238E-01
    8987.009     -6.599  -0.120  1.38860E-01  3.00945E-01 -1.62085E-01
    8987.040     -6.568  -0.080  1.41427E-01  3.07666E-01 -1.66239E-01
    8987.064     -6.544   0.000  1.43556E-01  3.13064E-01 -1.69507E-01
    8987.119     -6.489   0.120  1.48468E-01  3.25246E-01 -1.76777E-01
    8987.162     -6.446   0.160  1.52316E-01  3.34709E-01 -1.82393E-01
    8987.217     -6.391   0.200  1.57378E-01  3.46783E-01 -1.89405E-01
    8987.284     -6.324   0.240  1.63744E-01  3.61305E-01 -1.97561E-01
    8987.363     -6.245   0.280  1.71564E-01  3.78004E-01 -2.06440E-01
    8987.454     -6.154   0.320  1.80986E-01  3.96415E-01 -2.15429E-01
    8987.558     -6.050   0.360  1.92210E-01  4.16009E-01 -2.23799E-01
    8987.674     -5.934   0.400  2.05552E-01  4.36245E-01 -2.30693E-01
    8987.802     -5.806   0.440  2.21344E-01  4.56570E-01 -2.35226E-01
    8987.942     -5.666   0.480  2.40008E-01  4.76588E-01 -2.36580E-01
    8988.094     -5.514   0.520  2.62026E-01  4.96043E-01 -2.34017E-01
    8988.259     -5.349   0.560  2.87757E-01  5.14803E-01 -2.27046E-01
    8988.436     -5.172   0.600  3.17268E-01  5.32854E-01 -2.15587E-01
    8988.625     -4.983   0.640  3.49921E-01  5.50233E-01 -2.00312E-01
    8988.826     -4.782   0.680  3.84046E-01  5.67011E-01 -1.82965E-01
    8989.039     -4.569   0.720  4.17105E-01  5.83295E-01 -1.66190E-01
    8989.265     -4.343   0.760  4.46633E-01  5.99150E-01 -1.52517E-01
    8989.503     -4.105   0.800  4.71681E-01  6.14670E-01 -1.42990E-01
    8989.753     -3.855   0.840  4.92760E-01  6.29918E-01 -1.37158E-01
    8990.015     -3.593   0.880  5.10152E-01  6.44942E-01 -1.34790E-01
    8990.289     -3.319   0.920  5.23117E-01  6.59778E-01 -1.36660E-01
    8990.576     -3.032   0.960  5.32063E-01  6.74449E-01 -1.42387E-01
    8990.874     -2.734   1.000  5.39747E-01  6.88971E-01 -1.49224E-01
    8991.185     -2.423   1.040  5.48403E-01  7.03346E-01 -1.54943E-01
    8991.508     -2.100   1.080  5.57107E-01  7.17550E-01 -1.60443E-01
    8991.843     -1.765   1.120  5.63340E-01  7.31616E-01 -1.68276E-01
    8992.191     -1.417   1.160  5.66127E-01  7.45489E-01 -1.79363E-01
    8992.551     -1.057   1.200  5.66170E-01  7.59172E-01 -1.93002E-01
    8992.922     -0.686   1.240  5.64536E-01  7.72642E-01 -2.08107E-01
    8993.306     -0.301   1.280  5.64227E-01  7.85857E-01 -2.21630E-01
    8993.703      0.095   1.320  5.69821E-01  7.98810E-01 -2.28989E-01
    8994.111      0.503   1.360  5.85041E-01  8.11474E-01 -2.26433E-01
    8994.532      0.924   1.400  6.11810E-01  8.23824E-01 -2.12014E-01
    8994.965      1.357   1.440  6.48234E-01  8.35831E-01 -1.87597E-01
    8995.410      1.802   1.480  6.88512E-01  8.47489E-01 -1.58977E-01
    8995.867      2.259   1.520  7.29344E-01  8.58749E-01 -1.29405E-01
    8996.336      2.728   1.560  7.75394E-01  8.69625E-01 -9.42311E-02
    8996.818      3.210   1.600  8.34772E-01  8.80071E-01 -4.52989E-02
    8997.312      3.704   1.640  9.08907E-01  8.90102E-01  1.88048E-02
    8997.818      4.210   1.680  9.87054E-01  8.99673E-01  8.73804E-02
    8998.336      4.728   1.720  1.05532E+00  9.08803E-01  1.46520E-01
    8998.866      5.258   1.760  1.11264E+00  9.17468E-01  1.95174E-01
    8999.409      5.801   1.800  1.16701E+00  9.25688E-01  2.41323E-01
    8999.963      6.355   1.840  1.21934E+00  9.33424E-01  2.85916E-01
    9000.530      6.922   1.880  1.26365E+00  9.40716E-01  3.22938E-01
    9001.109      7.501   1.920  1.29269E+00  9.47525E-01  3.45165E-01
    9001.701      8.093   1.960  1.30242E+00  9.53896E-01  3.48526E-01
    9002.304      8.696   2.000  1.29272E+00  9.59814E-01  3.32906E-01
    9002.920      9.312   2.040  1.26082E+00  9.65282E-01  2.95537E-01
    9003.548      9.940   2.080  1.20968E+00  9.70327E-01  2.39357E-01
    9004.188     10.580   2.120  1.15746E+00  9.74976E-01  1.82482E-01
    9004.840     11.232   2.160  1.12203E+00  9.79196E-01  1.42834E-01
    9005.505     11.897   2.200  1.10691E+00  9.83034E-01  1.23878E-01
    9006.181     12.573   2.240  1.10436E+00  9.86498E-01  1.17860E-01
    9006.870     13.262   2.280  1.10699E+00  9.89598E-01  1.17395E-01
    9007.571     13.963   2.320  1.11426E+00  9.92382E-01  1.21881E-01
    9008.284     14.676   2.360  1.12555E+00  9.94818E-01  1.30732E-01
    9009.010     15.402   2.400  1.13594E+00  9.96955E-01  1.38988E-01
    9009.747     16.139   2.440  1.14225E+00  9.98804E-01  1.43444E-01
    9010.497     16.889   2.480  1.14443E+00  1.00037E+00  1.44059E-01
    9011.259     17.651   2.520  1.14521E+00  1.00171E+00  1.43499E-01
    9012.033     18.425   2.560  1.14685E+00  1.00281E+00  1.44042E-01
    9012.820     19.212   2.600  1.14587E+00  1.00367E+00  1.42195E-01
    9013.618     20.010   2.640  1.13457E+00  1.00435E+00  1.30217E-01
    9014.429     20.821   2.680  1.11371E+00  1.00483E+00  1.08874E-01
    9015.252     21.644   2.720  1.09083E+00  1.00515E+00  8.56834E-02
    9016.087     22.479   2.760  1.06270E+00  1.00531E+00  5.73938E-02
    9016.934     23.327   2.800  1.02455E+00  1.00533E+00  1.92211E-02
    9017.794     24.186   2.840  9.85297E-01  1.00525E+00 -1.99562E-02
    9018.666     25.058   2.880  9.50423E-01  1.00504E+00 -5.46132E-02
    9019.550     25.942   2.920  9.22198E-01  1.00473E+00 -8.25327E-02
    9020.446     26.838   2.960  9.00149E-01  1.00436E+00 -1.04212E-01
    9021.354     27.746   3.000  8.83219E-01  1.00389E+00 -1.20675E-01
    9022.275     28.667   3.040  8.70365E-01  1.00338E+00 -1.33011E-01
    9023.207     29.599   3.080  8.60602E-01  1.00283E+00 -1.42230E-01
    9024.152     30.544   3.120  8.53226E-01  1.00223E+00 -1.49000E-01
    9025.109     31.501   3.160  8.47725E-01  1.00158E+00 -1.53858E-01
    9026.078     32.470   3.200  8.43791E-01  1.00093E+00 -1.57137E-01
    9027.060     33.452   3.240  8.41468E-01  1.00026E+00 -1.58796E-01
    9028.054     34.446   3.280  8.40924E-01  9.99577E-01 -1.58653E-01
    9029.059     35.451   3.320  8.42087E-01  9.98910E-01 -1.56823E-01
    9030.077     36.469   3.360  8.44672E-01  9.98246E-01 -1.53573E-01
    9031.108     37.500   3.400  8.48778E-01  9.97588E-01 -1.48809E-01
    9032.150     38.542   3.440  8.54423E-01  9.96959E-01 -1.42537E-01
    9033.205     39.597   3.480  8.61979E-01  9.96362E-01 -1.34383E-01
    9034.271     40.663   3.520  8.72031E-01  9.95776E-01 -1.23745E-01
    9035.350     41.742   3.560  8.85165E-01  9.95226E-01 -1.10060E-01
    9036.442     42.834   3.600  9.01607E-01  9.94711E-01 -9.31045E-02
    9037.545     43.937   3.640  9.21240E-01  9.94213E-01 -7.29728E-02
    9038.661     45.053   3.680  9.43525E-01  9.93775E-01 -5.02504E-02
    9039.788     46.180   3.720  9.67257E-01  9.93380E-01 -2.61229E-02
    9040.928     47.320   3.760  9.91075E-01  9.93027E-01 -1.95144E-03
    9042.080     48.472   3.800  1.01364E+00  9.92736E-01  2.09023E-02
    9043.245     49.637   3.840  1.03359E+00  9.92466E-01  4.11260E-02
    9044.421     50.813   3.880  1.05015E+00  9.92237E-01  5.79130E-02
    9045.610     52.002   3.920  1.06307E+00  9.92071E-01  7.10027E-02
    9046.811     53.203   3.960  1.07246E+00  9.91950E-01  8.05053E-02
    9048.024     54.416   4.000  1.07871E+00  9.91870E-01  8.68411E-02
    9049.249     55.641   4.040  1.08254E+00  9.91832E-01  9.07104E-02
    9050.487     56.879   4.080  1.08469E+00  9.91835E-01  9.28506E-02
    9051.736     58.128   4.120  1.08574E+00  9.91901E-01  9.38358E-02
    9052.998     59.390   4.160  1.08601E+00  9.91985E-01  9.40223E-02
    9054.272     60.664   4.200  1.08553E+00  9.92107E-01  9.34268E-02
    9055.559     61.951   4.240  1.08404E+00  9.92269E-01  9.17692E-02
    9056.857     63.249   4.280  1.08116E+00  9.92490E-01  8.86650E-02
    9058.168     64.560   4.320  1.07651E+00  9.92728E-01  8.37807E-02
    9059.490     65.882   4.360  1.06989E+00  9.92998E-01  7.68943E-02
    9060.826     67.218   4.400  1.06135E+00  9.93281E-01  6.80707E-02
    9062.173     68.565   4.440  1.05141E+00  9.93597E-01  5.78141E-02
    9063.532     69.924   4.480  1.04091E+00  9.93944E-01  4.69633E-02
    9064.904     71.296   4.520  1.03077E+00  9.94302E-01  3.64660E-02
    9066.288     72.680   4.560  1.02175E+00  9.94688E-01  2.70650E-02
    9067.683     74.075   4.600  1.01411E+00  9.95082E-01  1.90269E-02
    9069.092     75.484   4.640  1.00765E+00  9.95502E-01  1.21489E-02
    9070.512     76.904   4.680  1.00191E+00  9.95903E-01  6.00385E-03
    9071.945     78.337   4.720  9.96523E-01  9.96328E-01  1.95112E-04
    9073.389     79.781   4.760  9.91290E-01  9.96754E-01 -5.46395E-03
    9074.846     81.238   4.800  9.86317E-01  9.97180E-01 -1.08631E-02
    9076.315     82.707   4.840  9.81918E-01  9.97604E-01 -1.56860E-02
    9077.797     84.189   4.880  9.78464E-01  9.98023E-01 -1.95597E-02
    9079.290     85.682   4.920  9.76179E-01  9.98415E-01 -2.22363E-02
    9080.796     87.188   4.960  9.75044E-01  9.98801E-01 -2.37569E-02
    9082.314     88.706   5.000  9.74762E-01  9.99181E-01 -2.44190E-02
    9083.844     90.236   5.040  9.74914E-01  9.99554E-01 -2.46401E-02
    9085.386     91.778   5.080  9.75143E-01  9.99895E-01 -2.47529E-02
    9086.941     93.333   5.120  9.75321E-01  1.00020E+00 -2.48813E-02
    9088.507     94.899   5.160  9.75419E-01  1.00050E+00 -2.50801E-02
    9090.086     96.478   5.200  9.75414E-01  1.00078E+00 -2.53695E-02
    9091.677     98.069   5.240  9.75219E-01  1.00101E+00 -2.57928E-02
    9093.280     99.672   5.280  9.74834E-01  1.00122E+00 -2.63905E-02
    9094.896    101.288   5.320  9.74203E-01  1.00140E+00 -2.71981E-02
    9096.524    102.916   5.360  9.73346E-01  1.00156E+00 -2.82172E-02
    9098.163    104.555   5.400  9.72269E-01  1.00167E+00 -2.93977E-02
    9099.815    106.207   5.440  9.71046E-01  1.00175E+00 -3.07066E-02
    9101.480    107.872   5.480  9.69634E-01  1.00180E+00 -3.21675E-02
    9103.156    109.548   5.520  9.68034E-01  1.00181E+00 -3.37766E-02
    9104.845    111.237   5.560  9.66398E-01  1.00178E+00 -3.53836E-02
    9106.545    112.937   5.600  9.65045E-01  1.00171E+00 -3.66680E-02
    9108.258    114.650   5.640  9.64386E-01  1.00163E+00 -3.72433E-02
    9109.983    116.375   5.680  9.64722E-01  1.00148E+00 -3.67613E-02
    9111.721    118.113   5.720  9.66317E-01  1.00130E+00 -3.49808E-02
    9113.470    119.862   5.760  9.69353E-01  1.00110E+00 -3.17455E-02
    9115.232    121.624   5.800  9.73888E-01  1.00086E+00 -2.69758E-02
    9117.006    123.398   5.840  9.79869E-01  1.00059E+00 -2.07226E-02
    9118.792    125.184   5.880  9.86977E-01  1.00028E+00 -1.33072E-02
    9120.590    126.982   5.920  9.94524E-01  9.99942E-01 -5.41767E-03
    9122.401    128.793   5.960  1.00151E+00  9.99567E-01  1.94517E-03
    9124.224    130.616   6.000  1.00692E+00  9.99163E-01  7.76172E-03
