# # comment:                                                     FEFF 9.9.1  
# # Source:
# # Structure
# # Reduced
# # space
# # abc:
# # angles:
# # sites:
# # POT  SCF 100  7.0000   0, screened core-hole, AFOLP (folp(0)= 1.150)
# # Abs   Z=29 Rmt= 1.224 Rnm= 1.330 K  shell
# # Pot 1 Z=29 Rmt= 1.239 Rnm= 1.342
# # Pot 2 Z=80 Rmt= 1.569 Rnm= 1.697
# # Pot 3 Z=52 Rmt= 1.282 Rnm= 1.512
# # Pot 4 Z= 8 Rmt= 0.956 Rnm= 1.096
# # Gam_ch=1.729E+00 H-L exch Vi= 0.000E+00 Vr= 0.000E+00
# # Mu=-4.974E+00eV kf=2.129E+00 Vint=-1.425E+01eV Rs_int= 1.703
# FMS rfms= 9.0000
# # PATH  Rmax=-1.000,  Keep_limit= 0.00, Heap_limit 0.00  Pwcrit= 2.50%
#  S02=0.950  Temp=   0.00  Debye_temp=   0.00  Global_sig2= 0.00000
#  Energy zero shift, vr, vi    0.00000E+00   0.00000E+00
#  Curved wave amplitude ratio filter   4.000%
#     file         sig2 tot  cw amp ratio   deg  nlegs   reff  inp sig2
#     0/   0 paths used
#  xsedge+ 50, used to normalize mu           2.4310E-04
#  -----------------------------------------------------------------------
#  omega    e    k    mu    mu0     chi     @#
    8983.309     -8.784  -1.000  4.45666E-02  5.88908E-02 -1.43242E-02
    8983.607     -8.485  -0.960  4.74690E-02  6.33084E-02 -1.58394E-02
    8983.894     -8.199  -0.920  5.06935E-02  6.82282E-02 -1.75347E-02
    8984.168     -7.925  -0.880  5.42923E-02  7.37250E-02 -1.94327E-02
    8984.430     -7.662  -0.840  5.83275E-02  7.98861E-02 -2.15586E-02
    8984.680     -7.412  -0.800  6.28720E-02  8.68123E-02 -2.39403E-02
    8984.918     -7.175  -0.760  6.80114E-02  9.46199E-02 -2.66085E-02
    8985.144     -6.949  -0.720  7.38435E-02  1.03440E-01 -2.95964E-02
    8985.357     -6.736  -0.680  8.04784E-02  1.13417E-01 -3.29388E-02
    8985.558     -6.535  -0.640  8.80341E-02  1.24705E-01 -3.66705E-02
    8985.747     -6.346  -0.600  9.66291E-02  1.37452E-01 -4.08232E-02
    8985.924     -6.169  -0.560  1.06368E-01  1.51789E-01 -4.54216E-02
    8986.088     -6.004  -0.520  1.17317E-01  1.67792E-01 -5.04756E-02
    8986.241     -5.852  -0.480  1.29474E-01  1.85446E-01 -5.59718E-02
    8986.381     -5.712  -0.440  1.42732E-01  2.04595E-01 -6.18627E-02
    8986.509     -5.584  -0.400  1.56846E-01  2.24903E-01 -6.80576E-02
    8986.625     -5.468  -0.360  1.71424E-01  2.45844E-01 -7.44191E-02
    8986.728     -5.364  -0.320  1.85961E-01  2.66729E-01 -8.07687E-02
    8986.820     -5.273  -0.280  1.99895E-01  2.86799E-01 -8.69032E-02
    8986.899     -5.194  -0.240  2.12703E-01  3.05320E-01 -9.26177E-02
    8986.966     -5.126  -0.200  2.23956E-01  3.21683E-01 -9.77272E-02
    8987.021     -5.072  -0.160  2.33362E-01  3.35441E-01 -1.02079E-01
    8987.064     -5.029  -0.120  2.40751E-01  3.46312E-01 -1.05561E-01
    8987.094     -4.998  -0.080  2.46044E-01  3.54140E-01 -1.08096E-01
    8987.119     -4.974   0.000  2.50259E-01  3.60426E-01 -1.10167E-01
    8987.174     -4.919   0.120  2.59507E-01  3.74604E-01 -1.15097E-01
    8987.216     -4.877   0.160  2.66710E-01  3.85607E-01 -1.18897E-01
    8987.271     -4.822   0.200  2.75823E-01  3.99647E-01 -1.23824E-01
    8987.338     -4.755   0.240  2.86627E-01  4.16504E-01 -1.29877E-01
    8987.417     -4.675   0.280  2.98780E-01  4.35847E-01 -1.37067E-01
    8987.509     -4.584   0.320  3.11741E-01  4.57145E-01 -1.45404E-01
    8987.612     -4.480   0.360  3.24777E-01  4.79744E-01 -1.54967E-01
    8987.728     -4.364   0.400  3.36969E-01  5.02972E-01 -1.66002E-01
    8987.856     -4.236   0.440  3.47149E-01  5.26193E-01 -1.79044E-01
    8987.996     -4.096   0.480  3.54075E-01  5.48933E-01 -1.94858E-01
    8988.149     -3.944   0.520  3.56729E-01  5.70889E-01 -2.14159E-01
    8988.313     -3.779   0.560  3.54862E-01  5.91856E-01 -2.36994E-01
    8988.490     -3.602   0.600  3.49524E-01  6.11860E-01 -2.62336E-01
    8988.679     -3.413   0.640  3.42565E-01  6.30883E-01 -2.88318E-01
    8988.880     -3.212   0.680  3.35888E-01  6.49074E-01 -3.13186E-01
    8989.094     -2.999   0.720  3.30491E-01  6.66496E-01 -3.36005E-01
    8989.319     -2.773   0.760  3.26554E-01  6.83294E-01 -3.56740E-01
    8989.557     -2.536   0.800  3.24104E-01  6.99496E-01 -3.75392E-01
    8989.807     -2.286   0.840  3.23763E-01  7.15243E-01 -3.91480E-01
    8990.069     -2.024   0.880  3.26138E-01  7.30553E-01 -4.04415E-01
    8990.343     -1.749   0.920  3.31066E-01  7.45474E-01 -4.14408E-01
    8990.630     -1.463   0.960  3.37787E-01  7.60038E-01 -4.22251E-01
    8990.929     -1.164   1.000  3.45753E-01  7.74265E-01 -4.28512E-01
    8991.240     -0.853   1.040  3.54903E-01  7.88166E-01 -4.33263E-01
    8991.563     -0.530   1.080  3.65077E-01  8.01744E-01 -4.36668E-01
    8991.898     -0.195   1.120  3.75921E-01  8.14974E-01 -4.39053E-01
    8992.245      0.153   1.160  3.87957E-01  8.27866E-01 -4.39910E-01
    8992.605      0.512   1.200  4.03256E-01  8.40387E-01 -4.37131E-01
    8992.977      0.884   1.240  4.24738E-01  8.52541E-01 -4.27802E-01
    8993.361      1.268   1.280  4.55135E-01  8.64288E-01 -4.09152E-01
    8993.757      1.664   1.320  4.97563E-01  8.75626E-01 -3.78063E-01
    8994.166      2.073   1.360  5.55001E-01  8.86534E-01 -3.31534E-01
    8994.586      2.494   1.400  6.29506E-01  8.96991E-01 -2.67485E-01
    8995.019      2.926   1.440  7.23157E-01  9.06994E-01 -1.83837E-01
    8995.464      3.371   1.480  8.36086E-01  9.16522E-01 -8.04361E-02
    8995.921      3.829   1.520  9.55583E-01  9.25573E-01  3.00102E-02
    8996.391      4.298   1.560  1.05621E+00  9.34126E-01  1.22079E-01
    8996.872      4.780   1.600  1.12739E+00  9.42182E-01  1.85208E-01
    8997.366      5.273   1.640  1.17971E+00  9.49744E-01  2.29968E-01
    8997.872      5.779   1.680  1.21929E+00  9.56813E-01  2.62472E-01
    8998.390      6.297   1.720  1.24758E+00  9.63393E-01  2.84187E-01
    8998.920      6.828   1.760  1.27970E+00  9.69468E-01  3.10229E-01
    8999.463      7.370   1.800  1.33773E+00  9.75083E-01  3.62646E-01
    9000.018      7.925   1.840  1.42989E+00  9.80226E-01  4.49663E-01
    9000.585      8.492   1.880  1.53402E+00  9.84903E-01  5.49114E-01
    9001.164      9.071   1.920  1.59202E+00  9.89143E-01  6.02874E-01
    9001.755      9.662   1.960  1.55872E+00  9.92954E-01  5.65768E-01
    9002.359     10.266   2.000  1.45734E+00  9.96344E-01  4.61000E-01
    9002.974     10.882   2.040  1.34063E+00  9.99345E-01  3.41285E-01
    9003.602     11.509   2.080  1.24397E+00  1.00197E+00  2.42006E-01
    9004.242     12.150   2.120  1.18104E+00  1.00424E+00  1.76796E-01
    9004.895     12.802   2.160  1.15000E+00  1.00618E+00  1.43827E-01
    9005.559     13.466   2.200  1.13762E+00  1.00780E+00  1.29817E-01
    9006.236     14.143   2.240  1.12698E+00  1.00912E+00  1.17870E-01
    9006.924     14.832   2.280  1.10543E+00  1.01016E+00  9.52731E-02
    9007.625     15.533   2.320  1.07284E+00  1.01097E+00  6.18692E-02
    9008.339     16.246   2.360  1.04166E+00  1.01152E+00  3.01356E-02
    9009.064     16.971   2.400  1.02173E+00  1.01188E+00  9.85531E-03
    9009.802     17.709   2.440  1.01543E+00  1.01203E+00  3.40132E-03
    9010.552     18.459   2.480  1.02400E+00  1.01200E+00  1.19921E-02
    9011.314     19.221   2.520  1.04457E+00  1.01182E+00  3.27532E-02
    9012.088     19.995   2.560  1.06434E+00  1.01149E+00  5.28503E-02
    9012.874     20.781   2.600  1.07259E+00  1.01105E+00  6.15463E-02
    9013.673     21.580   2.640  1.06986E+00  1.01048E+00  5.93798E-02
    9014.483     22.391   2.680  1.05976E+00  1.00985E+00  4.99121E-02
    9015.306     23.214   2.720  1.04778E+00  1.00911E+00  3.86708E-02
    9016.142     24.049   2.760  1.03863E+00  1.00832E+00  3.03068E-02
    9016.989     24.896   2.800  1.03352E+00  1.00751E+00  2.60121E-02
    9017.848     25.756   2.840  1.02952E+00  1.00663E+00  2.28959E-02
    9018.720     26.627   2.880  1.02216E+00  1.00574E+00  1.64229E-02
    9019.604     27.511   2.920  1.00849E+00  1.00482E+00  3.67462E-03
    9020.500     28.408   2.960  9.88320E-01  1.00391E+00 -1.55928E-02
    9021.408     29.316   3.000  9.63474E-01  1.00299E+00 -3.95142E-02
    9022.329     30.236   3.040  9.36600E-01  1.00211E+00 -6.55117E-02
    9023.262     31.169   3.080  9.10430E-01  1.00123E+00 -9.07953E-02
    9024.207     32.114   3.120  8.87055E-01  1.00039E+00 -1.13337E-01
    9025.164     33.071   3.160  8.67363E-01  9.99576E-01 -1.32212E-01
    9026.133     34.040   3.200  8.51713E-01  9.98820E-01 -1.47107E-01
    9027.114     35.022   3.240  8.40090E-01  9.98088E-01 -1.57998E-01
    9028.108     36.015   3.280  8.32133E-01  9.97421E-01 -1.65288E-01
    9029.114     37.021   3.320  8.27652E-01  9.96823E-01 -1.69171E-01
    9030.132     38.039   3.360  8.27001E-01  9.96274E-01 -1.69273E-01
    9031.162     39.069   3.400  8.30780E-01  9.95775E-01 -1.64995E-01
    9032.204     40.112   3.440  8.39187E-01  9.95349E-01 -1.56162E-01
    9033.259     41.166   3.480  8.52079E-01  9.94997E-01 -1.42918E-01
    9034.326     42.233   3.520  8.68812E-01  9.94721E-01 -1.25909E-01
    9035.405     43.312   3.560  8.88276E-01  9.94498E-01 -1.06222E-01
    9036.496     44.403   3.600  9.09300E-01  9.94349E-01 -8.50494E-02
    9037.599     45.507   3.640  9.30688E-01  9.94255E-01 -6.35676E-02
    9038.715     46.622   3.680  9.51165E-01  9.94258E-01 -4.30936E-02
    9039.843     47.750   3.720  9.69383E-01  9.94316E-01 -2.49329E-02
    9040.983     48.890   3.760  9.84679E-01  9.94450E-01 -9.77087E-03
    9042.135     50.042   3.800  9.97097E-01  9.94658E-01  2.43859E-03
    9043.299     51.206   3.840  1.00746E+00  9.94918E-01  1.25376E-02
    9044.476     52.383   3.880  1.01706E+00  9.95250E-01  2.18052E-02
    9045.664     53.572   3.920  1.02690E+00  9.95633E-01  3.12630E-02
    9046.865     54.773   3.960  1.03733E+00  9.96086E-01  4.12490E-02
    9048.078     55.986   4.000  1.04810E+00  9.96587E-01  5.15157E-02
    9049.304     57.211   4.040  1.05861E+00  9.97157E-01  6.14483E-02
    9050.541     58.448   4.080  1.06801E+00  9.97773E-01  7.02419E-02
    9051.791     59.698   4.120  1.07550E+00  9.98430E-01  7.70669E-02
    9053.053     60.960   4.160  1.08052E+00  9.99128E-01  8.13909E-02
    9054.327     62.234   4.200  1.08284E+00  9.99866E-01  8.29741E-02
    9055.613     63.520   4.240  1.08253E+00  1.00064E+00  8.18875E-02
    9056.911     64.819   4.280  1.07990E+00  1.00143E+00  7.84733E-02
    9058.222     66.129   4.320  1.07563E+00  1.00227E+00  7.33567E-02
    9059.545     67.452   4.360  1.07040E+00  1.00310E+00  6.73001E-02
    9060.880     68.787   4.400  1.06507E+00  1.00399E+00  6.10777E-02
    9062.227     70.134   4.440  1.06028E+00  1.00488E+00  5.53979E-02
    9063.587     71.494   4.480  1.05650E+00  1.00577E+00  5.07257E-02
    9064.958     72.865   4.520  1.05405E+00  1.00667E+00  4.73849E-02
    9066.342     74.249   4.560  1.05315E+00  1.00756E+00  4.55829E-02
    9067.738     75.645   4.600  1.05371E+00  1.00845E+00  4.52580E-02
    9069.146     77.053   4.640  1.05523E+00  1.00934E+00  4.58911E-02
    9070.566     78.474   4.680  1.05669E+00  1.01020E+00  4.64939E-02
    9071.999     79.906   4.720  1.05688E+00  1.01105E+00  4.58390E-02
    9073.444     81.351   4.760  1.05480E+00  1.01188E+00  4.29197E-02
    9074.901     82.808   4.800  1.05019E+00  1.01269E+00  3.74975E-02
    9076.370     84.277   4.840  1.04371E+00  1.01346E+00  3.02575E-02
    9077.851     85.758   4.880  1.03662E+00  1.01421E+00  2.24076E-02
    9079.345     87.252   4.920  1.02992E+00  1.01490E+00  1.50187E-02
    9080.850     88.758   4.960  1.02405E+00  1.01557E+00  8.47749E-03
    9082.368     90.276   5.000  1.01858E+00  1.01617E+00  2.40178E-03
    9083.898     91.806   5.040  1.01277E+00  1.01676E+00 -3.99013E-03
    9085.441     93.348   5.080  1.00596E+00  1.01727E+00 -1.13162E-02
    9086.995     94.902   5.120  9.98187E-01  1.01775E+00 -1.95580E-02
    9088.562     96.469   5.160  9.90035E-01  1.01817E+00 -2.81367E-02
    9090.141     98.048   5.200  9.82353E-01  1.01855E+00 -3.61964E-02
    9091.732     99.639   5.240  9.75850E-01  1.01886E+00 -4.30060E-02
    9093.335    101.242   5.280  9.70978E-01  1.01911E+00 -4.81342E-02
    9094.950    102.858   5.320  9.67847E-01  1.01930E+00 -5.14502E-02
    9096.578    104.485   5.360  9.66295E-01  1.01943E+00 -5.31345E-02
    9098.218    106.125   5.400  9.65832E-01  1.01949E+00 -5.36577E-02
    9099.870    107.777   5.440  9.65856E-01  1.01950E+00 -5.36467E-02
    9101.534    109.441   5.480  9.65861E-01  1.01947E+00 -5.36043E-02
    9103.210    111.118   5.520  9.65647E-01  1.01936E+00 -5.37077E-02
    9104.899    112.806   5.560  9.65350E-01  1.01917E+00 -5.38240E-02
    9106.600    114.507   5.600  9.65370E-01  1.01897E+00 -5.35974E-02
    9108.313    116.220   5.640  9.66180E-01  1.01869E+00 -5.25102E-02
    9110.038    117.945   5.680  9.68436E-01  1.01834E+00 -4.99092E-02
    9111.775    119.683   5.720  9.72772E-01  1.01798E+00 -4.52048E-02
    9113.525    121.432   5.760  9.79351E-01  1.01754E+00 -3.81906E-02
    9115.287    123.194   5.800  9.87751E-01  1.01706E+00 -2.93136E-02
    9117.060    124.968   5.840  9.96909E-01  1.01655E+00 -1.96371E-02
    9118.847    126.754   5.880  1.00550E+00  1.01597E+00 -1.04641E-02
    9120.645    128.552   5.920  1.01249E+00  1.01538E+00 -2.88042E-03
    9122.455    130.363   5.960  1.01728E+00  1.01475E+00  2.52645E-03
    9124.278    132.185   6.000  1.01980E+00  1.01407E+00  5.72851E-03
