# # comment:                                                     FEFF 9.9.1  
# # Source:
# # Structure
# # Reduced
# # space
# # abc:
# # angles:
# # sites:
# # POT  SCF 100  7.0000   0, screened core-hole, AFOLP (folp(0)= 1.150)
# # Abs   Z=29 Rmt= 1.170 Rnm= 1.305 K  shell
# # Pot 1 Z=29 Rmt= 1.208 Rnm= 1.332
# # Pot 2 Z= 8 Rmt= 0.985 Rnm= 1.112
# # Pot 3 Z= 9 Rmt= 1.043 Rnm= 1.132
# # Gam_ch=1.729E+00 H-L exch Vi= 0.000E+00 Vr= 0.000E+00
# # Mu=-6.620E+00eV kf=2.005E+00 Vint=-1.276E+01eV Rs_int= 1.809
# FMS rfms= 9.0000
# # PATH  Rmax=-1.000,  Keep_limit= 0.00, Heap_limit 0.00  Pwcrit= 2.50%
#  S02=0.950  Temp=   0.00  Debye_temp=   0.00  Global_sig2= 0.00000
#  Energy zero shift, vr, vi    0.00000E+00   0.00000E+00
#  Curved wave amplitude ratio filter   4.000%
#     file         sig2 tot  cw amp ratio   deg  nlegs   reff  inp sig2
#     0/   0 paths used
#  xsedge+ 50, used to normalize mu           2.4070E-04
#  -----------------------------------------------------------------------
#  omega    e    k    mu    mu0     chi     @#
    8983.333    -10.430  -1.000  3.27554E-02  5.61434E-02 -2.33880E-02
    8983.632    -10.131  -0.960  3.40829E-02  6.01288E-02 -2.60460E-02
    8983.918     -9.845  -0.920  3.54760E-02  6.45414E-02 -2.90654E-02
    8984.193     -9.570  -0.880  3.69402E-02  6.94420E-02 -3.25018E-02
    8984.455     -9.308  -0.840  3.84817E-02  7.49009E-02 -3.64192E-02
    8984.705     -9.058  -0.800  4.01080E-02  8.09995E-02 -4.08915E-02
    8984.942     -8.820  -0.760  4.18279E-02  8.78308E-02 -4.60029E-02
    8985.168     -8.595  -0.720  4.36516E-02  9.54993E-02 -5.18476E-02
    8985.381     -8.382  -0.680  4.55906E-02  1.04120E-01 -5.85291E-02
    8985.583     -8.180  -0.640  4.76568E-02  1.13812E-01 -6.61557E-02
    8985.772     -7.991  -0.600  4.98619E-02  1.24695E-01 -7.48335E-02
    8985.948     -7.815  -0.560  5.22143E-02  1.36868E-01 -8.46534E-02
    8986.113     -7.650  -0.520  5.47161E-02  1.50387E-01 -9.56710E-02
    8986.265     -7.498  -0.480  5.73569E-02  1.65236E-01 -1.07880E-01
    8986.406     -7.357  -0.440  6.01087E-02  1.81287E-01 -1.21178E-01
    8986.534     -7.229  -0.400  6.29207E-02  1.98265E-01 -1.35345E-01
    8986.649     -7.114  -0.360  6.57198E-02  2.15744E-01 -1.50025E-01
    8986.753     -7.010  -0.320  6.84174E-02  2.33169E-01 -1.64752E-01
    8986.844     -6.918  -0.280  7.09233E-02  2.49922E-01 -1.78999E-01
    8986.924     -6.839  -0.240  7.31611E-02  2.65404E-01 -1.92243E-01
    8986.991     -6.772  -0.200  7.50779E-02  2.79108E-01 -2.04030E-01
    8987.046     -6.717  -0.160  7.66465E-02  2.90659E-01 -2.14012E-01
    8987.088     -6.675  -0.120  7.78586E-02  2.99807E-01 -2.21948E-01
    8987.119     -6.644  -0.080  7.87173E-02  3.06409E-01 -2.27692E-01
    8987.143     -6.620   0.000  7.94032E-02  3.11722E-01 -2.32319E-01
    8987.198     -6.565   0.120  8.10662E-02  3.23727E-01 -2.42661E-01
    8987.241     -6.522   0.160  8.22353E-02  3.33081E-01 -2.50845E-01
    8987.296     -6.467   0.200  8.36607E-02  3.45065E-01 -2.61404E-01
    8987.363     -6.400   0.240  8.53145E-02  3.59575E-01 -2.74261E-01
    8987.442     -6.321   0.280  8.70653E-02  3.76337E-01 -2.89271E-01
    8987.533     -6.230   0.320  8.88704E-02  3.94995E-01 -3.06125E-01
    8987.637     -6.126   0.360  9.06895E-02  4.15123E-01 -3.24434E-01
    8987.753     -6.010   0.400  9.25053E-02  4.36195E-01 -3.43690E-01
    8987.881     -5.882   0.440  9.44125E-02  4.57788E-01 -3.63376E-01
    8988.021     -5.742   0.480  9.65187E-02  4.79538E-01 -3.83019E-01
    8988.173     -5.590   0.520  9.90165E-02  5.01176E-01 -4.02160E-01
    8988.338     -5.425   0.560  1.02127E-01  5.22622E-01 -4.20495E-01
    8988.515     -5.248   0.600  1.06086E-01  5.43817E-01 -4.37731E-01
    8988.704     -5.059   0.640  1.11044E-01  5.64780E-01 -4.53736E-01
    8988.905     -4.858   0.680  1.17244E-01  5.85560E-01 -4.68316E-01
    8989.118     -4.645   0.720  1.24844E-01  6.06214E-01 -4.81371E-01
    8989.344     -4.419   0.760  1.34053E-01  6.26777E-01 -4.92724E-01
    8989.582     -4.181   0.800  1.44999E-01  6.47269E-01 -5.02270E-01
    8989.831     -3.931   0.840  1.57774E-01  6.67720E-01 -5.09946E-01
    8990.094     -3.669   0.880  1.72582E-01  6.88127E-01 -5.15545E-01
    8990.368     -3.395   0.920  1.90130E-01  7.08471E-01 -5.18342E-01
    8990.654     -3.108   0.960  2.11724E-01  7.28703E-01 -5.16979E-01
    8990.953     -2.810   1.000  2.39019E-01  7.48823E-01 -5.09804E-01
    8991.264     -2.499   1.040  2.73190E-01  7.68741E-01 -4.95551E-01
    8991.587     -2.176   1.080  3.14430E-01  7.88405E-01 -4.73975E-01
    8991.922     -1.841   1.120  3.61811E-01  8.07775E-01 -4.45964E-01
    8992.270     -1.493   1.160  4.15229E-01  8.26747E-01 -4.11517E-01
    8992.630     -1.133   1.200  4.77091E-01  8.45296E-01 -3.68205E-01
    8993.001     -0.762   1.240  5.47317E-01  8.63336E-01 -3.16018E-01
    8993.385     -0.378   1.280  6.17023E-01  8.80799E-01 -2.63776E-01
    8993.782      0.019   1.320  6.72584E-01  8.97641E-01 -2.25058E-01
    8994.190      0.427   1.360  7.06222E-01  9.13777E-01 -2.07555E-01
    8994.611      0.848   1.400  7.23007E-01  9.29187E-01 -2.06180E-01
    8995.044      1.281   1.440  7.36029E-01  9.43832E-01 -2.07803E-01
    8995.489      1.726   1.480  7.57950E-01  9.57655E-01 -1.99705E-01
    8995.946      2.183   1.520  7.99800E-01  9.70643E-01 -1.70843E-01
    8996.415      2.652   1.560  8.64452E-01  9.82748E-01 -1.18296E-01
    8996.897      3.134   1.600  9.36178E-01  9.94006E-01 -5.78289E-02
    8997.390      3.628   1.640  9.92137E-01  1.00436E+00 -1.22189E-02
    8997.896      4.134   1.680  1.03827E+00  1.01384E+00  2.44283E-02
    8998.415      4.652   1.720  1.10338E+00  1.02245E+00  8.09242E-02
    8998.945      5.182   1.760  1.19530E+00  1.03020E+00  1.65103E-01
    8999.487      5.725   1.800  1.29986E+00  1.03710E+00  2.62764E-01
    9000.042      6.279   1.840  1.40923E+00  1.04319E+00  3.66045E-01
    9000.609      6.846   1.880  1.51610E+00  1.04848E+00  4.67619E-01
    9001.188      7.425   1.920  1.59155E+00  1.05304E+00  5.38519E-01
    9001.780      8.017   1.960  1.61025E+00  1.05685E+00  5.53398E-01
    9002.383      8.620   2.000  1.58686E+00  1.05999E+00  5.26878E-01
    9002.999      9.236   2.040  1.54540E+00  1.06248E+00  4.82922E-01
    9003.627      9.864   2.080  1.48957E+00  1.06436E+00  4.25215E-01
    9004.267     10.504   2.120  1.41586E+00  1.06568E+00  3.50184E-01
    9004.919     11.156   2.160  1.33771E+00  1.06646E+00  2.71248E-01
    9005.583     11.821   2.200  1.28168E+00  1.06677E+00  2.14909E-01
    9006.260     12.497   2.240  1.23924E+00  1.06662E+00  1.72619E-01
    9006.949     13.186   2.280  1.17765E+00  1.06609E+00  1.11566E-01
    9007.650     13.887   2.320  1.09667E+00  1.06518E+00  3.14861E-02
    9008.363     14.600   2.360  1.03391E+00  1.06394E+00 -3.00284E-02
    9009.089     15.326   2.400  1.01105E+00  1.06243E+00 -5.13764E-02
    9009.826     16.063   2.440  1.02632E+00  1.06064E+00 -3.43174E-02
    9010.576     16.813   2.480  1.04809E+00  1.05863E+00 -1.05351E-02
    9011.338     17.575   2.520  1.06818E+00  1.05642E+00  1.17583E-02
    9012.112     18.349   2.560  1.08367E+00  1.05406E+00  2.96095E-02
    9012.899     19.136   2.600  1.09264E+00  1.05156E+00  4.10812E-02
    9013.697     19.934   2.640  1.09420E+00  1.04895E+00  4.52545E-02
    9014.508     20.745   2.680  1.08891E+00  1.04626E+00  4.26508E-02
    9015.331     21.568   2.720  1.07883E+00  1.04349E+00  3.53404E-02
    9016.166     22.403   2.760  1.06655E+00  1.04070E+00  2.58496E-02
    9017.013     23.250   2.800  1.05391E+00  1.03788E+00  1.60308E-02
    9017.873     24.110   2.840  1.04215E+00  1.03506E+00  7.08920E-03
    9018.745     24.982   2.880  1.03148E+00  1.03224E+00 -7.61268E-04
    9019.629     25.866   2.920  1.02147E+00  1.02945E+00 -7.97631E-03
    9020.525     26.762   2.960  1.01146E+00  1.02670E+00 -1.52398E-02
    9021.433     27.670   3.000  1.00110E+00  1.02403E+00 -2.29325E-02
    9022.353     28.591   3.040  9.89905E-01  1.02140E+00 -3.14991E-02
    9023.286     29.523   3.080  9.77385E-01  1.01886E+00 -4.14752E-02
    9024.231     30.468   3.120  9.63042E-01  1.01640E+00 -5.33575E-02
    9025.188     31.425   3.160  9.46758E-01  1.01405E+00 -6.72899E-02
    9026.157     32.394   3.200  9.29118E-01  1.01179E+00 -8.26696E-02
    9027.139     33.376   3.240  9.11439E-01  1.00962E+00 -9.81817E-02
    9028.132     34.370   3.280  8.95358E-01  1.00760E+00 -1.12237E-01
    9029.138     35.375   3.320  8.82430E-01  1.00567E+00 -1.23241E-01
    9030.156     36.393   3.360  8.73736E-01  1.00389E+00 -1.30154E-01
    9031.187     37.424   3.400  8.69890E-01  1.00221E+00 -1.32324E-01
    9032.229     38.466   3.440  8.71009E-01  1.00068E+00 -1.29675E-01
    9033.284     39.521   3.480  8.76640E-01  9.99282E-01 -1.22641E-01
    9034.350     40.587   3.520  8.85825E-01  9.98008E-01 -1.12183E-01
    9035.429     41.666   3.560  8.97371E-01  9.96863E-01 -9.94924E-02
    9036.521     42.758   3.600  9.10158E-01  9.95869E-01 -8.57106E-02
    9037.624     43.861   3.640  9.23374E-01  9.95003E-01 -7.16283E-02
    9038.739     44.977   3.680  9.36617E-01  9.94265E-01 -5.76473E-02
    9039.867     46.104   3.720  9.49761E-01  9.93656E-01 -4.38954E-02
    9041.007     47.244   3.760  9.62673E-01  9.93198E-01 -3.05251E-02
    9042.159     48.396   3.800  9.74869E-01  9.92868E-01 -1.79992E-02
    9043.324     49.561   3.840  9.85597E-01  9.92663E-01 -7.06629E-03
    9044.500     50.737   3.880  9.94235E-01  9.92583E-01  1.65221E-03
    9045.689     51.926   3.920  1.00060E+00  9.92629E-01  7.97337E-03
    9046.890     53.127   3.960  1.00498E+00  9.92818E-01  1.21650E-02
    9048.103     54.340   4.000  1.00787E+00  9.93083E-01  1.47857E-02
    9049.328     55.565   4.040  1.01003E+00  9.93488E-01  1.65470E-02
    9050.566     56.803   4.080  1.01216E+00  9.93989E-01  1.81681E-02
    9051.815     58.052   4.120  1.01482E+00  9.94606E-01  2.02149E-02
    9053.077     59.314   4.160  1.01824E+00  9.95336E-01  2.29094E-02
    9054.351     60.588   4.200  1.02216E+00  9.96131E-01  2.60306E-02
    9055.637     61.875   4.240  1.02601E+00  9.97034E-01  2.89724E-02
    9056.936     63.173   4.280  1.02898E+00  9.98020E-01  3.09613E-02
    9058.247     64.484   4.320  1.03053E+00  9.99086E-01  3.14404E-02
    9059.569     65.806   4.360  1.03057E+00  1.00021E+00  3.03580E-02
    9060.904     67.142   4.400  1.02959E+00  1.00140E+00  2.81839E-02
    9062.252     68.489   4.440  1.02841E+00  1.00267E+00  2.57352E-02
    9063.611     69.848   4.480  1.02799E+00  1.00399E+00  2.40039E-02
    9064.983     71.220   4.520  1.02931E+00  1.00535E+00  2.39594E-02
    9066.366     72.604   4.560  1.03316E+00  1.00675E+00  2.64084E-02
    9067.762     73.999   4.600  1.03993E+00  1.00819E+00  3.17411E-02
    9069.171     75.408   4.640  1.04936E+00  1.00966E+00  3.96991E-02
    9070.591     76.828   4.680  1.06045E+00  1.01115E+00  4.93019E-02
    9072.023     78.261   4.720  1.07166E+00  1.01263E+00  5.90288E-02
    9073.468     79.705   4.760  1.08145E+00  1.01415E+00  6.73002E-02
    9074.925     81.162   4.800  1.08864E+00  1.01566E+00  7.29757E-02
    9076.394     82.631   4.840  1.09273E+00  1.01715E+00  7.55800E-02
    9077.876     84.113   4.880  1.09385E+00  1.01863E+00  7.52277E-02
    9079.369     85.606   4.920  1.09256E+00  1.02010E+00  7.24625E-02
    9080.875     87.112   4.960  1.08943E+00  1.02153E+00  6.78999E-02
    9082.393     88.630   5.000  1.08492E+00  1.02293E+00  6.19883E-02
    9083.923     90.160   5.040  1.07923E+00  1.02431E+00  5.49271E-02
    9085.465     91.702   5.080  1.07234E+00  1.02562E+00  4.67213E-02
    9087.020     93.257   5.120  1.06418E+00  1.02688E+00  3.72962E-02
    9088.586     94.823   5.160  1.05463E+00  1.02807E+00  2.65535E-02
    9090.165     96.402   5.200  1.04365E+00  1.02921E+00  1.44354E-02
    9091.756     97.993   5.240  1.03136E+00  1.03030E+00  1.06371E-03
    9093.359     99.596   5.280  1.01815E+00  1.03128E+00 -1.31300E-02
    9094.975    101.212   5.320  1.00488E+00  1.03221E+00 -2.73355E-02
    9096.602    102.840   5.360  9.92563E-01  1.03306E+00 -4.04969E-02
    9098.242    104.479   5.400  9.82275E-01  1.03382E+00 -5.15489E-02
    9099.894    106.131   5.440  9.74772E-01  1.03450E+00 -5.97312E-02
    9101.558    107.796   5.480  9.70256E-01  1.03510E+00 -6.48408E-02
    9103.235    109.472   5.520  9.68277E-01  1.03558E+00 -6.73022E-02
    9104.923    111.161   5.560  9.68190E-01  1.03597E+00 -6.77842E-02
    9106.624    112.861   5.600  9.69497E-01  1.03631E+00 -6.68079E-02
    9108.337    114.574   5.640  9.71851E-01  1.03650E+00 -6.46532E-02
    9110.062    116.299   5.680  9.75141E-01  1.03664E+00 -6.14955E-02
    9111.800    118.037   5.720  9.79173E-01  1.03666E+00 -5.74853E-02
    9113.549    119.786   5.760  9.83955E-01  1.03659E+00 -5.26368E-02
    9115.311    121.548   5.800  9.89672E-01  1.03642E+00 -4.67442E-02
    9117.085    123.322   5.840  9.96726E-01  1.03618E+00 -3.94535E-02
    9118.871    125.108   5.880  1.00532E+00  1.03584E+00 -3.05127E-02
    9120.669    126.906   5.920  1.01523E+00  1.03541E+00 -2.01825E-02
    9122.480    128.717   5.960  1.02537E+00  1.03489E+00 -9.51247E-03
    9124.303    130.540   6.000  1.03427E+00  1.03421E+00  6.21932E-05
