# # comment:                                                     FEFF 9.9.1  
# # Source:
# # Structure
# # Reduced
# # space
# # abc:
# # angles:
# # sites:
# # POT  SCF 100  7.0000   0, screened core-hole, AFOLP (folp(0)= 1.150)
# # Abs   Z=29 Rmt= 1.263 Rnm= 1.333 K  shell
# # Pot 1 Z=38 Rmt= 1.750 Rnm= 1.817
# # Pot 2 Z=29 Rmt= 1.263 Rnm= 1.333
# # Pot 3 Z=78 Rmt= 1.328 Rnm= 1.406
# # Pot 4 Z= 8 Rmt= 1.056 Rnm= 1.107
# # Gam_ch=1.729E+00 H-L exch Vi= 0.000E+00 Vr= 0.000E+00
# # Mu=-7.446E+00eV kf=2.020E+00 Vint=-1.694E+01eV Rs_int= 1.795
# FMS rfms= 9.0000
# # PATH  Rmax=-1.000,  Keep_limit= 0.00, Heap_limit 0.00  Pwcrit= 2.50%
#  S02=0.950  Temp=   0.00  Debye_temp=   0.00  Global_sig2= 0.00000
#  Energy zero shift, vr, vi    0.00000E+00   0.00000E+00
#  Curved wave amplitude ratio filter   4.000%
#     file         sig2 tot  cw amp ratio   deg  nlegs   reff  inp sig2
#     0/   0 paths used
#  xsedge+ 50, used to normalize mu           2.4545E-04
#  -----------------------------------------------------------------------
#  omega    e    k    mu    mu0     chi     @#
    8984.435    -11.256  -1.000  4.56672E-02  5.71934E-02 -1.15261E-02
    8984.734    -10.957  -0.960  4.85912E-02  6.14526E-02 -1.28614E-02
    8985.020    -10.670  -0.920  5.18267E-02  6.61943E-02 -1.43676E-02
    8985.295    -10.396  -0.880  5.54235E-02  7.14903E-02 -1.60668E-02
    8985.557    -10.134  -0.840  5.94411E-02  7.74241E-02 -1.79830E-02
    8985.807     -9.884  -0.800  6.39505E-02  8.40928E-02 -2.01423E-02
    8986.045     -9.646  -0.760  6.90349E-02  9.16076E-02 -2.25727E-02
    8986.270     -9.421  -0.720  7.47914E-02  1.00095E-01 -2.53033E-02
    8986.483     -9.207  -0.680  8.13293E-02  1.09693E-01 -2.83634E-02
    8986.685     -9.006  -0.640  8.87673E-02  1.20548E-01 -3.17812E-02
    8986.874     -8.817  -0.600  9.72241E-02  1.32806E-01 -3.55821E-02
    8987.050     -8.640  -0.560  1.06803E-01  1.46589E-01 -3.97864E-02
    8987.215     -8.476  -0.520  1.17564E-01  1.61972E-01 -4.44072E-02
    8987.367     -8.323  -0.480  1.29491E-01  1.78938E-01 -4.94476E-02
    8987.508     -8.183  -0.440  1.42443E-01  1.97340E-01 -5.48970E-02
    8987.636     -8.055  -0.400  1.56128E-01  2.16854E-01 -6.07254E-02
    8987.751     -7.939  -0.360  1.70100E-01  2.36973E-01 -6.68734E-02
    8987.855     -7.836  -0.320  1.83799E-01  2.57039E-01 -7.32404E-02
    8987.946     -7.744  -0.280  1.96646E-01  2.76320E-01 -7.96742E-02
    8988.026     -7.665  -0.240  2.08143E-01  2.94114E-01 -8.59701E-02
    8988.093     -7.598  -0.200  2.17949E-01  3.09833E-01 -9.18842E-02
    8988.148     -7.543  -0.160  2.25891E-01  3.23050E-01 -9.71588E-02
    8988.190     -7.500  -0.120  2.31939E-01  3.33494E-01 -1.01555E-01
    8988.221     -7.470  -0.080  2.36132E-01  3.41015E-01 -1.04883E-01
    8988.245     -7.446   0.000  2.39289E-01  3.47056E-01 -1.07767E-01
    8988.300     -7.391   0.120  2.46286E-01  3.60661E-01 -1.14376E-01
    8988.343     -7.348   0.160  2.51683E-01  3.71239E-01 -1.19555E-01
    8988.398     -7.293   0.200  2.58291E-01  3.84727E-01 -1.26436E-01
    8988.465     -7.226   0.240  2.65762E-01  4.00932E-01 -1.35170E-01
    8988.544     -7.147   0.280  2.73632E-01  4.19517E-01 -1.45885E-01
    8988.635     -7.055   0.320  2.81316E-01  4.39971E-01 -1.58655E-01
    8988.739     -6.952   0.360  2.88276E-01  4.61666E-01 -1.73389E-01
    8988.855     -6.836   0.400  2.94148E-01  4.83995E-01 -1.89847E-01
    8988.983     -6.708   0.440  2.98687E-01  5.06329E-01 -2.07642E-01
    8989.123     -6.568   0.480  3.01942E-01  5.28191E-01 -2.26249E-01
    8989.275     -6.415   0.520  3.04221E-01  5.49290E-01 -2.45069E-01
    8989.440     -6.251   0.560  3.06227E-01  5.69471E-01 -2.63244E-01
    8989.617     -6.074   0.600  3.09316E-01  5.88721E-01 -2.79405E-01
    8989.806     -5.885   0.640  3.15398E-01  6.07061E-01 -2.91663E-01
    8990.007     -5.684   0.680  3.26487E-01  6.24618E-01 -2.98131E-01
    8990.220     -5.471   0.720  3.43218E-01  6.41471E-01 -2.98253E-01
    8990.446     -5.245   0.760  3.63614E-01  6.57699E-01 -2.94085E-01
    8990.684     -5.007   0.800  3.83386E-01  6.73433E-01 -2.90047E-01
    8990.934     -4.757   0.840  3.98863E-01  6.88749E-01 -2.89886E-01
    8991.196     -4.495   0.880  4.10006E-01  7.03664E-01 -2.93658E-01
    8991.470     -4.221   0.920  4.19974E-01  7.18266E-01 -2.98292E-01
    8991.756     -3.934   0.960  4.32433E-01  7.32545E-01 -3.00112E-01
    8992.055     -3.636   1.000  4.50057E-01  7.46563E-01 -2.96506E-01
    8992.366     -3.325   1.040  4.72889E-01  7.60289E-01 -2.87400E-01
    8992.689     -3.002   1.080  4.97227E-01  7.73769E-01 -2.76542E-01
    8993.024     -2.666   1.120  5.16805E-01  7.86955E-01 -2.70151E-01
    8993.372     -2.319   1.160  5.29932E-01  7.99859E-01 -2.69927E-01
    8993.732     -1.959   1.200  5.43307E-01  8.12469E-01 -2.69162E-01
    8994.103     -1.587   1.240  5.64064E-01  8.24767E-01 -2.60703E-01
    8994.487     -1.203   1.280  5.94749E-01  8.36714E-01 -2.41965E-01
    8994.884     -0.807   1.320  6.38405E-01  8.48328E-01 -2.09923E-01
    8995.292     -0.399   1.360  7.00175E-01  8.59566E-01 -1.59392E-01
    8995.713      0.022   1.400  7.82787E-01  8.70427E-01 -8.76405E-02
    8996.146      0.455   1.440  8.81489E-01  8.80889E-01  6.00136E-04
    8996.591      0.900   1.480  9.84076E-01  8.90928E-01  9.31478E-02
    8997.048      1.357   1.520  1.08181E+00  9.00539E-01  1.81267E-01
    8997.517      1.826   1.560  1.17219E+00  9.09702E-01  2.62484E-01
    8997.999      2.308   1.600  1.24522E+00  9.18435E-01  3.26788E-01
    8998.493      2.802   1.640  1.28792E+00  9.26697E-01  3.61223E-01
    8998.998      3.308   1.680  1.29841E+00  9.34510E-01  3.63902E-01
    8999.517      3.826   1.720  1.28582E+00  9.41875E-01  3.43941E-01
    9000.047      4.356   1.760  1.26235E+00  9.48771E-01  3.13579E-01
    9000.590      4.899   1.800  1.23460E+00  9.55225E-01  2.79375E-01
    9001.144      5.453   1.840  1.20564E+00  9.61219E-01  2.44421E-01
    9001.711      6.020   1.880  1.18791E+00  9.66778E-01  2.21133E-01
    9002.290      6.600   1.920  1.19042E+00  9.71887E-01  2.18535E-01
    9002.882      7.191   1.960  1.20463E+00  9.76593E-01  2.28032E-01
    9003.485      7.794   2.000  1.22078E+00  9.80885E-01  2.39900E-01
    9004.101      8.410   2.040  1.23424E+00  9.84788E-01  2.49456E-01
    9004.729      9.038   2.080  1.24330E+00  9.88312E-01  2.54987E-01
    9005.369      9.678   2.120  1.24624E+00  9.91466E-01  2.54778E-01
    9006.021     10.330   2.160  1.23948E+00  9.94277E-01  2.45200E-01
    9006.686     10.995   2.200  1.22074E+00  9.96754E-01  2.23989E-01
    9007.362     11.671   2.240  1.19065E+00  9.98927E-01  1.91718E-01
    9008.051     12.360   2.280  1.15432E+00  1.00079E+00  1.53532E-01
    9008.752     13.061   2.320  1.12109E+00  1.00238E+00  1.18705E-01
    9009.465     13.774   2.360  1.09460E+00  1.00372E+00  9.08791E-02
    9010.191     14.500   2.400  1.06830E+00  1.00481E+00  6.34882E-02
    9010.928     15.238   2.440  1.04117E+00  1.00569E+00  3.54831E-02
    9011.678     15.987   2.480  1.02276E+00  1.00636E+00  1.64035E-02
    9012.440     16.749   2.520  1.01390E+00  1.00683E+00  7.07207E-03
    9013.214     17.524   2.560  1.00811E+00  1.00713E+00  9.77973E-04
    9014.001     18.310   2.600  9.99755E-01  1.00729E+00 -7.53154E-03
    9014.799     19.108   2.640  9.86480E-01  1.00729E+00 -2.08108E-02
    9015.610     19.919   2.680  9.68889E-01  1.00717E+00 -3.82808E-02
    9016.433     20.742   2.720  9.49244E-01  1.00695E+00 -5.77072E-02
    9017.268     21.577   2.760  9.29310E-01  1.00664E+00 -7.73318E-02
    9018.115     22.425   2.800  9.09910E-01  1.00623E+00 -9.63172E-02
    9018.975     23.284   2.840  8.91815E-01  1.00575E+00 -1.13939E-01
    9019.847     24.156   2.880  8.75261E-01  1.00521E+00 -1.29947E-01
    9020.731     25.040   2.920  8.60890E-01  1.00462E+00 -1.43726E-01
    9021.627     25.936   2.960  8.49556E-01  1.00400E+00 -1.54447E-01
    9022.535     26.844   3.000  8.41412E-01  1.00333E+00 -1.61922E-01
    9023.456     27.765   3.040  8.36494E-01  1.00268E+00 -1.66182E-01
    9024.388     28.697   3.080  8.34729E-01  1.00199E+00 -1.67260E-01
    9025.333     29.642   3.120  8.35765E-01  1.00130E+00 -1.65536E-01
    9026.290     30.599   3.160  8.38921E-01  1.00063E+00 -1.61712E-01
    9027.259     31.569   3.200  8.44119E-01  9.99949E-01 -1.55829E-01
    9028.241     32.550   3.240  8.51766E-01  9.99291E-01 -1.47524E-01
    9029.235     33.544   3.280  8.62105E-01  9.98664E-01 -1.36559E-01
    9030.240     34.550   3.320  8.75274E-01  9.98052E-01 -1.22777E-01
    9031.258     35.568   3.360  8.91329E-01  9.97494E-01 -1.06165E-01
    9032.289     36.598   3.400  9.09942E-01  9.96951E-01 -8.70094E-02
    9033.331     37.640   3.440  9.30386E-01  9.96446E-01 -6.60602E-02
    9034.386     38.695   3.480  9.51729E-01  9.95982E-01 -4.42527E-02
    9035.452     39.762   3.520  9.73102E-01  9.95558E-01 -2.24562E-02
    9036.531     40.841   3.560  9.93845E-01  9.95197E-01 -1.35228E-03
    9037.623     41.932   3.600  1.01337E+00  9.94859E-01  1.85114E-02
    9038.726     43.035   3.640  1.03110E+00  9.94584E-01  3.65165E-02
    9039.842     44.151   3.680  1.04619E+00  9.94353E-01  5.18327E-02
    9040.969     45.278   3.720  1.05788E+00  9.94166E-01  6.37107E-02
    9042.109     46.418   3.760  1.06602E+00  9.94046E-01  7.19770E-02
    9043.261     47.571   3.800  1.07113E+00  9.93970E-01  7.71607E-02
    9044.426     48.735   3.840  1.07427E+00  9.93935E-01  8.03374E-02
    9045.602     49.911   3.880  1.07655E+00  9.93944E-01  8.26066E-02
    9046.791     51.100   3.920  1.07836E+00  9.93995E-01  8.43651E-02
    9047.992     52.301   3.960  1.07937E+00  9.94109E-01  8.52582E-02
    9049.205     53.514   4.000  1.07873E+00  9.94244E-01  8.44812E-02
    9050.430     54.739   4.040  1.07577E+00  9.94441E-01  8.13259E-02
    9051.668     55.977   4.080  1.07027E+00  9.94678E-01  7.55902E-02
    9052.917     57.227   4.120  1.06267E+00  9.94931E-01  6.77343E-02
    9054.179     58.488   4.160  1.05416E+00  9.95242E-01  5.89199E-02
    9055.453     59.763   4.200  1.04595E+00  9.95568E-01  5.03867E-02
    9056.740     61.049   4.240  1.03914E+00  9.95927E-01  4.32117E-02
    9058.038     62.347   4.280  1.03430E+00  9.96300E-01  3.79955E-02
    9059.349     63.658   4.320  1.03151E+00  9.96726E-01  3.47787E-02
    9060.671     64.981   4.360  1.03035E+00  9.97162E-01  3.31871E-02
    9062.006     66.316   4.400  1.03024E+00  9.97606E-01  3.26385E-02
    9063.354     67.663   4.440  1.03062E+00  9.98078E-01  3.25404E-02
    9064.713     69.022   4.480  1.03097E+00  9.98554E-01  3.24166E-02
    9066.085     70.394   4.520  1.03094E+00  9.99033E-01  3.19076E-02
    9067.468     71.778   4.560  1.03023E+00  9.99513E-01  3.07190E-02
    9068.864     73.174   4.600  1.02867E+00  1.00002E+00  2.86548E-02
    9070.273     74.582   4.640  1.02604E+00  1.00050E+00  2.55475E-02
    9071.693     76.002   4.680  1.02226E+00  1.00097E+00  2.12819E-02
    9073.126     77.435   4.720  1.01730E+00  1.00147E+00  1.58322E-02
    9074.570     78.879   4.760  1.01124E+00  1.00194E+00  9.30342E-03
    9076.027     80.336   4.800  1.00424E+00  1.00238E+00  1.85881E-03
    9077.496     81.806   4.840  9.96432E-01  1.00283E+00 -6.40185E-03
    9078.978     83.287   4.880  9.87770E-01  1.00324E+00 -1.54671E-02
    9080.471     84.780   4.920  9.78302E-01  1.00365E+00 -2.53489E-02
    9081.977     86.286   4.960  9.68138E-01  1.00403E+00 -3.58954E-02
    9083.495     87.804   5.000  9.57829E-01  1.00438E+00 -4.65540E-02
    9085.025     89.334   5.040  9.48398E-01  1.00472E+00 -5.63198E-02
    9086.567     90.876   5.080  9.41061E-01  1.00502E+00 -6.39553E-02
    9088.122     92.431   5.120  9.36901E-01  1.00528E+00 -6.83764E-02
    9089.688     93.997   5.160  9.36536E-01  1.00550E+00 -6.89672E-02
    9091.267     95.576   5.200  9.40037E-01  1.00571E+00 -6.56761E-02
    9092.858     97.167   5.240  9.46934E-01  1.00589E+00 -5.89509E-02
    9094.461     98.771   5.280  9.56448E-01  1.00602E+00 -4.95707E-02
    9096.077    100.386   5.320  9.67565E-01  1.00611E+00 -3.85474E-02
    9097.705    102.014   5.360  9.79193E-01  1.00617E+00 -2.69719E-02
    9099.344    103.654   5.400  9.90240E-01  1.00618E+00 -1.59406E-02
    9100.996    105.306   5.440  9.99731E-01  1.00618E+00 -6.44592E-03
    9102.661    106.970   5.480  1.00689E+00  1.00611E+00  7.76229E-04
    9104.337    108.646   5.520  1.01137E+00  1.00601E+00  5.36144E-03
    9106.026    110.335   5.560  1.01314E+00  1.00588E+00  7.26014E-03
    9107.726    112.035   5.600  1.01234E+00  1.00572E+00  6.61871E-03
    9109.439    113.748   5.640  1.00916E+00  1.00550E+00  3.65881E-03
    9111.164    115.474   5.680  1.00397E+00  1.00526E+00 -1.28891E-03
    9112.902    117.211   5.720  9.97378E-01  1.00499E+00 -7.61099E-03
    9114.651    118.961   5.760  9.90384E-01  1.00470E+00 -1.43184E-02
    9116.413    120.722   5.800  9.84036E-01  1.00436E+00 -2.03209E-02
    9118.187    122.496   5.840  9.79141E-01  1.00400E+00 -2.48586E-02
    9119.973    124.282   5.880  9.75975E-01  1.00361E+00 -2.76338E-02
    9121.771    126.081   5.920  9.74676E-01  1.00319E+00 -2.85120E-02
    9123.582    127.891   5.960  9.75498E-01  1.00276E+00 -2.72642E-02
    9125.405    129.714   6.000  9.78970E-01  1.00226E+00 -2.32867E-02
