# # comment:                                                     FEFF 9.9.1  
# # Source:
# # Structure
# # Reduced
# # space
# # abc:
# # angles:
# # sites:
# # POT  SCF 100  7.0000   0, screened core-hole, AFOLP (folp(0)= 1.150)
# # Abs   Z=29 Rmt= 1.183 Rnm= 1.331 K  shell
# # Pot 1 Z=29 Rmt= 1.349 Rnm= 1.429
# # Pot 2 Z=74 Rmt= 1.228 Rnm= 1.425
# # Pot 3 Z= 8 Rmt= 0.917 Rnm= 1.114
# # Gam_ch=1.729E+00 H-L exch Vi= 0.000E+00 Vr= 0.000E+00
# # Mu=-6.258E+00eV kf=2.176E+00 Vint=-1.429E+01eV Rs_int= 1.667
# FMS rfms= 9.0000
# # PATH  Rmax=-1.000,  Keep_limit= 0.00, Heap_limit 0.00  Pwcrit= 2.50%
#  S02=0.950  Temp=   0.00  Debye_temp=   0.00  Global_sig2= 0.00000
#  Energy zero shift, vr, vi    0.00000E+00   0.00000E+00
#  Curved wave amplitude ratio filter   4.000%
#     file         sig2 tot  cw amp ratio   deg  nlegs   reff  inp sig2
#     0/   0 paths used
#  xsedge+ 50, used to normalize mu           2.4191E-04
#  -----------------------------------------------------------------------
#  omega    e    k    mu    mu0     chi     @#
    8983.662    -10.068  -1.000  5.03437E-02  6.11794E-02 -1.08357E-02
    8983.961     -9.769  -0.960  5.38432E-02  6.57752E-02 -1.19320E-02
    8984.248     -9.483  -0.920  5.77316E-02  7.08906E-02 -1.31590E-02
    8984.522     -9.209  -0.880  6.20690E-02  7.66026E-02 -1.45335E-02
    8984.784     -8.946  -0.840  6.69258E-02  8.30004E-02 -1.60746E-02
    8985.034     -8.697  -0.800  7.23845E-02  9.01878E-02 -1.78032E-02
    8985.272     -8.459  -0.760  7.85411E-02  9.82835E-02 -1.97425E-02
    8985.497     -8.233  -0.720  8.55049E-02  1.07422E-01 -2.19171E-02
    8985.711     -8.020  -0.680  9.33980E-02  1.17751E-01 -2.43530E-02
    8985.912     -7.819  -0.640  1.02351E-01  1.29427E-01 -2.70760E-02
    8986.101     -7.630  -0.600  1.12492E-01  1.42602E-01 -3.01101E-02
    8986.278     -7.453  -0.560  1.23934E-01  1.57409E-01 -3.34744E-02
    8986.442     -7.288  -0.520  1.36745E-01  1.73924E-01 -3.71792E-02
    8986.595     -7.136  -0.480  1.50911E-01  1.92132E-01 -4.12204E-02
    8986.735     -6.996  -0.440  1.66298E-01  2.11872E-01 -4.55737E-02
    8986.863     -6.868  -0.400  1.82611E-01  2.32800E-01 -5.01885E-02
    8986.979     -6.752  -0.360  1.99392E-01  2.54376E-01 -5.49834E-02
    8987.082     -6.648  -0.320  2.16050E-01  2.75896E-01 -5.98462E-02
    8987.174     -6.557  -0.280  2.31941E-01  2.96580E-01 -6.46385E-02
    8987.253     -6.478  -0.240  2.46470E-01  3.15675E-01 -6.92050E-02
    8987.320     -6.411  -0.200  2.59167E-01  3.32554E-01 -7.33865E-02
    8987.375     -6.356  -0.160  2.69722E-01  3.46754E-01 -7.70317E-02
    8987.418     -6.313  -0.120  2.77970E-01  3.57980E-01 -8.00096E-02
    8987.448     -6.283  -0.080  2.83847E-01  3.66069E-01 -8.22214E-02
    8987.472     -6.258   0.000  2.88482E-01  3.72567E-01 -8.40851E-02
    8987.527     -6.203   0.120  2.98704E-01  3.87216E-01 -8.85119E-02
    8987.570     -6.161   0.160  3.06650E-01  3.98606E-01 -9.19565E-02
    8987.625     -6.106   0.200  3.16658E-01  4.13142E-01 -9.64837E-02
    8987.692     -6.039   0.240  3.28487E-01  4.30648E-01 -1.02161E-01
    8987.771     -5.959   0.280  3.41711E-01  4.50741E-01 -1.09030E-01
    8987.863     -5.868   0.320  3.55828E-01  4.72914E-01 -1.17086E-01
    8987.966     -5.764   0.360  3.70282E-01  4.96535E-01 -1.26253E-01
    8988.082     -5.649   0.400  3.84579E-01  5.20911E-01 -1.36331E-01
    8988.210     -5.521   0.440  3.98411E-01  5.45428E-01 -1.47017E-01
    8988.350     -5.380   0.480  4.11601E-01  5.69544E-01 -1.57944E-01
    8988.503     -5.228   0.520  4.24217E-01  5.92996E-01 -1.68779E-01
    8988.667     -5.063   0.560  4.36220E-01  6.15553E-01 -1.79333E-01
    8988.844     -4.887   0.600  4.47576E-01  6.37238E-01 -1.89662E-01
    8989.033     -4.698   0.640  4.57901E-01  6.58026E-01 -2.00125E-01
    8989.234     -4.496   0.680  4.66806E-01  6.78019E-01 -2.11213E-01
    8989.447     -4.283   0.720  4.74218E-01  6.97313E-01 -2.23095E-01
    8989.673     -4.058   0.760  4.80985E-01  7.15983E-01 -2.34998E-01
    8989.911     -3.820   0.800  4.88855E-01  7.34110E-01 -2.45255E-01
    8990.161     -3.570   0.840  4.99529E-01  7.51723E-01 -2.52193E-01
    8990.423     -3.308   0.880  5.13819E-01  7.68893E-01 -2.55074E-01
    8990.697     -3.033   0.920  5.31747E-01  7.85657E-01 -2.53910E-01
    8990.984     -2.747   0.960  5.53150E-01  8.01975E-01 -2.48825E-01
    8991.282     -2.448   1.000  5.78234E-01  8.17901E-01 -2.39668E-01
    8991.593     -2.137   1.040  6.06579E-01  8.33374E-01 -2.26795E-01
    8991.916     -1.814   1.080  6.35480E-01  8.48408E-01 -2.12928E-01
    8992.252     -1.479   1.120  6.60701E-01  8.62992E-01 -2.02291E-01
    8992.599     -1.131   1.160  6.81111E-01  8.77066E-01 -1.95955E-01
    8992.959     -0.772   1.200  6.99265E-01  8.90632E-01 -1.91367E-01
    8993.331     -0.400   1.240  7.16571E-01  9.03669E-01 -1.87098E-01
    8993.715     -0.016   1.280  7.32553E-01  9.16110E-01 -1.83557E-01
    8994.111      0.380   1.320  7.48549E-01  9.27974E-01 -1.79425E-01
    8994.519      0.789   1.360  7.66455E-01  9.39236E-01 -1.72781E-01
    8994.940      1.209   1.400  7.84041E-01  9.49853E-01 -1.65812E-01
    8995.373      1.642   1.440  7.96498E-01  9.59845E-01 -1.63346E-01
    8995.818      2.087   1.480  8.02463E-01  9.69169E-01 -1.66706E-01
    8996.275      2.544   1.520  8.04705E-01  9.77850E-01 -1.73145E-01
    8996.744      3.014   1.560  8.06947E-01  9.85868E-01 -1.78921E-01
    8997.226      3.495   1.600  8.13095E-01  9.93248E-01 -1.80152E-01
    8997.720      3.989   1.640  8.26626E-01  9.99975E-01 -1.73349E-01
    8998.226      4.495   1.680  8.48233E-01  1.00606E+00 -1.57826E-01
    8998.744      5.013   1.720  8.75120E-01  1.01153E+00 -1.36407E-01
    8999.274      5.544   1.760  9.05006E-01  1.01639E+00 -1.11386E-01
    8999.817      6.086   1.800  9.39161E-01  1.02069E+00 -8.15242E-02
    9000.371      6.641   1.840  9.80226E-01  1.02442E+00 -4.41927E-02
    9000.938      7.208   1.880  1.02973E+00  1.02761E+00  2.12797E-03
    9001.518      7.787   1.920  1.08590E+00  1.03030E+00  5.55968E-02
    9002.109      8.378   1.960  1.14313E+00  1.03250E+00  1.10627E-01
    9002.712      8.982   2.000  1.19537E+00  1.03426E+00  1.61101E-01
    9003.328      9.597   2.040  1.23960E+00  1.03560E+00  2.03996E-01
    9003.956     10.225   2.080  1.27766E+00  1.03653E+00  2.41139E-01
    9004.596     10.865   2.120  1.30980E+00  1.03710E+00  2.72699E-01
    9005.248     11.518   2.160  1.32923E+00  1.03735E+00  2.91879E-01
    9005.913     12.182   2.200  1.33162E+00  1.03729E+00  2.94335E-01
    9006.589     12.859   2.240  1.32155E+00  1.03693E+00  2.84620E-01
    9007.278     13.548   2.280  1.30488E+00  1.03634E+00  2.68535E-01
    9007.979     14.249   2.320  1.28617E+00  1.03551E+00  2.50658E-01
    9008.692     14.962   2.360  1.26641E+00  1.03450E+00  2.31907E-01
    9009.418     15.687   2.400  1.24207E+00  1.03331E+00  2.08751E-01
    9010.156     16.425   2.440  1.20930E+00  1.03197E+00  1.77336E-01
    9010.905     17.175   2.480  1.16965E+00  1.03049E+00  1.39162E-01
    9011.667     17.937   2.520  1.12792E+00  1.02892E+00  9.89982E-02
    9012.442     18.711   2.560  1.08837E+00  1.02726E+00  6.11073E-02
    9013.228     19.497   2.600  1.06099E+00  1.02553E+00  3.54686E-02
    9014.026     20.296   2.640  1.04765E+00  1.02376E+00  2.38918E-02
    9014.837     21.107   2.680  1.04115E+00  1.02194E+00  1.92077E-02
    9015.660     21.930   2.720  1.03703E+00  1.02013E+00  1.68957E-02
    9016.495     22.765   2.760  1.03287E+00  1.01830E+00  1.45704E-02
    9017.343     23.612   2.800  1.02778E+00  1.01649E+00  1.12931E-02
    9018.202     24.472   2.840  1.02136E+00  1.01468E+00  6.67287E-03
    9019.074     25.343   2.880  1.01349E+00  1.01292E+00  5.74761E-04
    9019.958     26.227   2.920  1.00413E+00  1.01122E+00 -7.08578E-03
    9020.854     27.123   2.960  9.93534E-01  1.00954E+00 -1.60035E-02
    9021.762     28.032   3.000  9.82319E-01  1.00793E+00 -2.56108E-02
    9022.683     28.952   3.040  9.71246E-01  1.00640E+00 -3.51505E-02
    9023.615     29.885   3.080  9.61440E-01  1.00494E+00 -4.35024E-02
    9024.560     30.830   3.120  9.53999E-01  1.00357E+00 -4.95709E-02
    9025.517     31.787   3.160  9.49460E-01  1.00228E+00 -5.28197E-02
    9026.487     32.756   3.200  9.47785E-01  1.00108E+00 -5.32907E-02
    9027.468     33.738   3.240  9.48401E-01  9.99981E-01 -5.15801E-02
    9028.462     34.731   3.280  9.50464E-01  9.98974E-01 -4.85100E-02
    9029.468     35.737   3.320  9.53223E-01  9.98057E-01 -4.48340E-02
    9030.486     36.755   3.360  9.56040E-01  9.97252E-01 -4.12119E-02
    9031.516     37.785   3.400  9.58281E-01  9.96562E-01 -3.82806E-02
    9032.558     38.828   3.440  9.59432E-01  9.95963E-01 -3.65311E-02
    9033.613     39.882   3.480  9.59133E-01  9.95456E-01 -3.63231E-02
    9034.680     40.949   3.520  9.57323E-01  9.95085E-01 -3.77613E-02
    9035.759     42.028   3.560  9.54049E-01  9.94783E-01 -4.07340E-02
    9036.850     43.119   3.600  9.49824E-01  9.94615E-01 -4.47910E-02
    9037.953     44.223   3.640  9.45294E-01  9.94517E-01 -4.92229E-02
    9039.069     45.338   3.680  9.41306E-01  9.94530E-01 -5.32245E-02
    9040.196     46.466   3.720  9.38610E-01  9.94654E-01 -5.60443E-02
    9041.336     47.606   3.760  9.37706E-01  9.94865E-01 -5.71593E-02
    9042.489     48.758   3.800  9.38741E-01  9.95162E-01 -5.64205E-02
    9043.653     49.922   3.840  9.41387E-01  9.95542E-01 -5.41552E-02
    9044.829     51.099   3.880  9.45095E-01  9.96003E-01 -5.09085E-02
    9046.018     52.288   3.920  9.49304E-01  9.96545E-01 -4.72414E-02
    9047.219     53.488   3.960  9.53610E-01  9.97167E-01 -4.35573E-02
    9048.432     54.702   4.000  9.57908E-01  9.97865E-01 -3.99577E-02
    9049.657     55.927   4.040  9.62401E-01  9.98615E-01 -3.62143E-02
    9050.895     57.164   4.080  9.67509E-01  9.99437E-01 -3.19287E-02
    9052.145     58.414   4.120  9.73577E-01  1.00031E+00 -2.67318E-02
    9053.406     59.676   4.160  9.80877E-01  1.00125E+00 -2.03711E-02
    9054.681     60.950   4.200  9.89443E-01  1.00223E+00 -1.27866E-02
    9055.967     62.236   4.240  9.99051E-01  1.00323E+00 -4.17774E-03
    9057.265     63.535   4.280  1.00929E+00  1.00429E+00  5.00526E-03
    9058.576     64.845   4.320  1.01951E+00  1.00536E+00  1.41516E-02
    9059.899     66.168   4.360  1.02914E+00  1.00646E+00  2.26765E-02
    9061.234     67.503   4.400  1.03776E+00  1.00757E+00  3.01907E-02
    9062.581     68.850   4.440  1.04525E+00  1.00869E+00  3.65597E-02
    9063.940     70.210   4.480  1.05160E+00  1.00982E+00  4.17714E-02
    9065.312     71.581   4.520  1.05674E+00  1.01096E+00  4.57799E-02
    9066.696     72.965   4.560  1.06058E+00  1.01208E+00  4.85059E-02
    9068.092     74.361   4.600  1.06307E+00  1.01321E+00  4.98608E-02
    9069.500     75.769   4.640  1.06421E+00  1.01431E+00  4.98989E-02
    9070.920     77.190   4.680  1.06430E+00  1.01537E+00  4.89222E-02
    9072.353     78.622   4.720  1.06383E+00  1.01642E+00  4.74041E-02
    9073.797     80.067   4.760  1.06325E+00  1.01741E+00  4.58408E-02
    9075.254     81.524   4.800  1.06301E+00  1.01838E+00  4.46261E-02
    9076.724     82.993   4.840  1.06320E+00  1.01932E+00  4.38832E-02
    9078.205     84.474   4.880  1.06366E+00  1.02020E+00  4.34536E-02
    9079.698     85.968   4.920  1.06403E+00  1.02104E+00  4.29823E-02
    9081.204     87.474   4.960  1.06385E+00  1.02182E+00  4.20352E-02
    9082.722     88.991   5.000  1.06278E+00  1.02254E+00  4.02412E-02
    9084.252     90.522   5.040  1.06055E+00  1.02321E+00  3.73368E-02
    9085.794     92.064   5.080  1.05687E+00  1.02380E+00  3.30695E-02
    9087.349     93.618   5.120  1.05157E+00  1.02432E+00  2.72413E-02
    9088.916     95.185   5.160  1.04465E+00  1.02479E+00  1.98547E-02
    9090.494     96.764   5.200  1.03646E+00  1.02518E+00  1.12800E-02
    9092.085     98.355   5.240  1.02772E+00  1.02549E+00  2.22994E-03
    9093.689     99.958   5.280  1.01915E+00  1.02574E+00 -6.58708E-03
    9095.304    101.574   5.320  1.01117E+00  1.02590E+00 -1.47264E-02
    9096.932    103.201   5.360  1.00394E+00  1.02602E+00 -2.20802E-02
    9098.572    104.841   5.400  9.97240E-01  1.02603E+00 -2.87938E-02
    9100.224    106.493   5.440  9.90911E-01  1.02597E+00 -3.50614E-02
    9101.888    108.157   5.480  9.84946E-01  1.02586E+00 -4.09103E-02
    9103.564    109.834   5.520  9.79591E-01  1.02567E+00 -4.60758E-02
    9105.253    111.522   5.560  9.75386E-01  1.02542E+00 -5.00370E-02
    9106.953    113.223   5.600  9.72999E-01  1.02510E+00 -5.21043E-02
    9108.666    114.936   5.640  9.73125E-01  1.02471E+00 -5.15826E-02
    9110.392    116.661   5.680  9.76277E-01  1.02426E+00 -4.79854E-02
    9112.129    118.398   5.720  9.82493E-01  1.02375E+00 -4.12532E-02
    9113.879    120.148   5.760  9.91310E-01  1.02318E+00 -3.18739E-02
    9115.640    121.910   5.800  1.00174E+00  1.02258E+00 -2.08374E-02
    9117.414    123.684   5.840  1.01256E+00  1.02193E+00 -9.37671E-03
    9119.200    125.470   5.880  1.02255E+00  1.02123E+00  1.32173E-03
    9120.999    127.268   5.920  1.03078E+00  1.02051E+00  1.02694E-02
    9122.809    129.079   5.960  1.03642E+00  1.01974E+00  1.66868E-02
    9124.632    130.901   6.000  1.03897E+00  1.01892E+00  2.00494E-02
