# # comment:                                                     FEFF 9.9.1  
# # Source:
# # Structure
# # Reduced
# # space
# # abc:
# # angles:
# # sites:
# # POT  SCF 100  7.0000   0, screened core-hole, AFOLP (folp(0)= 1.150)
# # Abs   Z=29 Rmt= 1.269 Rnm= 1.347 K  shell
# # Pot 1 Z=56 Rmt= 2.072 Rnm= 2.131
# # Pot 2 Z=29 Rmt= 1.269 Rnm= 1.347
# # Pot 3 Z=34 Rmt= 1.101 Rnm= 1.325
# # Pot 4 Z= 8 Rmt= 0.955 Rnm= 1.071
# # Gam_ch=1.729E+00 H-L exch Vi= 0.000E+00 Vr= 0.000E+00
# # Mu=-5.622E+00eV kf=2.242E+00 Vint=-1.607E+01eV Rs_int= 1.618
# FMS rfms= 9.0000
# # PATH  Rmax=-1.000,  Keep_limit= 0.00, Heap_limit 0.00  Pwcrit= 2.50%
#  S02=0.950  Temp=   0.00  Debye_temp=   0.00  Global_sig2= 0.00000
#  Energy zero shift, vr, vi    0.00000E+00   0.00000E+00
#  Curved wave amplitude ratio filter   4.000%
#     file         sig2 tot  cw amp ratio   deg  nlegs   reff  inp sig2
#     0/   0 paths used
#  xsedge+ 50, used to normalize mu           2.4584E-04
#  -----------------------------------------------------------------------
#  omega    e    k    mu    mu0     chi     @#
    8983.698     -9.432  -1.000  4.90886E-02  5.85107E-02 -9.42203E-03
    8983.996     -9.134  -0.960  5.23341E-02  6.29202E-02 -1.05861E-02
    8984.283     -8.847  -0.920  5.59218E-02  6.78345E-02 -1.19127E-02
    8984.557     -8.573  -0.880  5.99033E-02  7.33292E-02 -1.34259E-02
    8984.819     -8.311  -0.840  6.43390E-02  7.94926E-02 -1.51536E-02
    8985.069     -8.061  -0.800  6.92998E-02  8.64269E-02 -1.71271E-02
    8985.307     -7.823  -0.760  7.48677E-02  9.42498E-02 -1.93821E-02
    8985.533     -7.598  -0.720  8.11364E-02  1.03095E-01 -2.19581E-02
    8985.746     -7.384  -0.680  8.82099E-02  1.13108E-01 -2.48978E-02
    8985.947     -7.183  -0.640  9.61994E-02  1.24445E-01 -2.82454E-02
    8986.136     -6.994  -0.600  1.05216E-01  1.37259E-01 -3.20429E-02
    8986.313     -6.817  -0.560  1.15356E-01  1.51680E-01 -3.63246E-02
    8986.478     -6.653  -0.520  1.26681E-01  1.67789E-01 -4.11074E-02
    8986.630     -6.500  -0.480  1.39190E-01  1.85569E-01 -4.63789E-02
    8986.770     -6.360  -0.440  1.52781E-01  2.04864E-01 -5.20834E-02
    8986.898     -6.232  -0.400  1.67224E-01  2.25334E-01 -5.81104E-02
    8987.014     -6.116  -0.360  1.82151E-01  2.46445E-01 -6.42939E-02
    8987.118     -6.013  -0.320  1.97075E-01  2.67501E-01 -7.04256E-02
    8987.209     -5.921  -0.280  2.11449E-01  2.87732E-01 -7.62823E-02
    8987.288     -5.842  -0.240  2.24739E-01  3.06398E-01 -8.16585E-02
    8987.355     -5.775  -0.200  2.36493E-01  3.22882E-01 -8.63895E-02
    8987.410     -5.720  -0.160  2.46380E-01  3.36738E-01 -9.03585E-02
    8987.453     -5.677  -0.120  2.54191E-01  3.47682E-01 -9.34911E-02
    8987.483     -5.647  -0.080  2.59814E-01  3.55560E-01 -9.57460E-02
    8987.508     -5.622   0.000  2.64322E-01  3.61886E-01 -9.75637E-02
    8987.563     -5.568   0.120  2.74169E-01  3.76135E-01 -1.01966E-01
    8987.605     -5.525   0.160  2.81858E-01  3.87198E-01 -1.05340E-01
    8987.660     -5.470   0.200  2.91580E-01  4.01282E-01 -1.09703E-01
    8987.727     -5.403   0.240  3.03170E-01  4.18218E-01 -1.15048E-01
    8987.806     -5.324   0.280  3.16143E-01  4.37579E-01 -1.21436E-01
    8987.898     -5.232   0.320  3.29922E-01  4.58874E-01 -1.28952E-01
    8988.002     -5.129   0.360  3.43634E-01  4.81411E-01 -1.37777E-01
    8988.117     -5.013   0.400  3.56287E-01  5.04494E-01 -1.48207E-01
    8988.245     -4.885   0.440  3.66903E-01  5.27490E-01 -1.60588E-01
    8988.386     -4.745   0.480  3.74719E-01  5.49893E-01 -1.75174E-01
    8988.538     -4.592   0.520  3.79499E-01  5.71391E-01 -1.91892E-01
    8988.703     -4.428   0.560  3.81682E-01  5.91818E-01 -2.10136E-01
    8988.879     -4.251   0.600  3.82414E-01  6.11161E-01 -2.28747E-01
    8989.068     -4.062   0.640  3.83194E-01  6.29450E-01 -2.46256E-01
    8989.270     -3.861   0.680  3.85546E-01  6.46778E-01 -2.61232E-01
    8989.483     -3.647   0.720  3.90697E-01  6.63298E-01 -2.72600E-01
    8989.708     -3.422   0.760  3.99559E-01  6.79119E-01 -2.79560E-01
    8989.946     -3.184   0.800  4.12954E-01  6.94304E-01 -2.81349E-01
    8990.196     -2.934   0.840  4.31871E-01  7.08976E-01 -2.77105E-01
    8990.458     -2.672   0.880  4.57192E-01  7.23207E-01 -2.66015E-01
    8990.733     -2.398   0.920  4.89082E-01  7.37030E-01 -2.47948E-01
    8991.019     -2.111   0.960  5.26049E-01  7.50507E-01 -2.24458E-01
    8991.318     -1.812   1.000  5.64404E-01  7.63663E-01 -1.99258E-01
    8991.629     -1.502   1.040  5.98765E-01  7.76496E-01 -1.77731E-01
    8991.952     -1.178   1.080  6.23900E-01  7.89058E-01 -1.65158E-01
    8992.287     -0.843   1.120  6.38102E-01  8.01308E-01 -1.63206E-01
    8992.634     -0.496   1.160  6.45565E-01  8.13262E-01 -1.67697E-01
    8992.994     -0.136   1.200  6.54323E-01  8.24932E-01 -1.70609E-01
    8993.366      0.236   1.240  6.71572E-01  8.36285E-01 -1.64713E-01
    8993.750      0.620   1.280  7.00245E-01  8.47307E-01 -1.47062E-01
    8994.146      1.016   1.320  7.40415E-01  8.58000E-01 -1.17585E-01
    8994.555      1.425   1.360  7.91928E-01  8.68365E-01 -7.64371E-02
    8994.975      1.845   1.400  8.49563E-01  8.78342E-01 -2.87793E-02
    8995.408      2.278   1.440  9.00169E-01  8.87971E-01  1.21983E-02
    8995.853      2.723   1.480  9.39675E-01  8.97231E-01  4.24442E-02
    8996.310      3.180   1.520  9.81688E-01  9.06082E-01  7.56057E-02
    8996.780      3.650   1.560  1.03676E+00  9.14543E-01  1.22218E-01
    8997.261      4.131   1.600  1.09733E+00  9.22593E-01  1.74737E-01
    8997.755      4.625   1.640  1.15618E+00  9.30232E-01  2.25943E-01
    8998.261      5.131   1.680  1.22002E+00  9.37462E-01  2.82555E-01
    8998.779      5.649   1.720  1.28715E+00  9.44265E-01  3.42884E-01
    8999.310      6.179   1.760  1.33878E+00  9.50681E-01  3.88096E-01
    8999.852      6.722   1.800  1.36446E+00  9.56676E-01  4.07785E-01
    9000.407      7.277   1.840  1.36762E+00  9.62252E-01  4.05369E-01
    9000.974      7.844   1.880  1.35364E+00  9.67454E-01  3.86187E-01
    9001.553      8.423   1.920  1.32896E+00  9.72247E-01  3.56712E-01
    9002.144      9.014   1.960  1.29899E+00  9.76676E-01  3.22312E-01
    9002.748      9.618   2.000  1.26569E+00  9.80708E-01  2.84979E-01
    9003.363     10.233   2.040  1.23029E+00  9.84388E-01  2.45900E-01
    9003.991     10.861   2.080  1.19559E+00  9.87746E-01  2.07842E-01
    9004.631     11.501   2.120  1.16538E+00  9.90748E-01  1.74630E-01
    9005.284     12.153   2.160  1.14213E+00  9.93422E-01  1.48707E-01
    9005.948     12.818   2.200  1.12556E+00  9.95815E-01  1.29740E-01
    9006.625     13.495   2.240  1.11378E+00  9.97897E-01  1.15879E-01
    9007.314     14.183   2.280  1.10393E+00  9.99735E-01  1.04192E-01
    9008.015     14.884   2.320  1.09227E+00  1.00130E+00  9.09669E-02
    9008.728     15.598   2.360  1.07734E+00  1.00261E+00  7.47259E-02
    9009.453     16.323   2.400  1.06042E+00  1.00371E+00  5.67045E-02
    9010.191     17.061   2.440  1.04190E+00  1.00460E+00  3.73043E-02
    9010.941     17.811   2.480  1.02275E+00  1.00528E+00  1.74713E-02
    9011.703     18.572   2.520  1.00736E+00  1.00579E+00  1.57001E-03
    9012.477     19.347   2.560  9.99566E-01  1.00614E+00 -6.57251E-03
    9013.263     20.133   2.600  9.95092E-01  1.00635E+00 -1.12531E-02
    9014.062     20.932   2.640  9.84398E-01  1.00642E+00 -2.20241E-02
    9014.873     21.742   2.680  9.66702E-01  1.00635E+00 -3.96504E-02
    9015.696     22.565   2.720  9.49228E-01  1.00619E+00 -5.69586E-02
    9016.531     23.401   2.760  9.34306E-01  1.00593E+00 -7.16254E-02
    9017.378     24.248   2.800  9.22670E-01  1.00559E+00 -8.29207E-02
    9018.238     25.107   2.840  9.14240E-01  1.00517E+00 -9.09315E-02
    9019.109     25.979   2.880  9.08533E-01  1.00470E+00 -9.61676E-02
    9019.993     26.863   2.920  9.04408E-01  1.00418E+00 -9.97736E-02
    9020.889     27.759   2.960  9.00910E-01  1.00360E+00 -1.02689E-01
    9021.798     28.667   3.000  8.97650E-01  1.00300E+00 -1.05351E-01
    9022.718     29.588   3.040  8.94557E-01  1.00239E+00 -1.07833E-01
    9023.651     30.521   3.080  8.91927E-01  1.00175E+00 -1.09822E-01
    9024.596     31.465   3.120  8.90277E-01  1.00110E+00 -1.10828E-01
    9025.553     32.423   3.160  8.89553E-01  1.00048E+00 -1.10926E-01
    9026.522     33.392   3.200  8.89729E-01  9.99835E-01 -1.10106E-01
    9027.503     34.373   3.240  8.91125E-01  9.99216E-01 -1.08091E-01
    9028.497     35.367   3.280  8.94156E-01  9.98603E-01 -1.04447E-01
    9029.503     36.373   3.320  8.99207E-01  9.98020E-01 -9.88128E-02
    9030.521     37.391   3.360  9.06462E-01  9.97471E-01 -9.10090E-02
    9031.551     38.421   3.400  9.15860E-01  9.96935E-01 -8.10746E-02
    9032.594     39.463   3.440  9.26846E-01  9.96434E-01 -6.95875E-02
    9033.648     40.518   3.480  9.38936E-01  9.95972E-01 -5.70364E-02
    9034.715     41.585   3.520  9.51639E-01  9.95571E-01 -4.39323E-02
    9035.794     42.664   3.560  9.64378E-01  9.95187E-01 -3.08093E-02
    9036.885     43.755   3.600  9.76704E-01  9.94844E-01 -1.81393E-02
    9037.989     44.858   3.640  9.88307E-01  9.94562E-01 -6.25521E-03
    9039.104     45.974   3.680  9.98905E-01  9.94303E-01  4.60188E-03
    9040.232     47.102   3.720  1.00839E+00  9.94106E-01  1.42820E-02
    9041.372     48.242   3.760  1.01679E+00  9.93951E-01  2.28388E-02
    9042.524     49.394   3.800  1.02427E+00  9.93837E-01  3.04323E-02
    9043.688     50.558   3.840  1.03092E+00  9.93765E-01  3.71507E-02
    9044.865     51.735   3.880  1.03680E+00  9.93735E-01  4.30620E-02
    9046.054     52.923   3.920  1.04181E+00  9.93768E-01  4.80446E-02
    9047.254     54.124   3.960  1.04559E+00  9.93822E-01  5.17723E-02
    9048.468     55.337   4.000  1.04782E+00  9.93935E-01  5.38889E-02
    9049.693     56.563   4.040  1.04835E+00  9.94068E-01  5.42790E-02
    9050.930     57.800   4.080  1.04741E+00  9.94259E-01  5.31548E-02
    9052.180     59.050   4.120  1.04554E+00  9.94466E-01  5.10726E-02
    9053.442     60.312   4.160  1.04355E+00  9.94710E-01  4.88377E-02
    9054.716     61.586   4.200  1.04218E+00  9.94990E-01  4.71940E-02
    9056.002     62.872   4.240  1.04190E+00  9.95307E-01  4.65949E-02
    9057.301     64.170   4.280  1.04280E+00  9.95657E-01  4.71421E-02
    9058.611     65.481   4.320  1.04466E+00  9.96017E-01  4.86453E-02
    9059.934     66.804   4.360  1.04707E+00  9.96385E-01  5.06869E-02
    9061.269     68.139   4.400  1.04951E+00  9.96805E-01  5.27001E-02
    9062.616     69.486   4.440  1.05129E+00  9.97210E-01  5.40830E-02
    9063.976     70.845   4.480  1.05185E+00  9.97641E-01  5.42063E-02
    9065.347     72.217   4.520  1.05062E+00  9.98075E-01  5.25425E-02
    9066.731     73.601   4.560  1.04736E+00  9.98513E-01  4.88523E-02
    9068.127     74.997   4.600  1.04220E+00  9.98973E-01  4.32241E-02
    9069.535     76.405   4.640  1.03542E+00  9.99412E-01  3.60069E-02
    9070.956     77.825   4.680  1.02757E+00  9.99848E-01  2.77208E-02
    9072.388     79.258   4.720  1.01925E+00  1.00030E+00  1.89499E-02
    9073.833     80.703   4.760  1.01101E+00  1.00074E+00  1.02706E-02
    9075.290     82.160   4.800  1.00339E+00  1.00116E+00  2.23018E-03
    9076.759     83.629   4.840  9.96789E-01  1.00156E+00 -4.76763E-03
    9078.240     85.110   4.880  9.91408E-01  1.00197E+00 -1.05579E-02
    9079.734     86.604   4.920  9.87069E-01  1.00232E+00 -1.52550E-02
    9081.239     88.109   4.960  9.83464E-01  1.00269E+00 -1.92289E-02
    9082.757     89.627   5.000  9.80060E-01  1.00301E+00 -2.29456E-02
    9084.287     91.157   5.040  9.76535E-01  1.00331E+00 -2.67730E-02
    9085.830     92.700   5.080  9.72670E-01  1.00360E+00 -3.09288E-02
    9087.384     94.254   5.120  9.68496E-01  1.00385E+00 -3.53583E-02
    9088.951     95.821   5.160  9.64287E-01  1.00407E+00 -3.97850E-02
    9090.530     97.400   5.200  9.60548E-01  1.00425E+00 -4.37054E-02
    9092.121     98.991   5.240  9.57892E-01  1.00442E+00 -4.65255E-02
    9093.724    100.594   5.280  9.56807E-01  1.00452E+00 -4.77152E-02
    9095.339    102.209   5.320  9.57679E-01  1.00461E+00 -4.69320E-02
    9096.967    103.837   5.360  9.60471E-01  1.00466E+00 -4.41902E-02
    9098.607    105.477   5.400  9.64761E-01  1.00468E+00 -3.99140E-02
    9100.259    107.129   5.440  9.69835E-01  1.00467E+00 -3.48364E-02
    9101.923    108.793   5.480  9.74879E-01  1.00461E+00 -2.97263E-02
    9103.600    110.469   5.520  9.79348E-01  1.00450E+00 -2.51522E-02
    9105.288    112.158   5.560  9.82910E-01  1.00438E+00 -2.14679E-02
    9106.989    113.859   5.600  9.85302E-01  1.00422E+00 -1.89157E-02
    9108.702    115.572   5.640  9.86349E-01  1.00400E+00 -1.76471E-02
    9110.427    117.297   5.680  9.86141E-01  1.00376E+00 -1.76163E-02
    9112.164    119.034   5.720  9.84979E-01  1.00348E+00 -1.85051E-02
    9113.914    120.784   5.760  9.83460E-01  1.00320E+00 -1.97372E-02
    9115.676    122.545   5.800  9.82245E-01  1.00285E+00 -2.06074E-02
    9117.450    124.319   5.840  9.82050E-01  1.00250E+00 -2.04468E-02
    9119.236    126.105   5.880  9.83326E-01  1.00211E+00 -1.87815E-02
    9121.034    127.904   5.920  9.86228E-01  1.00169E+00 -1.54590E-02
    9122.844    129.714   5.960  9.90651E-01  1.00126E+00 -1.06125E-02
    9124.667    131.537   6.000  9.96385E-01  1.00079E+00 -4.40409E-03
