# # comment:                                                     FEFF 9.9.1  
# # Source:
# # Structure
# # Reduced
# # space
# # abc:
# # angles:
# # sites:
# # POT  SCF 100  7.0000   0, screened core-hole, AFOLP (folp(0)= 1.150)
# # Abs   Z=29 Rmt= 1.221 Rnm= 1.287 K  shell
# # Pot 1 Z=30 Rmt= 1.351 Rnm= 1.426
# # Pot 2 Z=29 Rmt= 1.225 Rnm= 1.291
# # Pot 3 Z= 8 Rmt= 1.029 Rnm= 1.111
# # Gam_ch=1.729E+00 H-L exch Vi= 0.000E+00 Vr= 0.000E+00
# # Mu=-8.849E+00eV kf=2.160E+00 Vint=-1.624E+01eV Rs_int= 1.679
# FMS rfms= 9.0000
# # PATH  Rmax=-1.000,  Keep_limit= 0.00, Heap_limit 0.00  Pwcrit= 2.50%
#  S02=0.950  Temp=   0.00  Debye_temp=   0.00  Global_sig2= 0.00000
#  Energy zero shift, vr, vi    0.00000E+00   0.00000E+00
#  Curved wave amplitude ratio filter   4.000%
#     file         sig2 tot  cw amp ratio   deg  nlegs   reff  inp sig2
#     0/   0 paths used
#  xsedge+ 50, used to normalize mu           2.4528E-04
#  -----------------------------------------------------------------------
#  omega    e    k    mu    mu0     chi     @#
    8983.956    -12.659  -1.000  2.80231E-02  5.19971E-02 -2.39740E-02
    8984.255    -12.360  -0.960  2.90509E-02  5.56811E-02 -2.66302E-02
    8984.542    -12.074  -0.920  3.01244E-02  5.97649E-02 -2.96405E-02
    8984.816    -11.800  -0.880  3.12474E-02  6.43063E-02 -3.30589E-02
    8985.078    -11.537  -0.840  3.24243E-02  6.93723E-02 -3.69480E-02
    8985.328    -11.287  -0.800  3.36604E-02  7.50407E-02 -4.13803E-02
    8985.566    -11.050  -0.760  3.49617E-02  8.14004E-02 -4.64388E-02
    8985.791    -10.824  -0.720  3.63353E-02  8.85518E-02 -5.22166E-02
    8986.005    -10.611  -0.680  3.77889E-02  9.66051E-02 -5.88163E-02
    8986.206    -10.410  -0.640  3.93307E-02  1.05676E-01 -6.63458E-02
    8986.395    -10.221  -0.600  4.09685E-02  1.15880E-01 -7.49112E-02
    8986.571    -10.044  -0.560  4.27078E-02  1.27311E-01 -8.46033E-02
    8986.736     -9.879  -0.520  4.45501E-02  1.40028E-01 -9.54774E-02
    8986.888     -9.727  -0.480  4.64889E-02  1.54014E-01 -1.07525E-01
    8987.029     -9.587  -0.440  4.85061E-02  1.69149E-01 -1.20643E-01
    8987.157     -9.459  -0.400  5.05692E-02  1.85172E-01 -1.34603E-01
    8987.272     -9.343  -0.360  5.26309E-02  2.01674E-01 -1.49043E-01
    8987.376     -9.239  -0.320  5.46328E-02  2.18126E-01 -1.63493E-01
    8987.468     -9.148  -0.280  5.65136E-02  2.33937E-01 -1.77423E-01
    8987.547     -9.069  -0.240  5.82185E-02  2.48538E-01 -1.90320E-01
    8987.614     -9.001  -0.200  5.97054E-02  2.61452E-01 -2.01747E-01
    8987.669     -8.947  -0.160  6.09471E-02  2.72325E-01 -2.11378E-01
    8987.711     -8.904  -0.120  6.19289E-02  2.80927E-01 -2.18998E-01
    8987.742     -8.873  -0.080  6.26437E-02  2.87130E-01 -2.24486E-01
    8987.766     -8.849   0.000  6.32452E-02  2.92117E-01 -2.28872E-01
    8987.821     -8.794   0.120  6.46370E-02  3.03361E-01 -2.38724E-01
    8987.864     -8.752   0.160  6.56232E-02  3.12119E-01 -2.46496E-01
    8987.919     -8.697   0.200  6.68671E-02  3.23342E-01 -2.56474E-01
    8987.986     -8.630   0.240  6.82715E-02  3.36834E-01 -2.68562E-01
    8988.065     -8.550   0.280  6.98726E-02  3.52411E-01 -2.82539E-01
    8988.156     -8.459   0.320  7.16003E-02  3.69672E-01 -2.98071E-01
    8988.260     -8.355   0.360  7.34021E-02  3.88159E-01 -3.14757E-01
    8988.376     -8.239   0.400  7.53184E-02  4.07389E-01 -3.32070E-01
    8988.504     -8.111   0.440  7.73251E-02  4.26894E-01 -3.49569E-01
    8988.644     -7.971   0.480  7.95126E-02  4.46350E-01 -3.66837E-01
    8988.796     -7.819   0.520  8.19356E-02  4.65497E-01 -3.83561E-01
    8988.961     -7.654   0.560  8.46649E-02  4.84212E-01 -3.99547E-01
    8989.138     -7.477   0.600  8.78408E-02  5.02504E-01 -4.14663E-01
    8989.327     -7.289   0.640  9.15638E-02  5.20399E-01 -4.28836E-01
    8989.528     -7.087   0.680  9.59914E-02  5.37935E-01 -4.41944E-01
    8989.741     -6.874   0.720  1.01304E-01  5.55200E-01 -4.53896E-01
    8989.967     -6.648   0.760  1.07640E-01  5.72239E-01 -4.64599E-01
    8990.205     -6.411   0.800  1.15194E-01  5.89149E-01 -4.73955E-01
    8990.455     -6.161   0.840  1.23923E-01  6.05934E-01 -4.82012E-01
    8990.717     -5.899   0.880  1.33719E-01  6.22648E-01 -4.88929E-01
    8990.991     -5.624   0.920  1.44594E-01  6.39289E-01 -4.94696E-01
    8991.278     -5.338   0.960  1.57028E-01  6.55867E-01 -4.98839E-01
    8991.576     -5.039   1.000  1.71641E-01  6.72380E-01 -5.00739E-01
    8991.887     -4.728   1.040  1.88475E-01  6.88801E-01 -5.00326E-01
    8992.210     -4.405   1.080  2.06892E-01  7.05113E-01 -4.98220E-01
    8992.546     -4.070   1.120  2.26466E-01  7.21296E-01 -4.94829E-01
    8992.893     -3.722   1.160  2.46341E-01  7.37304E-01 -4.90963E-01
    8993.253     -3.363   1.200  2.64193E-01  7.53109E-01 -4.88916E-01
    8993.625     -2.991   1.240  2.79304E-01  7.68658E-01 -4.89354E-01
    8994.009     -2.607   1.280  2.94471E-01  7.83940E-01 -4.89469E-01
    8994.405     -2.211   1.320  3.13158E-01  7.98878E-01 -4.85721E-01
    8994.813     -1.802   1.360  3.37814E-01  8.13462E-01 -4.75648E-01
    8995.234     -1.382   1.400  3.70140E-01  8.27655E-01 -4.57515E-01
    8995.667     -0.949   1.440  4.10772E-01  8.41423E-01 -4.30651E-01
    8996.112     -0.504   1.480  4.59692E-01  8.54714E-01 -3.95021E-01
    8996.569     -0.046   1.520  5.20199E-01  8.67515E-01 -3.47316E-01
    8997.038      0.423   1.560  5.97576E-01  8.79817E-01 -2.82241E-01
    8997.520      0.904   1.600  6.86097E-01  8.91569E-01 -2.05471E-01
    8998.014      1.398   1.640  7.71758E-01  9.02765E-01 -1.31007E-01
    8998.520      1.904   1.680  8.58684E-01  9.13377E-01 -5.46931E-02
    8999.038      2.422   1.720  9.58380E-01  9.23424E-01  3.49560E-02
    8999.568      2.953   1.760  1.06055E+00  9.32884E-01  1.27663E-01
    9000.111      3.495   1.800  1.15925E+00  9.41755E-01  2.17499E-01
    9000.665      4.050   1.840  1.28613E+00  9.50039E-01  3.36093E-01
    9001.232      4.617   1.880  1.47648E+00  9.57739E-01  5.18741E-01
    9001.811      5.196   1.920  1.73093E+00  9.64861E-01  7.66065E-01
    9002.403      5.787   1.960  1.97131E+00  9.71428E-01  9.99884E-01
    9003.006      6.391   2.000  2.08413E+00  9.77429E-01  1.10670E+00
    9003.622      7.007   2.040  2.04609E+00  9.82891E-01  1.06320E+00
    9004.250      7.634   2.080  1.89246E+00  9.87846E-01  9.04611E-01
    9004.890      8.275   2.120  1.65735E+00  9.92302E-01  6.65048E-01
    9005.542      8.927   2.160  1.41933E+00  9.96270E-01  4.23060E-01
    9006.207      9.591   2.200  1.25237E+00  9.99802E-01  2.52569E-01
    9006.883     10.268   2.240  1.15635E+00  1.00287E+00  1.53483E-01
    9007.572     10.957   2.280  1.09114E+00  1.00554E+00  8.55924E-02
    9008.273     11.658   2.320  1.02979E+00  1.00784E+00  2.19518E-02
    9008.986     12.371   2.360  9.74865E-01  1.00974E+00 -3.48764E-02
    9009.712     13.096   2.400  9.36594E-01  1.01133E+00 -7.47362E-02
    9010.449     13.834   2.440  9.15549E-01  1.01258E+00 -9.70263E-02
    9011.199     14.584   2.480  9.09437E-01  1.01355E+00 -1.04112E-01
    9011.961     15.346   2.520  9.27862E-01  1.01424E+00 -8.63806E-02
    9012.735     16.120   2.560  9.82050E-01  1.01469E+00 -3.26389E-02
    9013.522     16.906   2.600  1.04611E+00  1.01492E+00  3.11898E-02
    9014.320     17.705   2.640  1.08694E+00  1.01494E+00  7.20027E-02
    9015.131     18.516   2.680  1.10554E+00  1.01477E+00  9.07749E-02
    9015.954     19.339   2.720  1.10282E+00  1.01443E+00  8.83920E-02
    9016.789     20.174   2.760  1.08086E+00  1.01396E+00  6.69013E-02
    9017.637     21.021   2.800  1.04537E+00  1.01336E+00  3.20145E-02
    9018.496     21.881   2.840  1.00466E+00  1.01264E+00 -7.97731E-03
    9019.368     22.752   2.880  9.65706E-01  1.01184E+00 -4.61293E-02
    9020.252     23.636   2.920  9.31300E-01  1.01097E+00 -7.96696E-02
    9021.148     24.532   2.960  9.02220E-01  1.01001E+00 -1.07789E-01
    9022.056     25.441   3.000  8.77914E-01  1.00902E+00 -1.31108E-01
    9022.977     26.361   3.040  8.57148E-01  1.00797E+00 -1.50825E-01
    9023.909     27.294   3.080  8.39144E-01  1.00691E+00 -1.67767E-01
    9024.854     28.239   3.120  8.23373E-01  1.00584E+00 -1.82468E-01
    9025.811     29.196   3.160  8.09622E-01  1.00476E+00 -1.95143E-01
    9026.781     30.165   3.200  7.98516E-01  1.00367E+00 -2.05154E-01
    9027.762     31.147   3.240  7.91227E-01  1.00260E+00 -2.11374E-01
    9028.756     32.140   3.280  7.88518E-01  1.00156E+00 -2.13045E-01
    9029.761     33.146   3.320  7.90837E-01  1.00056E+00 -2.09722E-01
    9030.779     34.164   3.360  7.98167E-01  9.99570E-01 -2.01403E-01
    9031.810     35.194   3.400  8.09605E-01  9.98621E-01 -1.89015E-01
    9032.852     36.237   3.440  8.23863E-01  9.97733E-01 -1.73869E-01
    9033.907     37.291   3.480  8.39993E-01  9.96868E-01 -1.56875E-01
    9034.973     38.358   3.520  8.57542E-01  9.96071E-01 -1.38529E-01
    9036.052     39.437   3.560  8.76235E-01  9.95343E-01 -1.19108E-01
    9037.144     40.528   3.600  8.96130E-01  9.94666E-01 -9.85362E-02
    9038.247     41.632   3.640  9.17407E-01  9.94059E-01 -7.66523E-02
    9039.363     42.747   3.680  9.40193E-01  9.93502E-01 -5.33096E-02
    9040.490     43.875   3.720  9.64446E-01  9.92996E-01 -2.85507E-02
    9041.630     45.015   3.760  9.89724E-01  9.92585E-01 -2.86085E-03
    9042.782     46.167   3.800  1.01463E+00  9.92228E-01  2.24007E-02
    9043.947     47.331   3.840  1.03740E+00  9.91943E-01  4.54596E-02
    9045.123     48.508   3.880  1.05685E+00  9.91710E-01  6.51445E-02
    9046.312     49.697   3.920  1.07304E+00  9.91551E-01  8.14928E-02
    9047.513     50.898   3.960  1.08718E+00  9.91464E-01  9.57202E-02
    9048.726     52.111   4.000  1.10099E+00  9.91429E-01  1.09559E-01
    9049.951     53.336   4.040  1.11551E+00  9.91465E-01  1.24047E-01
    9051.189     54.573   4.080  1.13022E+00  9.91550E-01  1.38673E-01
    9052.438     55.823   4.120  1.14321E+00  9.91705E-01  1.51503E-01
    9053.700     57.085   4.160  1.15207E+00  9.91908E-01  1.60165E-01
    9054.974     58.359   4.200  1.15484E+00  9.92177E-01  1.62668E-01
    9056.261     59.645   4.240  1.15061E+00  9.92469E-01  1.58145E-01
    9057.559     60.944   4.280  1.13996E+00  9.92826E-01  1.47139E-01
    9058.870     62.254   4.320  1.12442E+00  9.93225E-01  1.31191E-01
    9060.193     63.577   4.360  1.10599E+00  9.93664E-01  1.12325E-01
    9061.528     64.912   4.400  1.08664E+00  9.94144E-01  9.24958E-02
    9062.875     66.259   4.440  1.06775E+00  9.94661E-01  7.30858E-02
    9064.234     67.619   4.480  1.04979E+00  9.95212E-01  5.45767E-02
    9065.606     68.990   4.520  1.03268E+00  9.95775E-01  3.69025E-02
    9066.990     70.374   4.560  1.01644E+00  9.96369E-01  2.00755E-02
    9068.386     71.770   4.600  1.00156E+00  9.96971E-01  4.58631E-03
    9069.794     73.178   4.640  9.88855E-01  9.97601E-01 -8.74620E-03
    9071.214     74.599   4.680  9.78960E-01  9.98237E-01 -1.92769E-02
    9072.647     76.031   4.720  9.72024E-01  9.98872E-01 -2.68481E-02
    9074.091     77.476   4.760  9.67884E-01  9.99508E-01 -3.16232E-02
    9075.548     78.933   4.800  9.66251E-01  1.00014E+00 -3.38926E-02
    9077.017     80.402   4.840  9.66690E-01  1.00078E+00 -3.40873E-02
    9078.499     81.883   4.880  9.68637E-01  1.00141E+00 -3.27700E-02
    9079.992     83.377   4.920  9.71442E-01  1.00203E+00 -3.05883E-02
    9081.498     84.883   4.960  9.74532E-01  1.00262E+00 -2.80924E-02
    9083.016     86.401   5.000  9.77526E-01  1.00321E+00 -2.56831E-02
    9084.546     87.931   5.040  9.80056E-01  1.00376E+00 -2.37059E-02
    9086.088     89.473   5.080  9.81814E-01  1.00430E+00 -2.24869E-02
    9087.643     91.027   5.120  9.82610E-01  1.00480E+00 -2.21932E-02
    9089.209     92.594   5.160  9.82681E-01  1.00527E+00 -2.25867E-02
    9090.788     94.173   5.200  9.82688E-01  1.00569E+00 -2.30065E-02
    9092.379     95.764   5.240  9.83290E-01  1.00608E+00 -2.27916E-02
    9093.983     97.367   5.280  9.84858E-01  1.00645E+00 -2.15936E-02
    9095.598     98.983   5.320  9.87296E-01  1.00676E+00 -1.94625E-02
    9097.226    100.610   5.360  9.90442E-01  1.00705E+00 -1.66045E-02
    9098.865    102.250   5.400  9.93807E-01  1.00727E+00 -1.34635E-02
    9100.517    103.902   5.440  9.96654E-01  1.00747E+00 -1.08198E-02
    9102.182    105.566   5.480  9.97800E-01  1.00761E+00 -9.80991E-03
    9103.858    107.243   5.520  9.96233E-01  1.00770E+00 -1.14670E-02
    9105.547    108.931   5.560  9.91580E-01  1.00773E+00 -1.61452E-02
    9107.247    110.632   5.600  9.84339E-01  1.00773E+00 -2.33909E-02
    9108.960    112.345   5.640  9.74954E-01  1.00769E+00 -3.27375E-02
    9110.686    114.070   5.680  9.63286E-01  1.00759E+00 -4.42995E-02
    9112.423    115.807   5.720  9.49195E-01  1.00743E+00 -5.82394E-02
    9114.172    117.557   5.760  9.33596E-01  1.00724E+00 -7.36467E-02
    9115.934    119.319   5.800  9.18826E-01  1.00701E+00 -8.81842E-02
    9117.708    121.093   5.840  9.07875E-01  1.00674E+00 -9.88610E-02
    9119.494    122.879   5.880  9.03007E-01  1.00640E+00 -1.03391E-01
    9121.292    124.677   5.920  9.05069E-01  1.00605E+00 -1.00979E-01
    9123.103    126.488   5.960  9.13738E-01  1.00566E+00 -9.19230E-02
    9124.926    128.310   6.000  9.29310E-01  1.00518E+00 -7.58680E-02
