# # comment:                                                     FEFF 9.9.1  
# # Source:
# # Structure
# # Reduced
# # space
# # abc:
# # angles:109.471221
# # sites:
# # POT  SCF 100  7.0000   0, screened core-hole, AFOLP (folp(0)= 1.150)
# # Abs   Z=29 Rmt= 1.167 Rnm= 1.272 K  shell
# # Pot 1 Z=71 Rmt= 1.677 Rnm= 1.720
# # Pot 2 Z=26 Rmt= 1.292 Rnm= 1.395
# # Pot 3 Z=29 Rmt= 1.167 Rnm= 1.272
# # Pot 4 Z= 8 Rmt= 1.027 Rnm= 1.099
# # Gam_ch=1.729E+00 H-L exch Vi= 0.000E+00 Vr= 0.000E+00
# # Mu=-1.003E+01eV kf=2.176E+00 Vint=-1.762E+01eV Rs_int= 1.667
# FMS rfms= 9.0000
# # PATH  Rmax=-1.000,  Keep_limit= 0.00, Heap_limit 0.00  Pwcrit= 2.50%
#  S02=0.950  Temp=   0.00  Debye_temp=   0.00  Global_sig2= 0.00000
#  Energy zero shift, vr, vi    0.00000E+00   0.00000E+00
#  Curved wave amplitude ratio filter   4.000%
#     file         sig2 tot  cw amp ratio   deg  nlegs   reff  inp sig2
#     0/   0 paths used
#  xsedge+ 50, used to normalize mu           2.4707E-04
#  -----------------------------------------------------------------------
#  omega    e    k    mu    mu0     chi     @#
    8984.362    -13.840  -1.000  3.27781E-02  5.12307E-02 -1.84526E-02
    8984.660    -13.541  -0.960  3.42781E-02  5.48358E-02 -2.05576E-02
    8984.947    -13.255  -0.920  3.58693E-02  5.88303E-02 -2.29610E-02
    8985.221    -12.980  -0.880  3.75590E-02  6.32706E-02 -2.57116E-02
    8985.483    -12.718  -0.840  3.93552E-02  6.82219E-02 -2.88668E-02
    8985.733    -12.468  -0.800  4.12666E-02  7.37599E-02 -3.24933E-02
    8985.971    -12.231  -0.760  4.33027E-02  7.99711E-02 -3.66685E-02
    8986.197    -12.005  -0.720  4.54732E-02  8.69532E-02 -4.14800E-02
    8986.410    -11.792  -0.680  4.77881E-02  9.48133E-02 -4.70252E-02
    8986.611    -11.590  -0.640  5.02569E-02  1.03665E-01 -5.34077E-02
    8986.800    -11.401  -0.600  5.28873E-02  1.13618E-01 -6.07304E-02
    8986.977    -11.225  -0.560  5.56834E-02  1.24766E-01 -6.90830E-02
    8987.142    -11.060  -0.520  5.86434E-02  1.37166E-01 -7.85224E-02
    8987.294    -10.908  -0.480  6.17560E-02  1.50802E-01 -8.90456E-02
    8987.434    -10.768  -0.440  6.49964E-02  1.65555E-01 -1.00558E-01
    8987.562    -10.640  -0.400  6.83232E-02  1.81171E-01 -1.12848E-01
    8987.678    -10.524  -0.360  7.16773E-02  1.97253E-01 -1.25576E-01
    8987.782    -10.420  -0.320  7.49838E-02  2.13285E-01 -1.38301E-01
    8987.873    -10.329  -0.280  7.81585E-02  2.28692E-01 -1.50533E-01
    8987.952    -10.249  -0.240  8.11145E-02  2.42919E-01 -1.61805E-01
    8988.019    -10.182  -0.200  8.37701E-02  2.55502E-01 -1.71732E-01
    8988.074    -10.127  -0.160  8.60525E-02  2.66095E-01 -1.80042E-01
    8988.117    -10.085  -0.120  8.78996E-02  2.74476E-01 -1.86576E-01
    8988.147    -10.054  -0.080  8.92615E-02  2.80518E-01 -1.91257E-01
    8988.172    -10.030   0.000  9.03910E-02  2.85375E-01 -1.94984E-01
    8988.227     -9.975   0.120  9.30932E-02  2.96338E-01 -2.03244E-01
    8988.269     -9.932   0.160  9.52093E-02  3.04887E-01 -2.09678E-01
    8988.324     -9.878   0.200  9.79370E-02  3.15787E-01 -2.17850E-01
    8988.391     -9.810   0.240  1.01374E-01  3.28948E-01 -2.27574E-01
    8988.470     -9.731   0.280  1.05560E-01  3.44129E-01 -2.38569E-01
    8988.562     -9.640   0.320  1.10539E-01  3.60938E-01 -2.50399E-01
    8988.665     -9.536   0.360  1.16399E-01  3.78950E-01 -2.62551E-01
    8988.781     -9.420   0.400  1.23168E-01  3.97692E-01 -2.74524E-01
    8988.909     -9.292   0.440  1.30808E-01  4.16710E-01 -2.85902E-01
    8989.050     -9.152   0.480  1.39176E-01  4.35648E-01 -2.96472E-01
    8989.202     -9.000   0.520  1.47939E-01  4.54314E-01 -3.06375E-01
    8989.367     -8.835   0.560  1.56582E-01  4.72587E-01 -3.16006E-01
    8989.543     -8.658   0.600  1.64661E-01  4.90440E-01 -3.25779E-01
    8989.732     -8.469   0.640  1.71872E-01  5.07919E-01 -3.36046E-01
    8989.933     -8.268   0.680  1.78057E-01  5.25081E-01 -3.47024E-01
    8990.147     -8.055   0.720  1.83208E-01  5.41993E-01 -3.58786E-01
    8990.372     -7.829   0.760  1.87720E-01  5.58723E-01 -3.71003E-01
    8990.610     -7.592   0.800  1.92934E-01  5.75346E-01 -3.82412E-01
    8990.860     -7.342   0.840  2.01400E-01  5.91888E-01 -3.90489E-01
    8991.122     -7.079   0.880  2.16294E-01  6.08403E-01 -3.92110E-01
    8991.396     -6.805   0.920  2.41054E-01  6.24891E-01 -3.83837E-01
    8991.683     -6.519   0.960  2.79826E-01  6.41362E-01 -3.61536E-01
    8991.982     -6.220   1.000  3.37766E-01  6.57817E-01 -3.20051E-01
    8992.293     -5.909   1.040  4.18145E-01  6.74229E-01 -2.56083E-01
    8992.616     -5.586   1.080  5.11981E-01  6.90603E-01 -1.78621E-01
    8992.951     -5.251   1.120  5.92019E-01  7.06900E-01 -1.14881E-01
    8993.298     -4.903   1.160  6.45655E-01  7.23075E-01 -7.74207E-02
    8993.658     -4.544   1.200  7.00188E-01  7.39121E-01 -3.89335E-02
    8994.030     -4.172   1.240  7.66774E-01  7.54987E-01  1.17868E-02
    8994.414     -3.788   1.280  7.93814E-01  7.70639E-01  2.31748E-02
    8994.810     -3.391   1.320  7.37140E-01  7.86024E-01 -4.88841E-02
    8995.219     -2.983   1.360  6.37692E-01  8.01127E-01 -1.63434E-01
    8995.639     -2.562   1.400  5.53138E-01  8.15871E-01 -2.62733E-01
    8996.072     -2.130   1.440  5.05039E-01  8.30263E-01 -3.25224E-01
    8996.517     -1.685   1.480  4.92863E-01  8.44226E-01 -3.51363E-01
    8996.974     -1.227   1.520  5.00035E-01  8.57768E-01 -3.57733E-01
    8997.444     -0.758   1.560  5.14388E-01  8.70833E-01 -3.56446E-01
    8997.925     -0.276   1.600  5.44058E-01  8.83392E-01 -3.39334E-01
    8998.419      0.217   1.640  5.92372E-01  8.95435E-01 -3.03063E-01
    8998.925      0.723   1.680  6.49126E-01  9.06931E-01 -2.57805E-01
    8999.443      1.242   1.720  7.10791E-01  9.17874E-01 -2.07084E-01
    8999.974      1.772   1.760  7.80813E-01  9.28241E-01 -1.47428E-01
    9000.516      2.314   1.800  8.57123E-01  9.38045E-01 -8.09220E-02
    9001.071      2.869   1.840  9.28714E-01  9.47245E-01 -1.85313E-02
    9001.638      3.436   1.880  9.70550E-01  9.55862E-01  1.46875E-02
    9002.217      4.015   1.920  9.79856E-01  9.63896E-01  1.59601E-02
    9002.808      4.607   1.960  9.94975E-01  9.71351E-01  2.36240E-02
    9003.412      5.210   2.000  1.04701E+00  9.78231E-01  6.87768E-02
    9004.027      5.826   2.040  1.11815E+00  9.84540E-01  1.33612E-01
    9004.655      6.454   2.080  1.17250E+00  9.90307E-01  1.82192E-01
    9005.295      7.094   2.120  1.21567E+00  9.95539E-01  2.20131E-01
    9005.948      7.746   2.160  1.26659E+00  1.00027E+00  2.66320E-01
    9006.612      8.410   2.200  1.33796E+00  1.00447E+00  3.33482E-01
    9007.289      9.087   2.240  1.43375E+00  1.00819E+00  4.25554E-01
    9007.978      9.776   2.280  1.51457E+00  1.01146E+00  5.03109E-01
    9008.679     10.477   2.320  1.53426E+00  1.01428E+00  5.19979E-01
    9009.392     11.190   2.360  1.50012E+00  1.01668E+00  4.83442E-01
    9010.117     11.916   2.400  1.43859E+00  1.01871E+00  4.19880E-01
    9010.855     12.653   2.440  1.36645E+00  1.02036E+00  3.46091E-01
    9011.605     13.403   2.480  1.29481E+00  1.02166E+00  2.73150E-01
    9012.367     14.165   2.520  1.23519E+00  1.02263E+00  2.12559E-01
    9013.141     14.939   2.560  1.19221E+00  1.02328E+00  1.68925E-01
    9013.927     15.726   2.600  1.16039E+00  1.02367E+00  1.36719E-01
    9014.726     16.524   2.640  1.12897E+00  1.02381E+00  1.05160E-01
    9015.537     17.335   2.680  1.09095E+00  1.02371E+00  6.72386E-02
    9016.360     18.158   2.720  1.05363E+00  1.02340E+00  3.02260E-02
    9017.195     18.993   2.760  1.02398E+00  1.02289E+00  1.08911E-03
    9018.042     19.840   2.800  1.00426E+00  1.02222E+00 -1.79567E-02
    9018.902     20.700   2.840  9.93084E-01  1.02138E+00 -2.82923E-02
    9019.773     21.572   2.880  9.85478E-01  1.02041E+00 -3.49287E-02
    9020.657     22.456   2.920  9.76448E-01  1.01929E+00 -4.28453E-02
    9021.553     23.352   2.960  9.63398E-01  1.01811E+00 -5.47101E-02
    9022.462     24.260   3.000  9.46144E-01  1.01682E+00 -7.06733E-02
    9023.382     25.180   3.040  9.26483E-01  1.01547E+00 -8.89862E-02
    9024.315     26.113   3.080  9.07511E-01  1.01405E+00 -1.06538E-01
    9025.260     27.058   3.120  8.92061E-01  1.01258E+00 -1.20522E-01
    9026.217     28.015   3.160  8.81361E-01  1.01108E+00 -1.29719E-01
    9027.186     28.984   3.200  8.75675E-01  1.00957E+00 -1.33890E-01
    9028.167     29.966   3.240  8.74205E-01  1.00802E+00 -1.33818E-01
    9029.161     30.959   3.280  8.75231E-01  1.00650E+00 -1.31269E-01
    9030.167     31.965   3.320  8.77171E-01  1.00498E+00 -1.27809E-01
    9031.185     32.983   3.360  8.79172E-01  1.00347E+00 -1.24295E-01
    9032.215     34.014   3.400  8.80774E-01  1.00198E+00 -1.21210E-01
    9033.258     35.056   3.440  8.81585E-01  1.00052E+00 -1.18931E-01
    9034.312     36.111   3.480  8.81598E-01  9.99108E-01 -1.17510E-01
    9035.379     37.177   3.520  8.81228E-01  9.97740E-01 -1.16513E-01
    9036.458     38.256   3.560  8.81450E-01  9.96416E-01 -1.14966E-01
    9037.549     39.347   3.600  8.83619E-01  9.95137E-01 -1.11518E-01
    9038.652     40.451   3.640  8.88870E-01  9.93928E-01 -1.05058E-01
    9039.768     41.566   3.680  8.97619E-01  9.92768E-01 -9.51498E-02
    9040.896     42.694   3.720  9.09497E-01  9.91682E-01 -8.21841E-02
    9042.036     43.834   3.760  9.23653E-01  9.90670E-01 -6.70170E-02
    9043.188     44.986   3.800  9.38893E-01  9.89733E-01 -5.08401E-02
    9044.352     46.151   3.840  9.53880E-01  9.88850E-01 -3.49701E-02
    9045.529     47.327   3.880  9.67383E-01  9.88043E-01 -2.06594E-02
    9046.717     48.516   3.920  9.78301E-01  9.87312E-01 -9.01184E-03
    9047.918     49.717   3.960  9.85843E-01  9.86658E-01 -8.15046E-04
    9049.131     50.930   4.000  9.89941E-01  9.86059E-01  3.88234E-03
    9050.357     52.155   4.040  9.91638E-01  9.85558E-01  6.07992E-03
    9051.594     53.393   4.080  9.92811E-01  9.85114E-01  7.69611E-03
    9052.844     54.642   4.120  9.95627E-01  9.84747E-01  1.08800E-02
    9054.106     55.904   4.160  1.00166E+00  9.84457E-01  1.72046E-02
    9055.380     57.178   4.200  1.01111E+00  9.84243E-01  2.68658E-02
    9056.666     58.464   4.240  1.02264E+00  9.84104E-01  3.85330E-02
    9057.965     59.763   4.280  1.03412E+00  9.84020E-01  5.01035E-02
    9059.275     61.074   4.320  1.04382E+00  9.84007E-01  5.98139E-02
    9060.598     62.396   4.360  1.05095E+00  9.84067E-01  6.68817E-02
    9061.933     63.731   4.400  1.05549E+00  9.84176E-01  7.13169E-02
    9063.280     65.079   4.440  1.05747E+00  9.84331E-01  7.31428E-02
    9064.640     66.438   4.480  1.05640E+00  9.84555E-01  7.18414E-02
    9066.011     67.810   4.520  1.05183E+00  9.84827E-01  6.70074E-02
    9067.395     69.193   4.560  1.04462E+00  9.85162E-01  5.94533E-02
    9068.791     70.589   4.600  1.03685E+00  9.85519E-01  5.13270E-02
    9070.199     71.998   4.640  1.03108E+00  9.85937E-01  4.51463E-02
    9071.620     73.418   4.680  1.02901E+00  9.86373E-01  4.26415E-02
    9073.052     74.850   4.720  1.03097E+00  9.86870E-01  4.41048E-02
    9074.497     76.295   4.760  1.03605E+00  9.87380E-01  4.86652E-02
    9075.954     77.752   4.800  1.04286E+00  9.87924E-01  5.49358E-02
    9077.423     79.221   4.840  1.05007E+00  9.88501E-01  6.15651E-02
    9078.904     80.703   4.880  1.05636E+00  9.89087E-01  6.72728E-02
    9080.398     82.196   4.920  1.06024E+00  9.89678E-01  7.05653E-02
    9081.903     83.702   4.960  1.06036E+00  9.90296E-01  7.00655E-02
    9083.421     85.220   5.000  1.05637E+00  9.90918E-01  6.54495E-02
    9084.951     86.750   5.040  1.04928E+00  9.91541E-01  5.77407E-02
    9086.494     88.292   5.080  1.04077E+00  9.92163E-01  4.86091E-02
    9088.048     89.847   5.120  1.03206E+00  9.92784E-01  3.92762E-02
    9089.615     91.413   5.160  1.02326E+00  9.93402E-01  2.98550E-02
    9091.194     92.992   5.200  1.01341E+00  9.94014E-01  1.93941E-02
    9092.785     94.583   5.240  1.00119E+00  9.94595E-01  6.59135E-03
    9094.388     96.186   5.280  9.85925E-01  9.95145E-01 -9.21968E-03
    9096.003     97.802   5.320  9.68241E-01  9.95707E-01 -2.74656E-02
    9097.631     99.429   5.360  9.49651E-01  9.96213E-01 -4.65622E-02
    9099.271    101.069   5.400  9.32116E-01  9.96706E-01 -6.45901E-02
    9100.923    102.721   5.440  9.17322E-01  9.97165E-01 -7.98425E-02
    9102.587    104.385   5.480  9.06622E-01  9.97608E-01 -9.09860E-02
    9104.263    106.062   5.520  9.00849E-01  9.97991E-01 -9.71423E-02
    9105.952    107.750   5.560  9.00334E-01  9.98355E-01 -9.80211E-02
    9107.653    109.451   5.600  9.04818E-01  9.98657E-01 -9.38383E-02
    9109.366    111.164   5.640  9.13774E-01  9.98939E-01 -8.51653E-02
    9111.091    112.889   5.680  9.26454E-01  9.99156E-01 -7.27019E-02
    9112.828    114.627   5.720  9.42164E-01  9.99332E-01 -5.71676E-02
    9114.578    116.376   5.760  9.60145E-01  9.99487E-01 -3.93420E-02
    9116.340    118.138   5.800  9.79271E-01  9.99552E-01 -2.02815E-02
    9118.114    119.912   5.840  9.98188E-01  9.99597E-01 -1.40926E-03
    9119.900    121.698   5.880  1.01508E+00  9.99601E-01  1.54815E-02
    9121.698    123.496   5.920  1.02804E+00  9.99536E-01  2.84997E-02
    9123.508    125.307   5.960  1.03553E+00  9.99419E-01  3.61131E-02
    9125.331    127.130   6.000  1.03650E+00  9.99226E-01  3.72739E-02
