# # comment:                                                     FEFF 9.9.1  
# # Source:
# # Structure
# # Reduced
# # space
# # abc:
# # angles:101.462874
# # sites:
# # POT  SCF 100  7.0000   0, screened core-hole, AFOLP (folp(0)= 1.150)
# # Abs   Z=29 Rmt= 1.136 Rnm= 1.260 K  shell
# # Pot 1 Z= 3 Rmt= 1.213 Rnm= 1.281
# # Pot 2 Z=29 Rmt= 1.139 Rnm= 1.260
# # Pot 3 Z= 8 Rmt= 1.035 Rnm= 1.117
# # Gam_ch=1.729E+00 H-L exch Vi= 0.000E+00 Vr= 0.000E+00
# # Mu=-7.971E+00eV kf=2.113E+00 Vint=-1.582E+01eV Rs_int= 1.716
# FMS rfms= 9.0000
# # PATH  Rmax=-1.000,  Keep_limit= 0.00, Heap_limit 0.00  Pwcrit= 2.50%
#  S02=0.950  Temp=   0.00  Debye_temp=   0.00  Global_sig2= 0.00000
#  Energy zero shift, vr, vi    0.00000E+00   0.00000E+00
#  Curved wave amplitude ratio filter   4.000%
#     file         sig2 tot  cw amp ratio   deg  nlegs   reff  inp sig2
#     0/   0 paths used
#  xsedge+ 50, used to normalize mu           2.4334E-04
#  -----------------------------------------------------------------------
#  omega    e    k    mu    mu0     chi     @#
    8984.147    -11.781  -1.000  3.53925E-02  5.60505E-02 -2.06579E-02
    8984.445    -11.482  -0.960  3.71919E-02  6.01199E-02 -2.29280E-02
    8984.732    -11.195  -0.920  3.91290E-02  6.46385E-02 -2.55095E-02
    8985.006    -10.921  -0.880  4.12193E-02  6.96718E-02 -2.84524E-02
    8985.268    -10.659  -0.840  4.34801E-02  7.52960E-02 -3.18159E-02
    8985.518    -10.409  -0.800  4.59308E-02  8.15993E-02 -3.56685E-02
    8985.756    -10.171  -0.760  4.85930E-02  8.86830E-02 -4.00900E-02
    8985.982     -9.946  -0.720  5.14901E-02  9.66610E-02 -4.51709E-02
    8986.195     -9.732  -0.680  5.46471E-02  1.05659E-01 -5.10119E-02
    8986.396     -9.531  -0.640  5.80888E-02  1.15809E-01 -5.77203E-02
    8986.585     -9.342  -0.600  6.18385E-02  1.27241E-01 -6.54029E-02
    8986.762     -9.165  -0.560  6.59138E-02  1.40066E-01 -7.41524E-02
    8986.927     -9.001  -0.520  7.03221E-02  1.54349E-01 -8.40267E-02
    8987.079     -8.848  -0.480  7.50536E-02  1.70074E-01 -9.50200E-02
    8987.219     -8.708  -0.440  8.00732E-02  1.87103E-01 -1.07030E-01
    8987.347     -8.580  -0.400  8.53144E-02  2.05142E-01 -1.19827E-01
    8987.463     -8.464  -0.360  9.06752E-02  2.23728E-01 -1.33053E-01
    8987.567     -8.361  -0.320  9.60219E-02  2.42261E-01 -1.46239E-01
    8987.658     -8.269  -0.280  1.01199E-01  2.60073E-01 -1.58873E-01
    8987.737     -8.190  -0.240  1.06047E-01  2.76519E-01 -1.70472E-01
    8987.804     -8.123  -0.200  1.10414E-01  2.91061E-01 -1.80647E-01
    8987.859     -8.068  -0.160  1.14168E-01  3.03300E-01 -1.89132E-01
    8987.902     -8.025  -0.120  1.17207E-01  3.12980E-01 -1.95773E-01
    8987.932     -7.995  -0.080  1.19452E-01  3.19957E-01 -2.00505E-01
    8987.957     -7.971   0.000  1.21328E-01  3.25565E-01 -2.04237E-01
    8988.012     -7.916   0.120  1.25467E-01  3.38209E-01 -2.12741E-01
    8988.054     -7.873   0.160  1.28733E-01  3.48064E-01 -2.19330E-01
    8988.109     -7.818   0.200  1.32948E-01  3.60623E-01 -2.27676E-01
    8988.176     -7.751   0.240  1.38224E-01  3.75791E-01 -2.37567E-01
    8988.255     -7.672   0.280  1.44515E-01  3.93220E-01 -2.48705E-01
    8988.347     -7.580   0.320  1.51868E-01  4.12508E-01 -2.60640E-01
    8988.451     -7.477   0.360  1.60247E-01  4.33111E-01 -2.72864E-01
    8988.566     -7.361   0.400  1.69625E-01  4.54485E-01 -2.84860E-01
    8988.694     -7.233   0.440  1.79917E-01  4.76076E-01 -2.96160E-01
    8988.835     -7.093   0.480  1.91067E-01  4.97486E-01 -3.06419E-01
    8988.987     -6.940   0.520  2.03030E-01  5.18460E-01 -3.15431E-01
    8989.152     -6.776   0.560  2.15487E-01  5.38838E-01 -3.23351E-01
    8989.328     -6.599   0.600  2.27774E-01  5.58585E-01 -3.30811E-01
    8989.517     -6.410   0.640  2.38769E-01  5.77775E-01 -3.39006E-01
    8989.718     -6.209   0.680  2.47543E-01  5.96455E-01 -3.48911E-01
    8989.932     -5.995   0.720  2.54933E-01  6.14705E-01 -3.59772E-01
    8990.157     -5.770   0.760  2.64073E-01  6.32604E-01 -3.68531E-01
    8990.395     -5.532   0.800  2.78532E-01  6.50199E-01 -3.71667E-01
    8990.645     -5.282   0.840  2.99884E-01  6.67567E-01 -3.67682E-01
    8990.907     -5.020   0.880  3.26228E-01  6.84726E-01 -3.58498E-01
    8991.182     -4.746   0.920  3.52232E-01  7.01705E-01 -3.49473E-01
    8991.468     -4.459   0.960  3.70651E-01  7.18518E-01 -3.47868E-01
    8991.767     -4.161   1.000  3.77403E-01  7.35128E-01 -3.57725E-01
    8992.078     -3.850   1.040  3.76755E-01  7.51552E-01 -3.74796E-01
    8992.401     -3.527   1.080  3.78430E-01  7.67756E-01 -3.89326E-01
    8992.736     -3.191   1.120  3.90497E-01  7.83721E-01 -3.93224E-01
    8993.083     -2.844   1.160  4.15727E-01  7.99406E-01 -3.83679E-01
    8993.443     -2.484   1.200  4.49929E-01  8.14783E-01 -3.64854E-01
    8993.815     -2.112   1.240  4.82968E-01  8.29803E-01 -3.46835E-01
    8994.199     -1.728   1.280  5.07646E-01  8.44456E-01 -3.36810E-01
    8994.595     -1.332   1.320  5.27435E-01  8.58669E-01 -3.31233E-01
    8995.004     -0.924   1.360  5.49843E-01  8.72431E-01 -3.22587E-01
    8995.424     -0.503   1.400  5.75966E-01  8.85709E-01 -3.09743E-01
    8995.857     -0.070   1.440  6.00669E-01  8.98473E-01 -2.97804E-01
    8996.302      0.375   1.480  6.20426E-01  9.10692E-01 -2.90266E-01
    8996.759      0.832   1.520  6.38192E-01  9.22357E-01 -2.84165E-01
    8997.229      1.301   1.560  6.57376E-01  9.33422E-01 -2.76046E-01
    8997.710      1.783   1.600  6.78932E-01  9.43880E-01 -2.64949E-01
    8998.204      2.277   1.640  7.05514E-01  9.53728E-01 -2.48213E-01
    8998.710      2.783   1.680  7.40166E-01  9.62963E-01 -2.22796E-01
    8999.228      3.301   1.720  7.82412E-01  9.71565E-01 -1.89153E-01
    8999.759      3.831   1.760  8.35603E-01  9.79557E-01 -1.43954E-01
    9000.301      4.374   1.800  9.14036E-01  9.86920E-01 -7.28835E-02
    9000.856      4.929   1.840  1.02399E+00  9.93660E-01  3.03304E-02
    9001.423      5.495   1.880  1.14171E+00  9.99824E-01  1.41881E-01
    9002.002      6.075   1.920  1.23119E+00  1.00538E+00  2.25810E-01
    9002.593      6.666   1.960  1.28287E+00  1.01037E+00  2.72500E-01
    9003.197      7.269   2.000  1.31598E+00  1.01482E+00  3.01164E-01
    9003.812      7.885   2.040  1.34230E+00  1.01873E+00  3.23568E-01
    9004.440      8.513   2.080  1.36579E+00  1.02213E+00  3.43658E-01
    9005.080      9.153   2.120  1.39546E+00  1.02504E+00  3.70421E-01
    9005.733      9.805   2.160  1.43391E+00  1.02750E+00  4.06405E-01
    9006.397     10.470   2.200  1.46091E+00  1.02952E+00  4.31391E-01
    9007.074     11.146   2.240  1.45087E+00  1.03113E+00  4.19745E-01
    9007.763     11.835   2.280  1.41063E+00  1.03235E+00  3.78276E-01
    9008.464     12.536   2.320  1.36628E+00  1.03323E+00  3.33048E-01
    9009.177     13.250   2.360  1.33149E+00  1.03376E+00  2.97729E-01
    9009.902     13.975   2.400  1.30649E+00  1.03401E+00  2.72478E-01
    9010.640     14.713   2.440  1.28942E+00  1.03397E+00  2.55451E-01
    9011.390     15.462   2.480  1.27392E+00  1.03366E+00  2.40262E-01
    9012.152     16.224   2.520  1.24290E+00  1.03312E+00  2.09775E-01
    9012.926     16.999   2.560  1.19457E+00  1.03241E+00  1.62163E-01
    9013.712     17.785   2.600  1.14858E+00  1.03149E+00  1.17093E-01
    9014.511     18.584   2.640  1.11300E+00  1.03041E+00  8.25915E-02
    9015.322     19.394   2.680  1.08802E+00  1.02917E+00  5.88551E-02
    9016.145     20.217   2.720  1.07083E+00  1.02782E+00  4.30075E-02
    9016.980     21.052   2.760  1.05811E+00  1.02637E+00  3.17395E-02
    9017.827     21.900   2.800  1.04663E+00  1.02485E+00  2.17786E-02
    9018.687     22.759   2.840  1.03394E+00  1.02323E+00  1.07166E-02
    9019.558     23.631   2.880  1.01886E+00  1.02158E+00 -2.71628E-03
    9020.442     24.515   2.920  1.00100E+00  1.01987E+00 -1.88682E-02
    9021.338     25.411   2.960  9.81359E-01  1.01817E+00 -3.68093E-02
    9022.247     26.319   3.000  9.61436E-01  1.01642E+00 -5.49835E-02
    9023.167     27.240   3.040  9.42962E-01  1.01469E+00 -7.17276E-02
    9024.100     28.172   3.080  9.27262E-01  1.01299E+00 -8.57235E-02
    9025.045     29.117   3.120  9.14970E-01  1.01129E+00 -9.63222E-02
    9026.002     30.074   3.160  9.05890E-01  1.00961E+00 -1.03722E-01
    9026.971     31.044   3.200  8.99368E-01  1.00799E+00 -1.08625E-01
    9027.952     32.025   3.240  8.94565E-01  1.00642E+00 -1.11853E-01
    9028.946     33.019   3.280  8.90485E-01  1.00491E+00 -1.14428E-01
    9029.952     34.025   3.320  8.86380E-01  1.00346E+00 -1.17075E-01
    9030.970     35.043   3.360  8.82050E-01  1.00205E+00 -1.20001E-01
    9032.000     36.073   3.400  8.77757E-01  1.00074E+00 -1.22986E-01
    9033.043     37.115   3.440  8.73845E-01  9.99493E-01 -1.25648E-01
    9034.097     38.170   3.480  8.70908E-01  9.98324E-01 -1.27416E-01
    9035.164     39.237   3.520  8.69635E-01  9.97259E-01 -1.27624E-01
    9036.243     40.316   3.560  8.70370E-01  9.96256E-01 -1.25886E-01
    9037.334     41.407   3.600  8.73373E-01  9.95360E-01 -1.21987E-01
    9038.438     42.510   3.640  8.78564E-01  9.94549E-01 -1.15986E-01
    9039.553     43.626   3.680  8.85596E-01  9.93848E-01 -1.08251E-01
    9040.681     44.754   3.720  8.93783E-01  9.93211E-01 -9.94279E-02
    9041.821     45.893   3.760  9.02698E-01  9.92682E-01 -8.99848E-02
    9042.973     47.046   3.800  9.12087E-01  9.92263E-01 -8.01753E-02
    9044.137     48.210   3.840  9.21885E-01  9.91908E-01 -7.00229E-02
    9045.314     49.386   3.880  9.32322E-01  9.91661E-01 -5.93387E-02
    9046.502     50.575   3.920  9.43546E-01  9.91500E-01 -4.79545E-02
    9047.703     51.776   3.960  9.55444E-01  9.91447E-01 -3.60029E-02
    9048.916     52.989   4.000  9.67515E-01  9.91457E-01 -2.39421E-02
    9050.142     54.214   4.040  9.79243E-01  9.91571E-01 -1.23281E-02
    9051.379     55.452   4.080  9.90147E-01  9.91768E-01 -1.62128E-03
    9052.629     56.702   4.120  9.99964E-01  9.92024E-01  7.94058E-03
    9053.891     57.964   4.160  1.00885E+00  9.92379E-01  1.64734E-02
    9055.165     59.238   4.200  1.01709E+00  9.92794E-01  2.43003E-02
    9056.451     60.524   4.240  1.02509E+00  9.93307E-01  3.17838E-02
    9057.750     61.822   4.280  1.03308E+00  9.93873E-01  3.92043E-02
    9059.060     63.133   4.320  1.04116E+00  9.94489E-01  4.66687E-02
    9060.383     64.456   4.360  1.04926E+00  9.95177E-01  5.40817E-02
    9061.718     65.791   4.400  1.05720E+00  9.95934E-01  6.12679E-02
    9063.065     67.138   4.440  1.06487E+00  9.96716E-01  6.81498E-02
    9064.425     68.497   4.480  1.07222E+00  9.97561E-01  7.46622E-02
    9065.796     69.869   4.520  1.07915E+00  9.98448E-01  8.07029E-02
    9067.180     71.253   4.560  1.08540E+00  9.99374E-01  8.60232E-02
    9068.576     72.649   4.600  1.09048E+00  1.00031E+00  9.01721E-02
    9069.984     74.057   4.640  1.09383E+00  1.00128E+00  9.25493E-02
    9071.405     75.477   4.680  1.09495E+00  1.00229E+00  9.26573E-02
    9072.837     76.910   4.720  1.09350E+00  1.00330E+00  9.01992E-02
    9074.282     78.355   4.760  1.08955E+00  1.00434E+00  8.52059E-02
    9075.739     79.811   4.800  1.08344E+00  1.00536E+00  7.80787E-02
    9077.208     81.281   4.840  1.07585E+00  1.00640E+00  6.94440E-02
    9078.689     82.762   4.880  1.06739E+00  1.00744E+00  5.99473E-02
    9080.183     84.255   4.920  1.05862E+00  1.00846E+00  5.01612E-02
    9081.688     85.761   4.960  1.04992E+00  1.00947E+00  4.04532E-02
    9083.206     87.279   5.000  1.04146E+00  1.01046E+00  3.10026E-02
    9084.736     88.809   5.040  1.03328E+00  1.01142E+00  2.18544E-02
    9086.279     90.351   5.080  1.02529E+00  1.01235E+00  1.29408E-02
    9087.833     91.906   5.120  1.01750E+00  1.01324E+00  4.26571E-03
    9089.400     93.473   5.160  1.01018E+00  1.01411E+00 -3.93545E-03
    9090.979     95.051   5.200  1.00380E+00  1.01494E+00 -1.11382E-02
    9092.570     96.642   5.240  9.99029E-01  1.01571E+00 -1.66795E-02
    9094.173     98.246   5.280  9.96407E-01  1.01645E+00 -2.00456E-02
    9095.788     99.861   5.320  9.95997E-01  1.01713E+00 -2.11300E-02
    9097.416    101.489   5.360  9.97385E-01  1.01775E+00 -2.03669E-02
    9099.056    103.129   5.400  9.99639E-01  1.01831E+00 -1.86670E-02
    9100.708    104.781   5.440  1.00165E+00  1.01881E+00 -1.71627E-02
    9102.372    106.445   5.480  1.00238E+00  1.01924E+00 -1.68632E-02
    9104.048    108.121   5.520  1.00127E+00  1.01962E+00 -1.83448E-02
    9105.737    109.810   5.560  9.98295E-01  1.01992E+00 -2.16260E-02
    9107.438    111.511   5.600  9.93963E-01  1.02017E+00 -2.62083E-02
    9109.151    113.224   5.640  9.89023E-01  1.02032E+00 -3.13005E-02
    9110.876    114.949   5.680  9.84416E-01  1.02044E+00 -3.60284E-02
    9112.613    116.686   5.720  9.80815E-01  1.02047E+00 -3.96529E-02
    9114.363    118.436   5.760  9.78865E-01  1.02044E+00 -4.15715E-02
    9116.125    120.197   5.800  9.78975E-01  1.02033E+00 -4.13542E-02
    9117.899    121.971   5.840  9.81353E-01  1.02015E+00 -3.87932E-02
    9119.685    123.757   5.880  9.85906E-01  1.01991E+00 -3.40079E-02
    9121.483    125.556   5.920  9.92086E-01  1.01961E+00 -2.75215E-02
    9123.293    127.366   5.960  9.98875E-01  1.01922E+00 -2.03424E-02
    9125.116    129.189   6.000  1.00476E+00  1.01873E+00 -1.39651E-02
