# # comment:                                                     FEFF 9.9.1  
# # Source:
# # Structure
# # Reduced
# # space
# # abc:
# # angles:114.243346
# # sites:
# # POT  SCF 100  7.0000   0, screened core-hole, AFOLP (folp(0)= 1.150)
# # Abs   Z=29 Rmt= 1.168 Rnm= 1.277 K  shell
# # Pot 1 Z=56 Rmt= 1.959 Rnm= 2.010
# # Pot 2 Z=67 Rmt= 1.634 Rnm= 1.709
# # Pot 3 Z=29 Rmt= 1.148 Rnm= 1.292
# # Pot 4 Z= 8 Rmt= 1.066 Rnm= 1.120
# # Gam_ch=1.729E+00 H-L exch Vi= 0.000E+00 Vr= 0.000E+00
# # Mu=-8.569E+00eV kf=2.034E+00 Vint=-1.716E+01eV Rs_int= 1.783
# FMS rfms= 9.0000
# # PATH  Rmax=-1.000,  Keep_limit= 0.00, Heap_limit 0.00  Pwcrit= 2.50%
#  S02=0.950  Temp=   0.00  Debye_temp=   0.00  Global_sig2= 0.00000
#  Energy zero shift, vr, vi    0.00000E+00   0.00000E+00
#  Curved wave amplitude ratio filter   4.000%
#     file         sig2 tot  cw amp ratio   deg  nlegs   reff  inp sig2
#     0/   0 paths used
#  xsedge+ 50, used to normalize mu           2.4363E-04
#  -----------------------------------------------------------------------
#  omega    e    k    mu    mu0     chi     @#
    8985.088    -12.379  -1.000  3.73077E-02  5.68395E-02 -1.95318E-02
    8985.387    -12.080  -0.960  3.93078E-02  6.10148E-02 -2.17070E-02
    8985.673    -11.793  -0.920  4.14843E-02  6.56564E-02 -2.41721E-02
    8985.948    -11.519  -0.880  4.38623E-02  7.08331E-02 -2.69707E-02
    8986.210    -11.257  -0.840  4.64713E-02  7.66246E-02 -3.01533E-02
    8986.460    -11.007  -0.800  4.93461E-02  8.31236E-02 -3.37775E-02
    8986.698    -10.769  -0.760  5.25271E-02  9.04364E-02 -3.79092E-02
    8986.923    -10.544  -0.720  5.60606E-02  9.86828E-02 -4.26221E-02
    8987.137    -10.330  -0.680  5.99984E-02  1.07995E-01 -4.79966E-02
    8987.338    -10.129  -0.640  6.43959E-02  1.18512E-01 -5.41166E-02
    8987.527     -9.940  -0.600  6.93083E-02  1.30372E-01 -6.10637E-02
    8987.703     -9.763  -0.560  7.47841E-02  1.43690E-01 -6.89064E-02
    8987.868     -9.599  -0.520  8.08539E-02  1.58537E-01 -7.76834E-02
    8988.020     -9.446  -0.480  8.75155E-02  1.74897E-01 -8.73817E-02
    8988.161     -9.306  -0.440  9.47160E-02  1.92626E-01 -9.79104E-02
    8988.289     -9.178  -0.400  1.02337E-01  2.11416E-01 -1.09080E-01
    8988.404     -9.062  -0.360  1.10187E-01  2.30782E-01 -1.20595E-01
    8988.508     -8.959  -0.320  1.18015E-01  2.50094E-01 -1.32079E-01
    8988.600     -8.867  -0.280  1.25538E-01  2.68653E-01 -1.43115E-01
    8988.679     -8.788  -0.240  1.32479E-01  2.85784E-01 -1.53305E-01
    8988.746     -8.721  -0.200  1.38607E-01  3.00926E-01 -1.62319E-01
    8988.801     -8.666  -0.160  1.43751E-01  3.13663E-01 -1.69912E-01
    8988.843     -8.623  -0.120  1.47809E-01  3.23733E-01 -1.75924E-01
    8988.874     -8.593  -0.080  1.50727E-01  3.30988E-01 -1.80261E-01
    8988.898     -8.569   0.000  1.53078E-01  3.36817E-01 -1.83739E-01
    8988.953     -8.514   0.120  1.58313E-01  3.49963E-01 -1.91650E-01
    8988.996     -8.471   0.160  1.62317E-01  3.60193E-01 -1.97876E-01
    8989.051     -8.416   0.200  1.67297E-01  3.73231E-01 -2.05934E-01
    8989.118     -8.349   0.240  1.73136E-01  3.88942E-01 -2.15806E-01
    8989.197     -8.270   0.280  1.79478E-01  4.06955E-01 -2.27477E-01
    8989.288     -8.178   0.320  1.85990E-01  4.26877E-01 -2.40887E-01
    8989.392     -8.075   0.360  1.92072E-01  4.48080E-01 -2.56008E-01
    8989.508     -7.959   0.400  1.97211E-01  4.69983E-01 -2.72772E-01
    8989.636     -7.831   0.440  2.00962E-01  4.92016E-01 -2.91054E-01
    8989.776     -7.691   0.480  2.03210E-01  5.13730E-01 -3.10520E-01
    8989.928     -7.538   0.520  2.04289E-01  5.34855E-01 -3.30565E-01
    8990.093     -7.374   0.560  2.04823E-01  5.55242E-01 -3.50419E-01
    8990.270     -7.197   0.600  2.05509E-01  5.74879E-01 -3.69370E-01
    8990.459     -7.008   0.640  2.06936E-01  5.93782E-01 -3.86846E-01
    8990.660     -6.807   0.680  2.09587E-01  6.12067E-01 -4.02480E-01
    8990.873     -6.594   0.720  2.13763E-01  6.29764E-01 -4.16001E-01
    8991.099     -6.368   0.760  2.19877E-01  6.47023E-01 -4.27146E-01
    8991.337     -6.130   0.800  2.28412E-01  6.63880E-01 -4.35468E-01
    8991.587     -5.880   0.840  2.40126E-01  6.80422E-01 -4.40295E-01
    8991.849     -5.618   0.880  2.55957E-01  6.96676E-01 -4.40719E-01
    8992.123     -5.344   0.920  2.76939E-01  7.12700E-01 -4.35761E-01
    8992.410     -5.057   0.960  3.03767E-01  7.28475E-01 -4.24708E-01
    8992.708     -4.759   1.000  3.36072E-01  7.44034E-01 -4.07962E-01
    8993.019     -4.448   1.040  3.72069E-01  7.59378E-01 -3.87308E-01
    8993.342     -4.125   1.080  4.10440E-01  7.74460E-01 -3.64020E-01
    8993.678     -3.789   1.120  4.53373E-01  7.89292E-01 -3.35918E-01
    8994.025     -3.442   1.160  5.04857E-01  8.03854E-01 -2.98997E-01
    8994.385     -3.082   1.200  5.60121E-01  8.18107E-01 -2.57986E-01
    8994.756     -2.710   1.240  5.98296E-01  8.32046E-01 -2.33750E-01
    8995.141     -2.326   1.280  6.04942E-01  8.45606E-01 -2.40664E-01
    8995.537     -1.930   1.320  5.96885E-01  8.58799E-01 -2.61914E-01
    8995.945     -1.522   1.360  5.98247E-01  8.71577E-01 -2.73331E-01
    8996.366     -1.101   1.400  6.20653E-01  8.83893E-01 -2.63240E-01
    8996.799     -0.668   1.440  6.64768E-01  8.95757E-01 -2.30988E-01
    8997.244     -0.223   1.480  7.17423E-01  9.07143E-01 -1.89720E-01
    8997.701      0.234   1.520  7.46850E-01  9.18004E-01 -1.71155E-01
    8998.170      0.703   1.560  7.30943E-01  9.28355E-01 -1.97411E-01
    8998.652      1.185   1.600  7.02858E-01  9.38149E-01 -2.35291E-01
    8999.146      1.679   1.640  7.05076E-01  9.47427E-01 -2.42350E-01
    8999.652      2.185   1.680  7.56248E-01  9.56125E-01 -1.99877E-01
    9000.170      2.703   1.720  8.61721E-01  9.64284E-01 -1.02563E-01
    9000.700      3.233   1.760  1.02009E+00  9.71863E-01  4.82267E-02
    9001.243      3.776   1.800  1.22393E+00  9.78908E-01  2.45023E-01
    9001.797      4.330   1.840  1.42862E+00  9.85401E-01  4.43223E-01
    9002.364      4.897   1.880  1.55871E+00  9.91347E-01  5.67362E-01
    9002.943      5.477   1.920  1.58194E+00  9.96754E-01  5.85188E-01
    9003.535      6.068   1.960  1.52958E+00  1.00167E+00  5.27910E-01
    9004.138      6.671   2.000  1.44814E+00  1.00606E+00  4.42078E-01
    9004.754      7.287   2.040  1.36536E+00  1.00997E+00  3.55387E-01
    9005.382      7.915   2.080  1.30268E+00  1.01343E+00  2.89247E-01
    9006.022      8.555   2.120  1.26927E+00  1.01645E+00  2.52826E-01
    9006.674      9.207   2.160  1.25569E+00  1.01903E+00  2.36666E-01
    9007.339      9.872   2.200  1.24149E+00  1.02121E+00  2.20282E-01
    9008.015     10.548   2.240  1.21305E+00  1.02300E+00  1.90049E-01
    9008.704     11.237   2.280  1.17478E+00  1.02446E+00  1.50321E-01
    9009.405     11.938   2.320  1.14182E+00  1.02556E+00  1.16257E-01
    9010.118     12.651   2.360  1.12349E+00  1.02634E+00  9.71479E-02
    9010.844     13.377   2.400  1.11867E+00  1.02685E+00  9.18151E-02
    9011.581     14.115   2.440  1.12947E+00  1.02710E+00  1.02369E-01
    9012.331     14.864   2.480  1.15588E+00  1.02709E+00  1.28800E-01
    9013.093     15.626   2.520  1.17571E+00  1.02687E+00  1.48835E-01
    9013.867     16.401   2.560  1.17682E+00  1.02643E+00  1.50386E-01
    9014.654     17.187   2.600  1.16061E+00  1.02581E+00  1.34800E-01
    9015.452     17.985   2.640  1.13426E+00  1.02506E+00  1.09206E-01
    9016.263     18.796   2.680  1.10341E+00  1.02414E+00  7.92659E-02
    9017.086     19.619   2.720  1.07196E+00  1.02310E+00  4.88564E-02
    9017.921     20.454   2.760  1.04256E+00  1.02196E+00  2.05979E-02
    9018.769     21.302   2.800  1.01622E+00  1.02072E+00 -4.49781E-03
    9019.628     22.161   2.840  9.93668E-01  1.01941E+00 -2.57436E-02
    9020.500     23.033   2.880  9.75167E-01  1.01803E+00 -4.28658E-02
    9021.384     23.917   2.920  9.60157E-01  1.01661E+00 -5.64518E-02
    9022.280     24.813   2.960  9.48062E-01  1.01517E+00 -6.71060E-02
    9023.188     25.721   3.000  9.38452E-01  1.01370E+00 -7.52429E-02
    9024.109     26.642   3.040  9.30981E-01  1.01222E+00 -8.12350E-02
    9025.041     27.574   3.080  9.25220E-01  1.01074E+00 -8.55168E-02
    9025.986     28.519   3.120  9.20726E-01  1.00926E+00 -8.85354E-02
    9026.943     29.476   3.160  9.16755E-01  1.00782E+00 -9.10624E-02
    9027.913     30.446   3.200  9.12267E-01  1.00641E+00 -9.41404E-02
    9028.894     31.427   3.240  9.06454E-01  1.00504E+00 -9.85825E-02
    9029.888     32.421   3.280  8.98925E-01  1.00371E+00 -1.04781E-01
    9030.893     33.427   3.320  8.89951E-01  1.00242E+00 -1.12468E-01
    9031.911     34.445   3.360  8.80449E-01  1.00118E+00 -1.20730E-01
    9032.942     35.475   3.400  8.71828E-01  1.00001E+00 -1.28184E-01
    9033.984     36.517   3.440  8.65365E-01  9.98918E-01 -1.33554E-01
    9035.039     37.572   3.480  8.62194E-01  9.97900E-01 -1.35707E-01
    9036.105     38.639   3.520  8.62971E-01  9.96937E-01 -1.33966E-01
    9037.184     39.718   3.560  8.67761E-01  9.96053E-01 -1.28291E-01
    9038.276     40.809   3.600  8.76035E-01  9.95250E-01 -1.19215E-01
    9039.379     41.912   3.640  8.87043E-01  9.94549E-01 -1.07506E-01
    9040.495     43.028   3.680  8.99996E-01  9.93907E-01 -9.39108E-02
    9041.622     44.155   3.720  9.14227E-01  9.93347E-01 -7.91202E-02
    9042.762     45.295   3.760  9.29336E-01  9.92891E-01 -6.35558E-02
    9043.914     46.448   3.800  9.44804E-01  9.92496E-01 -4.76916E-02
    9045.079     47.612   3.840  9.59927E-01  9.92205E-01 -3.22776E-02
    9046.255     48.788   3.880  9.73790E-01  9.91974E-01 -1.81838E-02
    9047.444     49.977   3.920  9.85930E-01  9.91847E-01 -5.91658E-03
    9048.645     51.178   3.960  9.96330E-01  9.91802E-01  4.52829E-03
    9049.858     52.391   4.000  1.00552E+00  9.91838E-01  1.36834E-02
    9051.083     53.616   4.040  1.01437E+00  9.91932E-01  2.24351E-02
    9052.321     54.854   4.080  1.02364E+00  9.92125E-01  3.15191E-02
    9053.570     56.104   4.120  1.03341E+00  9.92375E-01  4.10386E-02
    9054.832     57.365   4.160  1.04295E+00  9.92723E-01  5.02223E-02
    9056.106     58.640   4.200  1.05073E+00  9.93104E-01  5.76233E-02
    9057.393     59.926   4.240  1.05542E+00  9.93580E-01  6.18415E-02
    9058.691     61.224   4.280  1.05649E+00  9.94109E-01  6.23798E-02
    9060.002     62.535   4.320  1.05465E+00  9.94708E-01  5.99407E-02
    9061.325     63.858   4.360  1.05131E+00  9.95353E-01  5.59617E-02
    9062.660     65.193   4.400  1.04819E+00  9.96041E-01  5.21480E-02
    9064.007     66.540   4.440  1.04688E+00  9.96773E-01  5.01047E-02
    9065.366     67.899   4.480  1.04866E+00  9.97547E-01  5.11086E-02
    9066.738     69.271   4.520  1.05422E+00  9.98381E-01  5.58419E-02
    9068.122     70.655   4.560  1.06341E+00  9.99232E-01  6.41784E-02
    9069.518     72.051   4.600  1.07501E+00  1.00012E+00  7.48967E-02
    9070.926     73.459   4.640  1.08675E+00  1.00101E+00  8.57416E-02
    9072.346     74.879   4.680  1.09593E+00  1.00194E+00  9.39918E-02
    9073.779     76.312   4.720  1.10022E+00  1.00289E+00  9.73317E-02
    9075.223     77.756   4.760  1.09841E+00  1.00383E+00  9.45822E-02
    9076.680     79.213   4.800  1.09080E+00  1.00479E+00  8.60095E-02
    9078.149     80.683   4.840  1.07864E+00  1.00575E+00  7.28894E-02
    9079.631     82.164   4.880  1.06346E+00  1.00671E+00  5.67474E-02
    9081.124     83.657   4.920  1.04659E+00  1.00764E+00  3.89487E-02
    9082.630     85.163   4.960  1.02933E+00  1.00857E+00  2.07643E-02
    9084.148     86.681   5.000  1.01303E+00  1.00949E+00  3.54283E-03
    9085.678     88.211   5.040  9.99017E-01  1.01037E+00 -1.13536E-02
    9087.220     89.753   5.080  9.88407E-01  1.01124E+00 -2.28352E-02
    9088.775     91.308   5.120  9.81753E-01  1.01208E+00 -3.03247E-02
    9090.341     92.875   5.160  9.78981E-01  1.01287E+00 -3.38930E-02
    9091.920     94.453   5.200  9.79422E-01  1.01363E+00 -3.42061E-02
    9093.511     96.044   5.240  9.81924E-01  1.01434E+00 -3.24161E-02
    9095.115     97.648   5.280  9.85256E-01  1.01501E+00 -2.97516E-02
    9096.730     99.263   5.320  9.88551E-01  1.01561E+00 -2.70580E-02
    9098.358    100.891   5.360  9.91095E-01  1.01618E+00 -2.50902E-02
    9099.997    102.531   5.400  9.92795E-01  1.01669E+00 -2.38947E-02
    9101.649    104.183   5.440  9.93730E-01  1.01712E+00 -2.33922E-02
    9103.314    105.847   5.480  9.93962E-01  1.01751E+00 -2.35446E-02
    9104.990    107.523   5.520  9.93367E-01  1.01784E+00 -2.44739E-02
    9106.679    109.212   5.560  9.91750E-01  1.01810E+00 -2.63541E-02
    9108.379    110.912   5.600  9.89019E-01  1.01831E+00 -2.92957E-02
    9110.092    112.625   5.640  9.85566E-01  1.01845E+00 -3.28845E-02
    9111.817    114.351   5.680  9.81812E-01  1.01851E+00 -3.66991E-02
    9113.555    116.088   5.720  9.78369E-01  1.01852E+00 -4.01526E-02
    9115.304    117.838   5.760  9.75459E-01  1.01846E+00 -4.29994E-02
    9117.066    119.599   5.800  9.72718E-01  1.01834E+00 -4.56261E-02
    9118.840    121.373   5.840  9.69508E-01  1.01816E+00 -4.86513E-02
    9120.626    123.159   5.880  9.65760E-01  1.01792E+00 -5.21629E-02
    9122.424    124.958   5.920  9.62262E-01  1.01759E+00 -5.53278E-02
    9124.235    126.768   5.960  9.60577E-01  1.01723E+00 -5.66513E-02
    9126.058    128.591   6.000  9.62110E-01  1.01674E+00 -5.46351E-02
