# # comment:                                                     FEFF 9.9.1  
# # Source:
# # Structure
# # Reduced
# # space
# # abc:
# # angles:
# # sites:
# # POT  SCF 100  7.0000   0, screened core-hole, AFOLP (folp(0)= 1.150)
# # Abs   Z=29 Rmt= 1.290 Rnm= 1.353 K  shell
# # Pot 1 Z= 3 Rmt= 1.462 Rnm= 1.516
# # Pot 2 Z=29 Rmt= 1.288 Rnm= 1.351
# # Pot 3 Z=15 Rmt= 0.945 Rnm= 1.159
# # Pot 4 Z= 8 Rmt= 0.882 Rnm= 1.043
# # Gam_ch=1.729E+00 H-L exch Vi= 0.000E+00 Vr= 0.000E+00
# # Mu=-6.843E+00eV kf=2.428E+00 Vint=-1.663E+01eV Rs_int= 1.493
# FMS rfms= 9.0000
# # PATH  Rmax=-1.000,  Keep_limit= 0.00, Heap_limit 0.00  Pwcrit= 2.50%
#  S02=0.950  Temp=   0.00  Debye_temp=   0.00  Global_sig2= 0.00000
#  Energy zero shift, vr, vi    0.00000E+00   0.00000E+00
#  Curved wave amplitude ratio filter   4.000%
#     file         sig2 tot  cw amp ratio   deg  nlegs   reff  inp sig2
#     0/   0 paths used
#  xsedge+ 50, used to normalize mu           2.4846E-04
#  -----------------------------------------------------------------------
#  omega    e    k    mu    mu0     chi     @#
    8983.382    -10.653  -1.000  3.49918E-02  4.93971E-02 -1.44053E-02
    8983.681    -10.354  -0.960  3.66245E-02  5.29125E-02 -1.62879E-02
    8983.967    -10.068  -0.920  3.83539E-02  5.68157E-02 -1.84618E-02
    8984.242     -9.794  -0.880  4.01871E-02  6.11638E-02 -2.09767E-02
    8984.504     -9.532  -0.840  4.21320E-02  6.60233E-02 -2.38913E-02
    8984.754     -9.282  -0.800  4.41971E-02  7.14711E-02 -2.72740E-02
    8984.991     -9.044  -0.760  4.63914E-02  7.75957E-02 -3.12043E-02
    8985.217     -8.818  -0.720  4.87246E-02  8.44971E-02 -3.57725E-02
    8985.430     -8.605  -0.680  5.12062E-02  9.22853E-02 -4.10791E-02
    8985.632     -8.404  -0.640  5.38451E-02  1.01077E-01 -4.72315E-02
    8985.821     -8.215  -0.600  5.66486E-02  1.10985E-01 -5.43365E-02
    8985.997     -8.038  -0.560  5.96202E-02  1.22108E-01 -6.24881E-02
    8986.162     -7.873  -0.520  6.27572E-02  1.34504E-01 -7.17468E-02
    8986.314     -7.721  -0.480  6.60470E-02  1.48159E-01 -8.21124E-02
    8986.454     -7.581  -0.440  6.94631E-02  1.62954E-01 -9.34913E-02
    8986.583     -7.453  -0.400  7.29616E-02  1.78631E-01 -1.05670E-01
    8986.698     -7.337  -0.360  7.64800E-02  1.94786E-01 -1.18306E-01
    8986.802     -7.233  -0.320  7.99393E-02  2.10891E-01 -1.30952E-01
    8986.893     -7.142  -0.280  8.32504E-02  2.26364E-01 -1.43114E-01
    8986.973     -7.063  -0.240  8.63227E-02  2.40644E-01 -1.54321E-01
    8987.040     -6.996  -0.200  8.90718E-02  2.53260E-01 -1.64189E-01
    8987.095     -6.941  -0.160  9.14252E-02  2.63872E-01 -1.72446E-01
    8987.137     -6.898  -0.120  9.33239E-02  2.72258E-01 -1.78934E-01
    8987.168     -6.868  -0.080  9.47232E-02  2.78299E-01 -1.83576E-01
    8987.192     -6.843   0.000  9.58913E-02  2.83153E-01 -1.87262E-01
    8987.247     -6.788   0.120  9.85405E-02  2.94100E-01 -1.95559E-01
    8987.290     -6.746   0.160  1.00582E-01  3.02589E-01 -2.02007E-01
    8987.345     -6.691   0.200  1.03259E-01  3.13447E-01 -2.10188E-01
    8987.412     -6.624   0.240  1.06558E-01  3.26484E-01 -2.19926E-01
    8987.491     -6.544   0.280  1.10535E-01  3.41474E-01 -2.30939E-01
    8987.582     -6.453   0.320  1.15196E-01  3.57972E-01 -2.42776E-01
    8987.686     -6.349   0.360  1.20593E-01  3.75559E-01 -2.54966E-01
    8987.802     -6.234   0.400  1.26702E-01  3.93687E-01 -2.66985E-01
    8987.930     -6.106   0.440  1.33486E-01  4.11871E-01 -2.78386E-01
    8988.070     -5.965   0.480  1.40951E-01  4.29796E-01 -2.88845E-01
    8988.222     -5.813   0.520  1.49052E-01  4.47173E-01 -2.98121E-01
    8988.387     -5.648   0.560  1.57876E-01  4.63940E-01 -3.06065E-01
    8988.564     -5.472   0.600  1.67667E-01  4.80069E-01 -3.12402E-01
    8988.753     -5.283   0.640  1.78886E-01  4.95595E-01 -3.16709E-01
    8988.954     -5.081   0.680  1.92238E-01  5.10605E-01 -3.18366E-01
    8989.167     -4.868   0.720  2.08596E-01  5.25180E-01 -3.16584E-01
    8989.393     -4.643   0.760  2.28407E-01  5.39438E-01 -3.11030E-01
    8989.631     -4.405   0.800  2.51135E-01  5.53409E-01 -3.02274E-01
    8989.880     -4.155   0.840  2.75195E-01  5.67216E-01 -2.92022E-01
    8990.143     -3.893   0.880  2.98843E-01  5.80865E-01 -2.82022E-01
    8990.417     -3.618   0.920  3.21882E-01  5.94452E-01 -2.72570E-01
    8990.703     -3.332   0.960  3.46119E-01  6.07940E-01 -2.61821E-01
    8991.002     -3.033   1.000  3.74346E-01  6.21405E-01 -2.47059E-01
    8991.313     -2.722   1.040  4.08349E-01  6.34855E-01 -2.26506E-01
    8991.636     -2.399   1.080  4.48910E-01  6.48269E-01 -1.99360E-01
    8991.971     -2.064   1.120  4.94951E-01  6.61661E-01 -1.66710E-01
    8992.319     -1.716   1.160  5.41498E-01  6.74999E-01 -1.33501E-01
    8992.678     -1.357   1.200  5.82990E-01  6.88331E-01 -1.05342E-01
    8993.050     -0.985   1.240  6.19076E-01  7.01575E-01 -8.24992E-02
    8993.434     -0.601   1.280  6.53522E-01  7.14751E-01 -6.12293E-02
    8993.831     -0.205   1.320  6.88315E-01  7.27837E-01 -3.95223E-02
    8994.239      0.204   1.360  7.23880E-01  7.40806E-01 -1.69255E-02
    8994.660      0.624   1.400  7.61619E-01  7.53630E-01  7.98882E-03
    8995.092      1.057   1.440  8.04326E-01  7.66285E-01  3.80401E-02
    8995.538      1.502   1.480  8.55536E-01  7.78761E-01  7.67752E-02
    8995.995      1.959   1.520  9.12229E-01  7.91029E-01  1.21200E-01
    8996.464      2.429   1.560  9.67220E-01  8.03060E-01  1.64160E-01
    8996.946      2.910   1.600  1.02153E+00  8.14844E-01  2.06688E-01
    8997.439      3.404   1.640  1.08578E+00  8.26334E-01  2.59441E-01
    8997.945      3.910   1.680  1.16253E+00  8.37541E-01  3.24989E-01
    8998.464      4.428   1.720  1.22877E+00  8.48438E-01  3.80334E-01
    8998.994      4.959   1.760  1.24994E+00  8.58995E-01  3.90947E-01
    8999.536      5.501   1.800  1.21742E+00  8.69206E-01  3.48215E-01
    9000.091      6.056   1.840  1.15636E+00  8.79046E-01  2.77313E-01
    9000.658      6.623   1.880  1.10015E+00  8.88508E-01  2.11640E-01
    9001.237      7.202   1.920  1.06823E+00  8.97588E-01  1.70646E-01
    9001.829      7.793   1.960  1.06298E+00  9.06283E-01  1.56696E-01
    9002.432      8.397   2.000  1.07624E+00  9.14570E-01  1.61667E-01
    9003.048      9.012   2.040  1.09385E+00  9.22445E-01  1.71400E-01
    9003.676      9.640   2.080  1.10306E+00  9.29910E-01  1.73151E-01
    9004.316     10.280   2.120  1.10333E+00  9.36964E-01  1.66364E-01
    9004.968     10.933   2.160  1.10317E+00  9.43607E-01  1.59559E-01
    9005.632     11.597   2.200  1.10833E+00  9.49861E-01  1.58471E-01
    9006.309     12.274   2.240  1.11570E+00  9.55689E-01  1.60007E-01
    9006.998     12.963   2.280  1.12002E+00  9.61131E-01  1.58885E-01
    9007.699     13.664   2.320  1.11921E+00  9.66174E-01  1.53040E-01
    9008.412     14.377   2.360  1.11042E+00  9.70842E-01  1.39579E-01
    9009.138     15.102   2.400  1.09094E+00  9.75137E-01  1.15801E-01
    9009.875     15.840   2.440  1.06471E+00  9.79066E-01  8.56473E-02
    9010.625     16.590   2.480  1.04021E+00  9.82634E-01  5.75778E-02
    9011.387     17.352   2.520  1.02152E+00  9.85847E-01  3.56688E-02
    9012.161     18.126   2.560  1.00635E+00  9.88753E-01  1.75968E-02
    9012.948     18.912   2.600  9.91397E-01  9.91339E-01  5.79489E-05
    9013.746     19.711   2.640  9.75628E-01  9.93630E-01 -1.80019E-02
    9014.557     20.522   2.680  9.59106E-01  9.95615E-01 -3.65090E-02
    9015.380     21.345   2.720  9.42150E-01  9.97340E-01 -5.51896E-02
    9016.215     22.180   2.760  9.25098E-01  9.98814E-01 -7.37162E-02
    9017.062     23.027   2.800  9.07405E-01  1.00002E+00 -9.26188E-02
    9017.922     23.887   2.840  8.95514E-01  1.00102E+00 -1.05502E-01
    9018.794     24.758   2.880  8.89322E-01  1.00180E+00 -1.12477E-01
    9019.678     25.642   2.920  8.86132E-01  1.00238E+00 -1.16248E-01
    9020.574     26.538   2.960  8.84168E-01  1.00277E+00 -1.18599E-01
    9021.482     27.447   3.000  8.82578E-01  1.00301E+00 -1.20429E-01
    9022.402     28.367   3.040  8.81483E-01  1.00306E+00 -1.21582E-01
    9023.335     29.300   3.080  8.81002E-01  1.00299E+00 -1.21987E-01
    9024.280     30.245   3.120  8.81101E-01  1.00277E+00 -1.21665E-01
    9025.237     31.202   3.160  8.81914E-01  1.00244E+00 -1.20530E-01
    9026.206     32.171   3.200  8.83597E-01  1.00203E+00 -1.18431E-01
    9027.188     33.152   3.240  8.86544E-01  1.00150E+00 -1.14960E-01
    9028.181     34.146   3.280  8.91396E-01  1.00090E+00 -1.09500E-01
    9029.187     35.152   3.320  8.98373E-01  1.00021E+00 -1.01838E-01
    9030.205     36.170   3.360  9.07649E-01  9.99474E-01 -9.18253E-02
    9031.236     37.200   3.400  9.19103E-01  9.98691E-01 -7.95885E-02
    9032.278     38.243   3.440  9.32350E-01  9.97846E-01 -6.54958E-02
    9033.333     39.297   3.480  9.46957E-01  9.96985E-01 -5.00277E-02
    9034.399     40.364   3.520  9.62398E-01  9.96112E-01 -3.37137E-02
    9035.478     41.443   3.560  9.77947E-01  9.95210E-01 -1.72636E-02
    9036.570     42.534   3.600  9.92665E-01  9.94304E-01 -1.63912E-03
    9037.673     43.638   3.640  1.00573E+00  9.93397E-01  1.23362E-02
    9038.788     44.753   3.680  1.01652E+00  9.92512E-01  2.40113E-02
    9039.916     45.881   3.720  1.02466E+00  9.91611E-01  3.30504E-02
    9041.056     47.021   3.760  1.03037E+00  9.90739E-01  3.96336E-02
    9042.208     48.173   3.800  1.03426E+00  9.89897E-01  4.43672E-02
    9043.373     49.337   3.840  1.03705E+00  9.89068E-01  4.79863E-02
    9044.549     50.514   3.880  1.03950E+00  9.88296E-01  5.12086E-02
    9045.738     51.703   3.920  1.04211E+00  9.87539E-01  5.45689E-02
    9046.939     52.903   3.960  1.04509E+00  9.86820E-01  5.82711E-02
    9048.152     54.117   4.000  1.04828E+00  9.86140E-01  6.21447E-02
    9049.377     55.342   4.040  1.05138E+00  9.85503E-01  6.58790E-02
    9050.615     56.579   4.080  1.05395E+00  9.84930E-01  6.90213E-02
    9051.864     57.829   4.120  1.05547E+00  9.84400E-01  7.10694E-02
    9053.126     59.091   4.160  1.05550E+00  9.83912E-01  7.15855E-02
    9054.400     60.365   4.200  1.05370E+00  9.83468E-01  7.02369E-02
    9055.686     61.651   4.240  1.04990E+00  9.83068E-01  6.68320E-02
    9056.985     62.950   4.280  1.04418E+00  9.82735E-01  6.14454E-02
    9058.296     64.260   4.320  1.03694E+00  9.82449E-01  5.44934E-02
    9059.618     65.583   4.360  1.02877E+00  9.82229E-01  4.65432E-02
    9060.953     66.918   4.400  1.02033E+00  9.82055E-01  3.82743E-02
    9062.301     68.265   4.440  1.01226E+00  9.81923E-01  3.03379E-02
    9063.660     69.625   4.480  1.00503E+00  9.81835E-01  2.31924E-02
    9065.032     70.996   4.520  9.98851E-01  9.81811E-01  1.70399E-02
    9066.415     72.380   4.560  9.93660E-01  9.81808E-01  1.18519E-02
    9067.811     73.776   4.600  9.89294E-01  9.81869E-01  7.42525E-03
    9069.220     75.184   4.640  9.85467E-01  9.81971E-01  3.49567E-03
    9070.640     76.605   4.680  9.81950E-01  9.82111E-01 -1.61080E-04
    9072.072     78.037   4.720  9.78562E-01  9.82291E-01 -3.72857E-03
    9073.517     79.482   4.760  9.75091E-01  9.82487E-01 -7.39631E-03
    9074.974     80.939   4.800  9.71368E-01  9.82742E-01 -1.13734E-02
    9076.443     82.408   4.840  9.67135E-01  9.83032E-01 -1.58976E-02
    9077.925     83.889   4.880  9.62257E-01  9.83335E-01 -2.10779E-02
    9079.418     85.383   4.920  9.56909E-01  9.83648E-01 -2.67386E-02
    9080.924     86.889   4.960  9.51642E-01  9.84014E-01 -3.23717E-02
    9082.442     88.406   5.000  9.47134E-01  9.84389E-01 -3.72550E-02
    9083.972     89.936   5.040  9.44022E-01  9.84769E-01 -4.07471E-02
    9085.514     91.479   5.080  9.42585E-01  9.85154E-01 -4.25699E-02
    9087.069     93.033   5.120  9.42659E-01  9.85566E-01 -4.29065E-02
    9088.635     94.600   5.160  9.43706E-01  9.85980E-01 -4.22746E-02
    9090.214     96.179   5.200  9.45213E-01  9.86395E-01 -4.11820E-02
    9091.805     97.770   5.240  9.46931E-01  9.86810E-01 -3.98791E-02
    9093.408     99.373   5.280  9.48910E-01  9.87222E-01 -3.83123E-02
    9095.024    100.988   5.320  9.51310E-01  9.87631E-01 -3.63201E-02
    9096.651    102.616   5.360  9.54185E-01  9.88012E-01 -3.38273E-02
    9098.291    104.256   5.400  9.57492E-01  9.88387E-01 -3.08948E-02
    9099.943    105.908   5.440  9.61089E-01  9.88755E-01 -2.76659E-02
    9101.607    107.572   5.480  9.64838E-01  9.89114E-01 -2.42760E-02
    9103.284    109.249   5.520  9.68644E-01  9.89420E-01 -2.07758E-02
    9104.972    110.937   5.560  9.72626E-01  9.89736E-01 -1.71103E-02
    9106.673    112.638   5.600  9.76794E-01  9.89996E-01 -1.32017E-02
    9108.386    114.351   5.640  9.81174E-01  9.90241E-01 -9.06725E-03
    9110.111    116.076   5.680  9.85609E-01  9.90451E-01 -4.84255E-03
    9111.849    117.813   5.720  9.89916E-01  9.90625E-01 -7.08960E-04
    9113.598    119.563   5.760  9.94006E-01  9.90783E-01  3.22348E-03
    9115.360    121.325   5.800  9.97853E-01  9.90881E-01  6.97163E-03
    9117.134    123.099   5.840  1.00160E+00  9.90962E-01  1.06341E-02
    9118.920    124.885   5.880  1.00525E+00  9.90981E-01  1.42683E-02
    9120.718    126.683   5.920  1.00885E+00  9.90985E-01  1.78633E-02
    9122.529    128.494   5.960  1.01229E+00  9.90947E-01  2.13471E-02
    9124.352    130.316   6.000  1.01544E+00  9.90819E-01  2.46191E-02
