# # comment:                                                     FEFF 9.9.1  
# # Source:
# # Structure
# # Reduced
# # space
# # abc:
# # angles:
# # sites:
# # POT  SCF 100  7.0000   0, screened core-hole, AFOLP (folp(0)= 1.150)
# # Abs   Z=29 Rmt= 1.224 Rnm= 1.347 K  shell
# # Pot 1 Z=29 Rmt= 1.277 Rnm= 1.376
# # Pot 2 Z= 1 Rmt= 0.698 Rnm= 0.843
# # Pot 3 Z=17 Rmt= 1.123 Rnm= 1.406
# # Pot 4 Z= 8 Rmt= 1.026 Rnm= 1.145
# # Gam_ch=1.729E+00 H-L exch Vi= 0.000E+00 Vr= 0.000E+00
# # Mu=-5.986E+00eV kf=2.025E+00 Vint=-1.336E+01eV Rs_int= 1.791
# FMS rfms= 9.0000
# # PATH  Rmax=-1.000,  Keep_limit= 0.00, Heap_limit 0.00  Pwcrit= 2.50%
#  S02=0.950  Temp=   0.00  Debye_temp=   0.00  Global_sig2= 0.00000
#  Energy zero shift, vr, vi    0.00000E+00   0.00000E+00
#  Curved wave amplitude ratio filter   4.000%
#     file         sig2 tot  cw amp ratio   deg  nlegs   reff  inp sig2
#     0/   0 paths used
#  xsedge+ 50, used to normalize mu           2.4174E-04
#  -----------------------------------------------------------------------
#  omega    e    k    mu    mu0     chi     @#
    8983.322     -9.796  -1.000  4.06393E-02  5.88472E-02 -1.82079E-02
    8983.621     -9.497  -0.960  4.27380E-02  6.31859E-02 -2.04479E-02
    8983.907     -9.211  -0.920  4.49806E-02  6.80075E-02 -2.30269E-02
    8984.182     -8.936  -0.880  4.73794E-02  7.33824E-02 -2.60030E-02
    8984.444     -8.674  -0.840  4.99479E-02  7.93928E-02 -2.94450E-02
    8984.694     -8.424  -0.800  5.27006E-02  8.61337E-02 -3.34331E-02
    8984.932     -8.187  -0.760  5.56535E-02  9.37139E-02 -3.80604E-02
    8985.157     -7.961  -0.720  5.88231E-02  1.02256E-01 -4.34332E-02
    8985.371     -7.748  -0.680  6.22264E-02  1.11896E-01 -4.96695E-02
    8985.572     -7.546  -0.640  6.58798E-02  1.22776E-01 -5.68957E-02
    8985.761     -7.357  -0.600  6.97966E-02  1.35035E-01 -6.52380E-02
    8985.937     -7.181  -0.560  7.39842E-02  1.48792E-01 -7.48079E-02
    8986.102     -7.016  -0.520  7.84389E-02  1.64118E-01 -8.56795E-02
    8986.254     -6.864  -0.480  8.31397E-02  1.80997E-01 -9.78573E-02
    8986.395     -6.723  -0.440  8.80403E-02  1.99280E-01 -1.11240E-01
    8986.523     -6.595  -0.400  9.30640E-02  2.18651E-01 -1.25587E-01
    8986.638     -6.480  -0.360  9.81025E-02  2.38614E-01 -1.40511E-01
    8986.742     -6.376  -0.320  1.03024E-01  2.58522E-01 -1.55499E-01
    8986.834     -6.285  -0.280  1.07686E-01  2.77658E-01 -1.69973E-01
    8986.913     -6.205  -0.240  1.11956E-01  2.95330E-01 -1.83375E-01
    8986.980     -6.138  -0.200  1.15723E-01  3.10957E-01 -1.95235E-01
    8987.035     -6.083  -0.160  1.18901E-01  3.24111E-01 -2.05210E-01
    8987.077     -6.041  -0.120  1.21431E-01  3.34516E-01 -2.13085E-01
    8987.108     -6.010  -0.080  1.23271E-01  3.42016E-01 -2.18746E-01
    8987.132     -5.986   0.000  1.24777E-01  3.48045E-01 -2.23268E-01
    8987.187     -5.931   0.120  1.28241E-01  3.61629E-01 -2.33388E-01
    8987.230     -5.888   0.160  1.30914E-01  3.72219E-01 -2.41305E-01
    8987.285     -5.833   0.200  1.34358E-01  3.85742E-01 -2.51384E-01
    8987.352     -5.766   0.240  1.38580E-01  4.02031E-01 -2.63450E-01
    8987.431     -5.687   0.280  1.43621E-01  4.20781E-01 -2.77160E-01
    8987.522     -5.596   0.320  1.49549E-01  4.41542E-01 -2.91993E-01
    8987.626     -5.492   0.360  1.56454E-01  4.63732E-01 -3.07277E-01
    8987.742     -5.376   0.400  1.64453E-01  4.86727E-01 -3.22274E-01
    8987.870     -5.248   0.440  1.73784E-01  5.09956E-01 -3.36172E-01
    8988.010     -5.108   0.480  1.84737E-01  5.33011E-01 -3.48274E-01
    8988.162     -4.956   0.520  1.97680E-01  5.55575E-01 -3.57895E-01
    8988.327     -4.791   0.560  2.13087E-01  5.77496E-01 -3.64409E-01
    8988.504     -4.614   0.600  2.31706E-01  5.98735E-01 -3.67030E-01
    8988.693     -4.425   0.640  2.54401E-01  6.19302E-01 -3.64901E-01
    8988.894     -4.224   0.680  2.82177E-01  6.39307E-01 -3.57131E-01
    8989.107     -4.011   0.720  3.15570E-01  6.58792E-01 -3.43222E-01
    8989.333     -3.785   0.760  3.54477E-01  6.77813E-01 -3.23336E-01
    8989.571     -3.547   0.800  3.97653E-01  6.96462E-01 -2.98809E-01
    8989.821     -3.298   0.840  4.42284E-01  7.14771E-01 -2.72487E-01
    8990.083     -3.035   0.880  4.85265E-01  7.32759E-01 -2.47494E-01
    8990.357     -2.761   0.920  5.26392E-01  7.50430E-01 -2.24038E-01
    8990.644     -2.475   0.960  5.68768E-01  7.67797E-01 -1.99029E-01
    8990.942     -2.176   1.000  6.13701E-01  7.84839E-01 -1.71138E-01
    8991.253     -1.865   1.040  6.57793E-01  8.01529E-01 -1.43736E-01
    8991.576     -1.542   1.080  6.96953E-01  8.17832E-01 -1.20879E-01
    8991.911     -1.207   1.120  7.26028E-01  8.33748E-01 -1.07720E-01
    8992.259     -0.859   1.160  7.33425E-01  8.49211E-01 -1.15786E-01
    8992.619     -0.500   1.200  7.11346E-01  8.64194E-01 -1.52848E-01
    8992.990     -0.128   1.240  6.70148E-01  8.78668E-01 -2.08520E-01
    8993.375      0.256   1.280  6.27974E-01  8.92561E-01 -2.64588E-01
    8993.771      0.653   1.320  5.97178E-01  9.05887E-01 -3.08709E-01
    8994.179      1.061   1.360  5.85103E-01  9.18595E-01 -3.33491E-01
    8994.600      1.482   1.400  5.94069E-01  9.30655E-01 -3.36586E-01
    8995.033      1.914   1.440  6.20207E-01  9.42064E-01 -3.21857E-01
    8995.478      2.360   1.480  6.59332E-01  9.52795E-01 -2.93464E-01
    8995.935      2.817   1.520  7.12575E-01  9.62825E-01 -2.50250E-01
    8996.404      3.286   1.560  7.79391E-01  9.72154E-01 -1.92763E-01
    8996.886      3.768   1.600  8.54095E-01  9.80783E-01 -1.26687E-01
    8997.380      4.261   1.640  9.38192E-01  9.88716E-01 -5.05232E-02
    8997.886      4.767   1.680  1.03682E+00  9.95979E-01  4.08420E-02
    8998.404      5.286   1.720  1.14260E+00  1.00254E+00  1.40057E-01
    8998.934      5.816   1.760  1.23773E+00  1.00845E+00  2.29287E-01
    8999.477      6.358   1.800  1.31270E+00  1.01371E+00  2.98986E-01
    9000.031      6.913   1.840  1.37582E+00  1.01837E+00  3.57450E-01
    9000.598      7.480   1.880  1.44069E+00  1.02243E+00  4.18264E-01
    9001.177      8.059   1.920  1.51017E+00  1.02591E+00  4.84265E-01
    9001.769      8.651   1.960  1.55851E+00  1.02884E+00  5.29667E-01
    9002.372      9.254   2.000  1.55134E+00  1.03128E+00  5.20060E-01
    9002.988      9.870   2.040  1.49462E+00  1.03323E+00  4.61393E-01
    9003.616     10.498   2.080  1.42194E+00  1.03474E+00  3.87198E-01
    9004.256     11.138   2.120  1.35763E+00  1.03581E+00  3.21822E-01
    9004.908     11.790   2.160  1.30828E+00  1.03652E+00  2.71763E-01
    9005.573     12.454   2.200  1.26340E+00  1.03686E+00  2.26536E-01
    9006.249     13.131   2.240  1.21016E+00  1.03689E+00  1.73268E-01
    9006.938     13.820   2.280  1.15004E+00  1.03663E+00  1.13410E-01
    9007.639     14.521   2.320  1.09812E+00  1.03608E+00  6.20399E-02
    9008.352     15.234   2.360  1.06815E+00  1.03531E+00  3.28405E-02
    9009.078     15.960   2.400  1.06030E+00  1.03433E+00  2.59655E-02
    9009.815     16.697   2.440  1.06409E+00  1.03317E+00  3.09183E-02
    9010.565     17.447   2.480  1.06316E+00  1.03186E+00  3.13043E-02
    9011.327     18.209   2.520  1.05582E+00  1.03040E+00  2.54131E-02
    9012.101     18.983   2.560  1.04731E+00  1.02883E+00  1.84788E-02
    9012.888     19.770   2.600  1.03960E+00  1.02719E+00  1.24038E-02
    9013.686     20.568   2.640  1.03230E+00  1.02545E+00  6.84669E-03
    9014.497     21.379   2.680  1.02478E+00  1.02369E+00  1.09074E-03
    9015.320     22.202   2.720  1.01663E+00  1.02186E+00 -5.22659E-03
    9016.155     23.037   2.760  1.00750E+00  1.02004E+00 -1.25456E-02
    9017.003     23.884   2.800  9.96681E-01  1.01820E+00 -2.15191E-02
    9017.862     24.744   2.840  9.83789E-01  1.01638E+00 -3.25930E-02
    9018.734     25.616   2.880  9.68752E-01  1.01457E+00 -4.58215E-02
    9019.618     26.500   2.920  9.52487E-01  1.01280E+00 -6.03143E-02
    9020.514     27.396   2.960  9.36787E-01  1.01107E+00 -7.42835E-02
    9021.422     28.304   3.000  9.23043E-01  1.00941E+00 -8.63648E-02
    9022.343     29.224   3.040  9.11708E-01  1.00780E+00 -9.60876E-02
    9023.275     30.157   3.080  9.02797E-01  1.00626E+00 -1.03459E-01
    9024.220     31.102   3.120  8.95550E-01  1.00480E+00 -1.09247E-01
    9025.177     32.059   3.160  8.89262E-01  1.00340E+00 -1.14137E-01
    9026.146     33.028   3.200  8.83789E-01  1.00210E+00 -1.18315E-01
    9027.128     34.010   3.240  8.79392E-01  1.00092E+00 -1.21528E-01
    9028.122     35.003   3.280  8.76451E-01  9.99802E-01 -1.23352E-01
    9029.127     36.009   3.320  8.75506E-01  9.98816E-01 -1.23311E-01
    9030.145     37.027   3.360  8.76905E-01  9.97900E-01 -1.20995E-01
    9031.176     38.058   3.400  8.80564E-01  9.97097E-01 -1.16532E-01
    9032.218     39.100   3.440  8.86256E-01  9.96408E-01 -1.10152E-01
    9033.273     40.155   3.480  8.93656E-01  9.95813E-01 -1.02157E-01
    9034.339     41.221   3.520  9.02417E-01  9.95333E-01 -9.29162E-02
    9035.418     42.300   3.560  9.12091E-01  9.94967E-01 -8.28757E-02
    9036.510     43.392   3.600  9.22356E-01  9.94695E-01 -7.23386E-02
    9037.613     44.495   3.640  9.32971E-01  9.94536E-01 -6.15649E-02
    9038.729     45.610   3.680  9.43685E-01  9.94466E-01 -5.07815E-02
    9039.856     46.738   3.720  9.54503E-01  9.94487E-01 -3.99839E-02
    9040.996     47.878   3.760  9.65691E-01  9.94619E-01 -2.89286E-02
    9042.148     49.030   3.800  9.77493E-01  9.94861E-01 -1.73687E-02
    9043.313     50.195   3.840  9.90027E-01  9.95169E-01 -5.14162E-03
    9044.489     51.371   3.880  1.00340E+00  9.95583E-01  7.81529E-03
    9045.678     52.560   3.920  1.01734E+00  9.96080E-01  2.12587E-02
    9046.879     53.761   3.960  1.03133E+00  9.96657E-01  3.46769E-02
    9048.092     54.974   4.000  1.04476E+00  9.97292E-01  4.74656E-02
    9049.317     56.199   4.040  1.05709E+00  9.98024E-01  5.90665E-02
    9050.555     57.437   4.080  1.06784E+00  9.98810E-01  6.90285E-02
    9051.804     58.686   4.120  1.07686E+00  9.99646E-01  7.72124E-02
    9053.066     59.948   4.160  1.08433E+00  1.00055E+00  8.37767E-02
    9054.340     61.222   4.200  1.09055E+00  1.00153E+00  8.90197E-02
    9055.627     62.508   4.240  1.09577E+00  1.00252E+00  9.32431E-02
    9056.925     63.807   4.280  1.10010E+00  1.00356E+00  9.65375E-02
    9058.236     65.118   4.320  1.10330E+00  1.00466E+00  9.86498E-02
    9059.559     66.440   4.360  1.10486E+00  1.00576E+00  9.90944E-02
    9060.894     67.775   4.400  1.10427E+00  1.00688E+00  9.73899E-02
    9062.241     69.123   4.440  1.10131E+00  1.00803E+00  9.32793E-02
    9063.600     70.482   4.480  1.09593E+00  1.00918E+00  8.67524E-02
    9064.972     71.854   4.520  1.08846E+00  1.01035E+00  7.81082E-02
    9066.356     73.237   4.560  1.07943E+00  1.01151E+00  6.79234E-02
    9067.752     74.633   4.600  1.06957E+00  1.01266E+00  5.69187E-02
    9069.160     76.042   4.640  1.05954E+00  1.01380E+00  4.57455E-02
    9070.580     77.462   4.680  1.04978E+00  1.01493E+00  3.48428E-02
    9072.013     78.894   4.720  1.04042E+00  1.01604E+00  2.43847E-02
    9073.457     80.339   4.760  1.03158E+00  1.01710E+00  1.44746E-02
    9074.914     81.796   4.800  1.02343E+00  1.01815E+00  5.28401E-03
    9076.383     83.265   4.840  1.01614E+00  1.01913E+00 -2.99575E-03
    9077.865     84.747   4.880  1.00987E+00  1.02010E+00 -1.02306E-02
    9079.358     86.240   4.920  1.00451E+00  1.02099E+00 -1.64801E-02
    9080.864     87.746   4.960  9.99834E-01  1.02184E+00 -2.20099E-02
    9082.382     89.264   5.000  9.95470E-01  1.02264E+00 -2.71751E-02
    9083.912     90.794   5.040  9.91052E-01  1.02337E+00 -3.23224E-02
    9085.454     92.336   5.080  9.86417E-01  1.02405E+00 -3.76357E-02
    9087.009     93.891   5.120  9.81589E-01  1.02468E+00 -4.30893E-02
    9088.575     95.457   5.160  9.76745E-01  1.02521E+00 -4.84608E-02
    9090.154     97.036   5.200  9.72309E-01  1.02568E+00 -5.33691E-02
    9091.745     98.627   5.240  9.68740E-01  1.02609E+00 -5.73544E-02
    9093.349    100.230   5.280  9.66537E-01  1.02641E+00 -5.98734E-02
    9094.964    101.846   5.320  9.66193E-01  1.02667E+00 -6.04763E-02
    9096.592    103.473   5.360  9.67951E-01  1.02685E+00 -5.88975E-02
    9098.231    105.113   5.400  9.71677E-01  1.02695E+00 -5.52725E-02
    9099.883    106.765   5.440  9.77003E-01  1.02699E+00 -4.99902E-02
    9101.548    108.429   5.480  9.83426E-01  1.02694E+00 -4.35097E-02
    9103.224    110.106   5.520  9.90539E-01  1.02682E+00 -3.62829E-02
    9104.913    111.794   5.560  9.97698E-01  1.02663E+00 -2.89346E-02
    9106.613    113.495   5.600  1.00415E+00  1.02639E+00 -2.22372E-02
    9108.326    115.208   5.640  1.00923E+00  1.02607E+00 -1.68390E-02
    9110.051    116.933   5.680  1.01276E+00  1.02568E+00 -1.29174E-02
    9111.789    118.671   5.720  1.01509E+00  1.02523E+00 -1.01411E-02
    9113.538    120.420   5.760  1.01672E+00  1.02472E+00 -7.99231E-03
    9115.300    122.182   5.800  1.01795E+00  1.02416E+00 -6.20265E-03
    9117.074    123.956   5.840  1.01865E+00  1.02355E+00 -4.90329E-03
    9118.860    125.742   5.880  1.01847E+00  1.02288E+00 -4.41397E-03
    9120.658    127.540   5.920  1.01734E+00  1.02217E+00 -4.83676E-03
    9122.469    129.351   5.960  1.01567E+00  1.02143E+00 -5.76829E-03
    9124.292    131.174   6.000  1.01444E+00  1.02062E+00 -6.17917E-03
