# # comment:                                                     FEFF 9.9.1  
# # Source:
# # Structure
# # Reduced
# # space
# # abc:
# # angles:
# # sites:
# # POT  SCF 100  7.0000   0, screened core-hole, AFOLP (folp(0)= 1.150)
# # Abs   Z=29 Rmt= 1.266 Rnm= 1.351 K  shell
# # Pot 1 Z=29 Rmt= 1.276 Rnm= 1.353
# # Pot 2 Z=34 Rmt= 1.128 Rnm= 1.346
# # Pot 3 Z=17 Rmt= 1.403 Rnm= 1.548
# # Pot 4 Z= 8 Rmt= 0.927 Rnm= 1.074
# # Gam_ch=1.729E+00 H-L exch Vi= 0.000E+00 Vr= 0.000E+00
# # Mu=-5.076E+00eV kf=2.219E+00 Vint=-1.463E+01eV Rs_int= 1.634
# FMS rfms= 9.0000
# # PATH  Rmax=-1.000,  Keep_limit= 0.00, Heap_limit 0.00  Pwcrit= 2.50%
#  S02=0.950  Temp=   0.00  Debye_temp=   0.00  Global_sig2= 0.00000
#  Energy zero shift, vr, vi    0.00000E+00   0.00000E+00
#  Curved wave amplitude ratio filter   4.000%
#     file         sig2 tot  cw amp ratio   deg  nlegs   reff  inp sig2
#     0/   0 paths used
#  xsedge+ 50, used to normalize mu           2.4464E-04
#  -----------------------------------------------------------------------
#  omega    e    k    mu    mu0     chi     @#
    8983.284     -8.886  -1.000  4.57904E-02  5.91179E-02 -1.33275E-02
    8983.583     -8.588  -0.960  4.86183E-02  6.35790E-02 -1.49606E-02
    8983.869     -8.301  -0.920  5.17247E-02  6.85501E-02 -1.68254E-02
    8984.144     -8.027  -0.880  5.51498E-02  7.41074E-02 -1.89576E-02
    8984.406     -7.765  -0.840  5.89412E-02  8.03399E-02 -2.13987E-02
    8984.656     -7.515  -0.800  6.31544E-02  8.73507E-02 -2.41962E-02
    8984.894     -7.277  -0.760  6.78539E-02  9.52580E-02 -2.74042E-02
    8985.119     -7.051  -0.720  7.31130E-02  1.04196E-01 -3.10831E-02
    8985.332     -6.838  -0.680  7.90135E-02  1.14313E-01 -3.52990E-02
    8985.534     -6.637  -0.640  8.56427E-02  1.25764E-01 -4.01209E-02
    8985.723     -6.448  -0.600  9.30869E-02  1.38703E-01 -4.56159E-02
    8985.899     -6.271  -0.560  1.01421E-01  1.53262E-01 -5.18412E-02
    8986.064     -6.106  -0.520  1.10690E-01  1.69520E-01 -5.88307E-02
    8986.216     -5.954  -0.480  1.20885E-01  1.87462E-01 -6.65776E-02
    8986.357     -5.814  -0.440  1.31915E-01  2.06930E-01 -7.50146E-02
    8986.485     -5.686  -0.400  1.43585E-01  2.27581E-01 -8.39960E-02
    8986.600     -5.570  -0.360  1.55584E-01  2.48877E-01 -9.32931E-02
    8986.704     -5.466  -0.320  1.67512E-01  2.70120E-01 -1.02608E-01
    8986.795     -5.375  -0.280  1.78925E-01  2.90531E-01 -1.11605E-01
    8986.875     -5.296  -0.240  1.89405E-01  3.09366E-01 -1.19961E-01
    8986.942     -5.229  -0.200  1.98610E-01  3.26004E-01 -1.27394E-01
    8986.997     -5.174  -0.160  2.06301E-01  3.39991E-01 -1.33689E-01
    8987.039     -5.131  -0.120  2.12343E-01  3.51041E-01 -1.38698E-01
    8987.070     -5.101  -0.080  2.16671E-01  3.58997E-01 -1.42326E-01
    8987.094     -5.076   0.000  2.20123E-01  3.65385E-01 -1.45262E-01
    8987.149     -5.021   0.120  2.27735E-01  3.79785E-01 -1.52050E-01
    8987.192     -4.979   0.160  2.33610E-01  3.90960E-01 -1.57351E-01
    8987.247     -4.924   0.200  2.41022E-01  4.05208E-01 -1.64186E-01
    8987.314     -4.857   0.240  2.49756E-01  4.22319E-01 -1.72563E-01
    8987.393     -4.778   0.280  2.59499E-01  4.41931E-01 -1.82432E-01
    8987.484     -4.686   0.320  2.69786E-01  4.63497E-01 -1.93711E-01
    8987.588     -4.583   0.360  2.80066E-01  4.86366E-01 -2.06300E-01
    8987.704     -4.467   0.400  2.89739E-01  5.09825E-01 -2.20085E-01
    8987.832     -4.339   0.440  2.98344E-01  5.33243E-01 -2.34899E-01
    8987.972     -4.198   0.480  3.05702E-01  5.56111E-01 -2.50409E-01
    8988.124     -4.046   0.520  3.12050E-01  5.78097E-01 -2.66047E-01
    8988.289     -3.881   0.560  3.18124E-01  5.99056E-01 -2.80932E-01
    8988.466     -3.705   0.600  3.24964E-01  6.18929E-01 -2.93965E-01
    8988.655     -3.516   0.640  3.33735E-01  6.37805E-01 -3.04070E-01
    8988.856     -3.315   0.680  3.45352E-01  6.55754E-01 -3.10402E-01
    8989.069     -3.101   0.720  3.60133E-01  6.72884E-01 -3.12751E-01
    8989.295     -2.876   0.760  3.77352E-01  6.89281E-01 -3.11930E-01
    8989.533     -2.638   0.800  3.95154E-01  7.05083E-01 -3.09929E-01
    8989.782     -2.388   0.840  4.11153E-01  7.20350E-01 -3.09198E-01
    8990.045     -2.126   0.880  4.24213E-01  7.35127E-01 -3.10914E-01
    8990.319     -1.852   0.920  4.35897E-01  7.49486E-01 -3.13589E-01
    8990.605     -1.565   0.960  4.49631E-01  7.63461E-01 -3.13830E-01
    8990.904     -1.266   1.000  4.68545E-01  7.77057E-01 -3.08512E-01
    8991.215     -0.955   1.040  4.93814E-01  7.90309E-01 -2.96495E-01
    8991.538     -0.632   1.080  5.24311E-01  8.03200E-01 -2.78890E-01
    8991.873     -0.297   1.120  5.57536E-01  8.15730E-01 -2.58194E-01
    8992.221      0.050   1.160  5.91504E-01  8.27913E-01 -2.36410E-01
    8992.581      0.410   1.200  6.26132E-01  8.39719E-01 -2.13587E-01
    8992.952      0.782   1.240  6.62162E-01  8.51154E-01 -1.88992E-01
    8993.336      1.166   1.280  6.99134E-01  8.62179E-01 -1.63045E-01
    8993.733      1.562   1.320  7.34905E-01  8.72797E-01 -1.37892E-01
    8994.141      1.971   1.360  7.65121E-01  8.83011E-01 -1.17890E-01
    8994.562      2.391   1.400  7.88655E-01  8.92780E-01 -1.04125E-01
    8994.995      2.824   1.440  8.13456E-01  9.02104E-01 -8.86475E-02
    8995.440      3.269   1.480  8.48889E-01  9.10984E-01 -6.20952E-02
    8995.897      3.726   1.520  9.01907E-01  9.19400E-01 -1.74925E-02
    8996.366      4.196   1.560  9.81282E-01  9.27354E-01  5.39284E-02
    8996.848      4.677   1.600  1.09050E+00  9.34870E-01  1.55632E-01
    8997.341      5.171   1.640  1.21755E+00  9.41909E-01  2.75638E-01
    8997.847      5.677   1.680  1.33846E+00  9.48474E-01  3.89989E-01
    8998.366      6.195   1.720  1.43066E+00  9.54611E-01  4.76053E-01
    8998.896      6.726   1.760  1.48607E+00  9.60286E-01  5.25787E-01
    8999.439      7.268   1.800  1.51332E+00  9.65543E-01  5.47779E-01
    8999.993      7.823   1.840  1.52356E+00  9.70350E-01  5.53211E-01
    9000.560      8.390   1.880  1.51693E+00  9.74756E-01  5.42175E-01
    9001.139      8.969   1.920  1.48590E+00  9.78746E-01  5.07153E-01
    9001.731      9.560   1.960  1.42496E+00  9.82372E-01  4.42586E-01
    9002.334     10.164   2.000  1.34134E+00  9.85621E-01  3.55715E-01
    9002.950     10.779   2.040  1.25421E+00  9.88524E-01  2.65688E-01
    9003.578     11.407   2.080  1.17707E+00  9.91089E-01  1.85985E-01
    9004.218     12.047   2.120  1.11385E+00  9.93348E-01  1.20498E-01
    9004.870     12.700   2.160  1.06696E+00  9.95288E-01  7.16736E-02
    9005.534     13.364   2.200  1.03771E+00  9.96961E-01  4.07445E-02
    9006.211     14.041   2.240  1.02333E+00  9.98378E-01  2.49530E-02
    9006.900     14.730   2.280  1.01955E+00  9.99569E-01  1.99841E-02
    9007.601     15.431   2.320  1.02178E+00  1.00052E+00  2.12566E-02
    9008.314     16.144   2.360  1.02405E+00  1.00127E+00  2.27804E-02
    9009.040     16.869   2.400  1.02282E+00  1.00183E+00  2.09884E-02
    9009.777     17.607   2.440  1.02028E+00  1.00223E+00  1.80510E-02
    9010.527     18.357   2.480  1.01916E+00  1.00249E+00  1.66769E-02
    9011.289     19.119   2.520  1.01708E+00  1.00259E+00  1.44904E-02
    9012.063     19.893   2.560  1.01047E+00  1.00257E+00  7.89883E-03
    9012.850     20.679   2.600  1.00042E+00  1.00246E+00 -2.04009E-03
    9013.648     21.478   2.640  9.91428E-01  1.00225E+00 -1.08241E-02
    9014.459     22.289   2.680  9.83664E-01  1.00199E+00 -1.83244E-02
    9015.282     23.112   2.720  9.74148E-01  1.00163E+00 -2.74823E-02
    9016.117     23.947   2.760  9.62365E-01  1.00124E+00 -3.88781E-02
    9016.964     24.794   2.800  9.48974E-01  1.00081E+00 -5.18395E-02
    9017.824     25.654   2.840  9.35202E-01  1.00035E+00 -6.51427E-02
    9018.696     26.525   2.880  9.22470E-01  9.99844E-01 -7.73745E-02
    9019.580     27.409   2.920  9.11721E-01  9.99358E-01 -8.76371E-02
    9020.476     28.305   2.960  9.03370E-01  9.98847E-01 -9.54774E-02
    9021.384     29.214   3.000  8.97447E-01  9.98358E-01 -1.00911E-01
    9022.305     30.134   3.040  8.93428E-01  9.97873E-01 -1.04445E-01
    9023.237     31.067   3.080  8.90691E-01  9.97394E-01 -1.06703E-01
    9024.182     32.012   3.120  8.88815E-01  9.96947E-01 -1.08132E-01
    9025.139     32.969   3.160  8.87478E-01  9.96534E-01 -1.09057E-01
    9026.108     33.938   3.200  8.86874E-01  9.96157E-01 -1.09282E-01
    9027.090     34.919   3.240  8.87445E-01  9.95796E-01 -1.08352E-01
    9028.083     35.913   3.280  8.89529E-01  9.95498E-01 -1.05969E-01
    9029.089     36.919   3.320  8.93325E-01  9.95241E-01 -1.01916E-01
    9030.107     37.937   3.360  8.98994E-01  9.95027E-01 -9.60329E-02
    9031.138     38.967   3.400  9.06594E-01  9.94877E-01 -8.82829E-02
    9032.180     40.010   3.440  9.15850E-01  9.94749E-01 -7.88992E-02
    9033.235     41.064   3.480  9.26574E-01  9.94687E-01 -6.81132E-02
    9034.301     42.131   3.520  9.38373E-01  9.94670E-01 -5.62973E-02
    9035.380     43.210   3.560  9.50723E-01  9.94719E-01 -4.39957E-02
    9036.472     44.301   3.600  9.62978E-01  9.94792E-01 -3.18138E-02
    9037.575     45.404   3.640  9.74613E-01  9.94930E-01 -2.03169E-02
    9038.690     46.520   3.680  9.85198E-01  9.95134E-01 -9.93629E-03
    9039.818     47.648   3.720  9.94516E-01  9.95361E-01 -8.45037E-04
    9040.958     48.788   3.760  1.00284E+00  9.95650E-01  7.18590E-03
    9042.110     49.940   3.800  1.01053E+00  9.95961E-01  1.45675E-02
    9043.275     51.104   3.840  1.01810E+00  9.96333E-01  2.17656E-02
    9044.451     52.281   3.880  1.02598E+00  9.96747E-01  2.92297E-02
    9045.640     53.469   3.920  1.03446E+00  9.97201E-01  3.72591E-02
    9046.841     54.670   3.960  1.04355E+00  9.97693E-01  4.58577E-02
    9048.054     55.883   4.000  1.05298E+00  9.98221E-01  5.47632E-02
    9049.279     57.109   4.040  1.06217E+00  9.98762E-01  6.34133E-02
    9050.517     58.346   4.080  1.07031E+00  9.99334E-01  7.09754E-02
    9051.766     59.596   4.120  1.07647E+00  9.99938E-01  7.65291E-02
    9053.028     60.858   4.160  1.08000E+00  1.00055E+00  7.94534E-02
    9054.302     62.132   4.200  1.08067E+00  1.00117E+00  7.94967E-02
    9055.589     63.418   4.240  1.07861E+00  1.00182E+00  7.67928E-02
    9056.887     64.717   4.280  1.07425E+00  1.00247E+00  7.17844E-02
    9058.198     66.027   4.320  1.06822E+00  1.00314E+00  6.50824E-02
    9059.520     67.350   4.360  1.06119E+00  1.00379E+00  5.74022E-02
    9060.855     68.685   4.400  1.05394E+00  1.00444E+00  4.94948E-02
    9062.203     70.032   4.440  1.04715E+00  1.00509E+00  4.20595E-02
    9063.562     71.392   4.480  1.04126E+00  1.00573E+00  3.55296E-02
    9064.934     72.763   4.520  1.03647E+00  1.00637E+00  3.01015E-02
    9066.317     74.147   4.560  1.03276E+00  1.00700E+00  2.57608E-02
    9067.713     75.543   4.600  1.02988E+00  1.00757E+00  2.23037E-02
    9069.122     76.951   4.640  1.02758E+00  1.00816E+00  1.94167E-02
    9070.542     78.372   4.680  1.02551E+00  1.00871E+00  1.67969E-02
    9071.975     79.804   4.720  1.02343E+00  1.00923E+00  1.42035E-02
    9073.419     81.249   4.760  1.02119E+00  1.00971E+00  1.14811E-02
    9074.876     82.706   4.800  1.01870E+00  1.01017E+00  8.53428E-03
    9076.345     84.175   4.840  1.01583E+00  1.01057E+00  5.26399E-03
    9077.827     85.656   4.880  1.01249E+00  1.01095E+00  1.54145E-03
    9079.320     87.150   4.920  1.00853E+00  1.01130E+00 -2.77132E-03
    9080.826     88.655   4.960  1.00388E+00  1.01160E+00 -7.71967E-03
    9082.344     90.173   5.000  9.98684E-01  1.01186E+00 -1.31753E-02
    9083.874     91.703   5.040  9.93229E-01  1.01207E+00 -1.88460E-02
    9085.416     93.246   5.080  9.87808E-01  1.01223E+00 -2.44182E-02
    9086.971     94.800   5.120  9.82696E-01  1.01235E+00 -2.96582E-02
    9088.537     96.367   5.160  9.77966E-01  1.01242E+00 -3.44525E-02
    9090.116     97.946   5.200  9.73773E-01  1.01246E+00 -3.86882E-02
    9091.707     99.537   5.240  9.70239E-01  1.01244E+00 -4.21981E-02
    9093.310    101.140   5.280  9.67650E-01  1.01237E+00 -4.47181E-02
    9094.926    102.755   5.320  9.66313E-01  1.01226E+00 -4.59433E-02
    9096.553    104.383   5.360  9.66478E-01  1.01210E+00 -4.56236E-02
    9098.193    106.023   5.400  9.68124E-01  1.01190E+00 -4.37797E-02
    9099.845    107.675   5.440  9.70800E-01  1.01164E+00 -4.08401E-02
    9101.509    109.339   5.480  9.73820E-01  1.01136E+00 -3.75391E-02
    9103.186    111.015   5.520  9.76511E-01  1.01104E+00 -3.45267E-02
    9104.874    112.704   5.560  9.78618E-01  1.01068E+00 -3.20593E-02
    9106.575    114.405   5.600  9.80371E-01  1.01028E+00 -2.99047E-02
    9108.288    116.118   5.640  9.82225E-01  1.00983E+00 -2.76096E-02
    9110.013    117.843   5.680  9.84514E-01  1.00936E+00 -2.48415E-02
    9111.751    119.580   5.720  9.87181E-01  1.00884E+00 -2.16613E-02
    9113.500    121.330   5.760  9.89907E-01  1.00832E+00 -1.84098E-02
    9115.262    123.092   5.800  9.92354E-01  1.00776E+00 -1.54074E-02
    9117.036    124.866   5.840  9.94552E-01  1.00720E+00 -1.26467E-02
    9118.822    126.652   5.880  9.96854E-01  1.00661E+00 -9.75169E-03
    9120.620    128.450   5.920  9.99718E-01  1.00599E+00 -6.27045E-03
    9122.431    130.260   5.960  1.00327E+00  1.00538E+00 -2.10201E-03
    9124.254    132.083   6.000  1.00714E+00  1.00475E+00  2.38912E-03
