# # comment:                                                     FEFF 9.9.1  
# # Source:
# # Structure
# # Reduced
# # space
# # abc:
# # angles:158.199430
# # sites:
# # POT  SCF 100  7.0000   0, screened core-hole, AFOLP (folp(0)= 1.150)
# # Abs   Z=29 Rmt= 1.263 Rnm= 1.340 K  shell
# # Pot 1 Z=38 Rmt= 1.832 Rnm= 1.903
# # Pot 2 Z=29 Rmt= 1.263 Rnm= 1.340
# # Pot 3 Z=53 Rmt= 1.854 Rnm= 1.922
# # Pot 4 Z= 8 Rmt= 1.086 Rnm= 1.136
# # Gam_ch=1.729E+00 H-L exch Vi= 0.000E+00 Vr= 0.000E+00
# # Mu=-6.669E+00eV kf=1.658E+00 Vint=-1.411E+01eV Rs_int= 2.188
# FMS rfms= 9.0000
# # PATH  Rmax=-1.000,  Keep_limit= 0.00, Heap_limit 0.00  Pwcrit= 2.50%
#  S02=0.950  Temp=   0.00  Debye_temp=   0.00  Global_sig2= 0.00000
#  Energy zero shift, vr, vi    0.00000E+00   0.00000E+00
#  Curved wave amplitude ratio filter   4.000%
#     file         sig2 tot  cw amp ratio   deg  nlegs   reff  inp sig2
#     0/   0 paths used
#  xsedge+ 50, used to normalize mu           2.4039E-04
#  -----------------------------------------------------------------------
#  omega    e    k    mu    mu0     chi     @#
    8984.762    -10.479  -1.000  5.03028E-02  6.51290E-02 -1.48262E-02
    8985.060    -10.181  -0.960  5.34334E-02  7.01567E-02 -1.67233E-02
    8985.347     -9.894  -0.920  5.68476E-02  7.57636E-02 -1.89160E-02
    8985.621     -9.620  -0.880  6.05793E-02  8.20359E-02 -2.14566E-02
    8985.883     -9.358  -0.840  6.46669E-02  8.90742E-02 -2.44073E-02
    8986.133     -9.108  -0.800  6.91532E-02  9.69951E-02 -2.78419E-02
    8986.371     -8.870  -0.760  7.40858E-02  1.05932E-01 -3.18466E-02
    8986.597     -8.644  -0.720  7.95164E-02  1.16037E-01 -3.65208E-02
    8986.810     -8.431  -0.680  8.54998E-02  1.27476E-01 -4.19765E-02
    8987.011     -8.230  -0.640  9.20910E-02  1.40426E-01 -4.83346E-02
    8987.200     -8.041  -0.600  9.93412E-02  1.55058E-01 -5.57170E-02
    8987.377     -7.864  -0.560  1.07290E-01  1.71522E-01 -6.42315E-02
    8987.542     -7.700  -0.520  1.15957E-01  1.89906E-01 -7.39486E-02
    8987.694     -7.547  -0.480  1.25325E-01  2.10192E-01 -8.48674E-02
    8987.834     -7.407  -0.440  1.35324E-01  2.32203E-01 -9.68783E-02
    8987.962     -7.279  -0.400  1.45822E-01  2.55553E-01 -1.09730E-01
    8988.078     -7.163  -0.360  1.56611E-01  2.79636E-01 -1.23025E-01
    8988.182     -7.059  -0.320  1.67416E-01  3.03664E-01 -1.36248E-01
    8988.273     -6.968  -0.280  1.77917E-01  3.26761E-01 -1.48845E-01
    8988.352     -6.889  -0.240  1.87776E-01  3.48086E-01 -1.60310E-01
    8988.419     -6.822  -0.200  1.96675E-01  3.66934E-01 -1.70258E-01
    8988.474     -6.767  -0.160  2.04334E-01  3.82788E-01 -1.78454E-01
    8988.517     -6.724  -0.120  2.10527E-01  3.95320E-01 -1.84792E-01
    8988.547     -6.694  -0.080  2.15086E-01  4.04346E-01 -1.89260E-01
    8988.572     -6.669   0.000  2.18859E-01  4.11596E-01 -1.92737E-01
    8988.627     -6.614   0.120  2.27435E-01  4.27948E-01 -2.00514E-01
    8988.669     -6.572   0.160  2.34182E-01  4.40655E-01 -2.06472E-01
    8988.724     -6.517   0.200  2.43021E-01  4.56866E-01 -2.13845E-01
    8988.791     -6.450   0.240  2.54058E-01  4.76362E-01 -2.22304E-01
    8988.870     -6.371   0.280  2.67361E-01  4.98734E-01 -2.31373E-01
    8988.962     -6.279   0.320  2.83011E-01  5.23409E-01 -2.40398E-01
    8989.066     -6.176   0.360  3.00956E-01  5.49635E-01 -2.48679E-01
    8989.181     -6.060   0.400  3.21134E-01  5.76650E-01 -2.55517E-01
    8989.309     -5.932   0.440  3.43360E-01  6.03717E-01 -2.60357E-01
    8989.450     -5.792   0.480  3.67421E-01  6.30271E-01 -2.62849E-01
    8989.602     -5.639   0.520  3.93049E-01  6.55940E-01 -2.62890E-01
    8989.767     -5.475   0.560  4.19849E-01  6.80510E-01 -2.60662E-01
    8989.943     -5.298   0.600  4.47229E-01  7.03910E-01 -2.56681E-01
    8990.132     -5.109   0.640  4.74205E-01  7.26155E-01 -2.51949E-01
    8990.333     -4.908   0.680  4.99464E-01  7.47352E-01 -2.47888E-01
    8990.547     -4.694   0.720  5.21679E-01  7.67562E-01 -2.45883E-01
    8990.772     -4.469   0.760  5.40156E-01  7.86845E-01 -2.46690E-01
    8991.010     -4.231   0.800  5.55016E-01  8.05311E-01 -2.50296E-01
    8991.260     -3.981   0.840  5.66661E-01  8.22971E-01 -2.56309E-01
    8991.522     -3.719   0.880  5.75993E-01  8.39901E-01 -2.63908E-01
    8991.797     -3.445   0.920  5.84360E-01  8.56080E-01 -2.71720E-01
    8992.083     -3.158   0.960  5.92429E-01  8.71556E-01 -2.79126E-01
    8992.382     -2.859   1.000  5.98589E-01  8.86322E-01 -2.87733E-01
    8992.693     -2.548   1.040  6.00185E-01  9.00366E-01 -3.00181E-01
    8993.016     -2.225   1.080  5.97687E-01  9.13665E-01 -3.15977E-01
    8993.351     -1.890   1.120  5.98016E-01  9.26214E-01 -3.28199E-01
    8993.698     -1.543   1.160  6.12432E-01  9.38006E-01 -3.25574E-01
    8994.058     -1.183   1.200  6.49471E-01  9.49049E-01 -2.99579E-01
    8994.430     -0.811   1.240  7.06425E-01  9.59292E-01 -2.52866E-01
    8994.814     -0.427   1.280  7.66392E-01  9.68763E-01 -2.02371E-01
    8995.210     -0.031   1.320  8.12320E-01  9.77473E-01 -1.65153E-01
    8995.619      0.378   1.360  8.45737E-01  9.85391E-01 -1.39655E-01
    8996.039      0.798   1.400  8.78886E-01  9.92549E-01 -1.13663E-01
    8996.472      1.231   1.440  9.18657E-01  9.98981E-01 -8.03243E-02
    8996.917      1.676   1.480  9.67253E-01  1.00466E+00 -3.74082E-02
    8997.374      2.133   1.520  1.03027E+00  1.00965E+00  2.06284E-02
    8997.844      2.603   1.560  1.12267E+00  1.01395E+00  1.08715E-01
    8998.325      3.084   1.600  1.26739E+00  1.01762E+00  2.49767E-01
    8998.819      3.578   1.640  1.46997E+00  1.02065E+00  4.49326E-01
    8999.325      4.084   1.680  1.66583E+00  1.02311E+00  6.42720E-01
    8999.843      4.602   1.720  1.74304E+00  1.02504E+00  7.17994E-01
    9000.374      5.132   1.760  1.69131E+00  1.02646E+00  6.64849E-01
    9000.916      5.675   1.800  1.59793E+00  1.02742E+00  5.70515E-01
    9001.471      6.230   1.840  1.51487E+00  1.02792E+00  4.86945E-01
    9002.038      6.797   1.880  1.45028E+00  1.02805E+00  4.22233E-01
    9002.617      7.376   1.920  1.39565E+00  1.02785E+00  3.67797E-01
    9003.208      7.967   1.960  1.34352E+00  1.02730E+00  3.16215E-01
    9003.812      8.571   2.000  1.28674E+00  1.02650E+00  2.60245E-01
    9004.427      9.186   2.040  1.21894E+00  1.02544E+00  1.93500E-01
    9005.055      9.814   2.080  1.14338E+00  1.02416E+00  1.19215E-01
    9005.695     10.454   2.120  1.08223E+00  1.02273E+00  5.95014E-02
    9006.348     11.107   2.160  1.04281E+00  1.02114E+00  2.16681E-02
    9007.012     11.771   2.200  1.01997E+00  1.01941E+00  5.57523E-04
    9007.689     12.448   2.240  1.00981E+00  1.01760E+00 -7.79095E-03
    9008.378     13.136   2.280  1.00980E+00  1.01572E+00 -5.92155E-03
    9009.079     13.838   2.320  1.01739E+00  1.01380E+00  3.58864E-03
    9009.792     14.551   2.360  1.02843E+00  1.01184E+00  1.65944E-02
    9010.517     15.276   2.400  1.03831E+00  1.00989E+00  2.84167E-02
    9011.255     16.014   2.440  1.04273E+00  1.00795E+00  3.47787E-02
    9012.005     16.764   2.480  1.03742E+00  1.00602E+00  3.14006E-02
    9012.767     17.526   2.520  1.01816E+00  1.00415E+00  1.40049E-02
    9013.541     18.300   2.560  9.83663E-01  1.00235E+00 -1.86895E-02
    9014.327     19.086   2.600  9.40266E-01  1.00061E+00 -6.03402E-02
    9015.126     19.885   2.640  8.97996E-01  9.98939E-01 -1.00943E-01
    9015.937     20.696   2.680  8.64573E-01  9.97379E-01 -1.32806E-01
    9016.760     21.518   2.720  8.42922E-01  9.95909E-01 -1.52988E-01
    9017.595     22.354   2.760  8.31641E-01  9.94553E-01 -1.62912E-01
    9018.442     23.201   2.800  8.27716E-01  9.93293E-01 -1.65577E-01
    9019.302     24.060   2.840  8.28858E-01  9.92175E-01 -1.63318E-01
    9020.173     24.932   2.880  8.33842E-01  9.91159E-01 -1.57317E-01
    9021.057     25.816   2.920  8.42243E-01  9.90288E-01 -1.48045E-01
    9021.953     26.712   2.960  8.52912E-01  9.89544E-01 -1.36632E-01
    9022.862     27.621   3.000  8.64231E-01  9.88928E-01 -1.24696E-01
    9023.782     28.541   3.040  8.73804E-01  9.88439E-01 -1.14635E-01
    9024.715     29.474   3.080  8.80137E-01  9.88099E-01 -1.07962E-01
    9025.660     30.419   3.120  8.83184E-01  9.87889E-01 -1.04705E-01
    9026.617     31.376   3.160  8.84093E-01  9.87806E-01 -1.03712E-01
    9027.586     32.345   3.200  8.84809E-01  9.87871E-01 -1.03062E-01
    9028.567     33.326   3.240  8.87018E-01  9.88042E-01 -1.01023E-01
    9029.561     34.320   3.280  8.92004E-01  9.88358E-01 -9.63540E-02
    9030.567     35.326   3.320  9.00566E-01  9.88798E-01 -8.82320E-02
    9031.585     36.344   3.360  9.13334E-01  9.89339E-01 -7.60057E-02
    9032.615     37.374   3.400  9.30317E-01  9.90022E-01 -5.97055E-02
    9033.658     38.417   3.440  9.50561E-01  9.90803E-01 -4.02416E-02
    9034.712     39.471   3.480  9.73049E-01  9.91700E-01 -1.86512E-02
    9035.779     40.538   3.520  9.96769E-01  9.92711E-01  4.05789E-03
    9036.858     41.617   3.560  1.02002E+00  9.93811E-01  2.62098E-02
    9037.949     42.708   3.600  1.04008E+00  9.94997E-01  4.50796E-02
    9039.052     43.811   3.640  1.05440E+00  9.96266E-01  5.81344E-02
    9040.168     44.927   3.680  1.06227E+00  9.97614E-01  6.46554E-02
    9041.296     46.055   3.720  1.06499E+00  9.99040E-01  6.59483E-02
    9042.436     47.195   3.760  1.06491E+00  1.00052E+00  6.43890E-02
    9043.588     48.347   3.800  1.06420E+00  1.00207E+00  6.21269E-02
    9044.752     49.511   3.840  1.06419E+00  1.00369E+00  6.05045E-02
    9045.929     50.688   3.880  1.06525E+00  1.00532E+00  5.99279E-02
    9047.117     51.876   3.920  1.06698E+00  1.00700E+00  5.99771E-02
    9048.318     53.077   3.960  1.06857E+00  1.00871E+00  5.98598E-02
    9049.531     54.290   4.000  1.06942E+00  1.01042E+00  5.89990E-02
    9050.757     55.516   4.040  1.06959E+00  1.01217E+00  5.74234E-02
    9051.994     56.753   4.080  1.06931E+00  1.01389E+00  5.54228E-02
    9053.244     58.003   4.120  1.06895E+00  1.01563E+00  5.33211E-02
    9054.506     59.265   4.160  1.06889E+00  1.01734E+00  5.15479E-02
    9055.780     60.539   4.200  1.06981E+00  1.01904E+00  5.07660E-02
    9057.066     61.825   4.240  1.07244E+00  1.02071E+00  5.17357E-02
    9058.365     63.123   4.280  1.07729E+00  1.02236E+00  5.49371E-02
    9059.675     64.434   4.320  1.08415E+00  1.02394E+00  6.02109E-02
    9060.998     65.757   4.360  1.09192E+00  1.02548E+00  6.64445E-02
    9062.333     67.092   4.400  1.09882E+00  1.02697E+00  7.18472E-02
    9063.680     68.439   4.440  1.10299E+00  1.02841E+00  7.45875E-02
    9065.040     69.799   4.480  1.10340E+00  1.02974E+00  7.36562E-02
    9066.411     71.170   4.520  1.10006E+00  1.03102E+00  6.90445E-02
    9067.795     72.554   4.560  1.09354E+00  1.03222E+00  6.13239E-02
    9069.191     73.950   4.600  1.08424E+00  1.03333E+00  5.09140E-02
    9070.599     75.358   4.640  1.07223E+00  1.03436E+00  3.78725E-02
    9072.020     76.778   4.680  1.05757E+00  1.03530E+00  2.22770E-02
    9073.452     78.211   4.720  1.04087E+00  1.03615E+00  4.72227E-03
    9074.897     79.656   4.760  1.02334E+00  1.03689E+00 -1.35480E-02
    9076.354     81.113   4.800  1.00682E+00  1.03753E+00 -3.07101E-02
    9077.823     82.582   4.840  9.93154E-01  1.03806E+00 -4.49067E-02
    9079.304     84.063   4.880  9.83823E-01  1.03850E+00 -5.46750E-02
    9080.798     85.557   4.920  9.79467E-01  1.03884E+00 -5.93761E-02
    9082.303     87.062   4.960  9.79653E-01  1.03907E+00 -5.94193E-02
    9083.821     88.580   5.000  9.83076E-01  1.03918E+00 -5.61072E-02
    9085.351     90.110   5.040  9.87845E-01  1.03920E+00 -5.13587E-02
    9086.894     91.653   5.080  9.91879E-01  1.03913E+00 -4.72559E-02
    9088.448     93.207   5.120  9.93494E-01  1.03898E+00 -4.54821E-02
    9090.015     94.774   5.160  9.91945E-01  1.03871E+00 -4.67606E-02
    9091.594     96.353   5.200  9.87854E-01  1.03835E+00 -5.04933E-02
    9093.185     97.944   5.240  9.82677E-01  1.03790E+00 -5.52257E-02
    9094.788     99.547   5.280  9.77929E-01  1.03738E+00 -5.94464E-02
    9096.403    101.162   5.320  9.74669E-01  1.03677E+00 -6.20977E-02
    9098.031    102.790   5.360  9.73540E-01  1.03610E+00 -6.25610E-02
    9099.671    104.430   5.400  9.74943E-01  1.03534E+00 -6.03937E-02
    9101.323    106.082   5.440  9.79337E-01  1.03454E+00 -5.52039E-02
    9102.987    107.746   5.480  9.86875E-01  1.03365E+00 -4.67754E-02
    9104.663    109.422   5.520  9.97385E-01  1.03274E+00 -3.53513E-02
    9106.352    111.111   5.560  1.00985E+00  1.03176E+00 -2.19084E-02
    9108.053    112.812   5.600  1.02252E+00  1.03076E+00 -8.23964E-03
    9109.766    114.525   5.640  1.03301E+00  1.02972E+00  3.28792E-03
    9111.491    116.250   5.680  1.03931E+00  1.02863E+00  1.06821E-02
    9113.228    117.987   5.720  1.04057E+00  1.02754E+00  1.30228E-02
    9114.978    119.737   5.760  1.03772E+00  1.02643E+00  1.12888E-02
    9116.740    121.499   5.800  1.03336E+00  1.02530E+00  8.06202E-03
    9118.514    123.272   5.840  1.03052E+00  1.02419E+00  6.33457E-03
    9120.300    125.059   5.880  1.03129E+00  1.02306E+00  8.22763E-03
    9122.098    126.857   5.920  1.03626E+00  1.02198E+00  1.42797E-02
    9123.908    128.667   5.960  1.04401E+00  1.02090E+00  2.31103E-02
    9125.731    130.490   6.000  1.05221E+00  1.01988E+00  3.23274E-02
