# # comment:                                                     FEFF 9.9.1  
# # Source:
# # Structure
# # Reduced
# # space
# # abc:
# # angles:122.591159
# # sites:
# # POT  SCF 100  7.0000   0, screened core-hole, AFOLP (folp(0)= 1.150)
# # Abs   Z=29 Rmt= 1.336 Rnm= 1.396 K  shell
# # Pot 1 Z=56 Rmt= 1.979 Rnm= 2.022
# # Pot 2 Z=29 Rmt= 1.337 Rnm= 1.397
# # Pot 3 Z=76 Rmt= 1.248 Rnm= 1.390
# # Pot 4 Z= 8 Rmt= 1.037 Rnm= 1.093
# # Gam_ch=1.729E+00 H-L exch Vi= 0.000E+00 Vr= 0.000E+00
# # Mu=-8.535E+00eV kf=2.102E+00 Vint=-1.719E+01eV Rs_int= 1.725
# FMS rfms= 9.0000
# # PATH  Rmax=-1.000,  Keep_limit= 0.00, Heap_limit 0.00  Pwcrit= 2.50%
#  S02=0.950  Temp=   0.00  Debye_temp=   0.00  Global_sig2= 0.00000
#  Energy zero shift, vr, vi    0.00000E+00   0.00000E+00
#  Curved wave amplitude ratio filter   4.000%
#     file         sig2 tot  cw amp ratio   deg  nlegs   reff  inp sig2
#     0/   0 paths used
#  xsedge+ 50, used to normalize mu           2.4597E-04
#  -----------------------------------------------------------------------
#  omega    e    k    mu    mu0     chi     @#
    8984.710    -12.345  -1.000  3.76678E-02  5.03228E-02 -1.26550E-02
    8985.009    -12.046  -0.960  3.94320E-02  5.38873E-02 -1.44553E-02
    8985.295    -11.759  -0.920  4.12900E-02  5.78416E-02 -1.65516E-02
    8985.570    -11.485  -0.880  4.32460E-02  6.22425E-02 -1.89965E-02
    8985.832    -11.223  -0.840  4.53042E-02  6.71563E-02 -2.18521E-02
    8986.082    -10.973  -0.800  4.74686E-02  7.26596E-02 -2.51910E-02
    8986.319    -10.735  -0.760  4.97431E-02  7.88404E-02 -2.90973E-02
    8986.545    -10.510  -0.720  5.21307E-02  8.57978E-02 -3.36671E-02
    8986.758    -10.296  -0.680  5.46339E-02  9.36411E-02 -3.90072E-02
    8986.959    -10.095  -0.640  5.72536E-02  1.02486E-01 -4.52319E-02
    8987.148     -9.906  -0.600  5.99887E-02  1.12444E-01 -5.24554E-02
    8987.325     -9.729  -0.560  6.28343E-02  1.23613E-01 -6.07787E-02
    8987.490     -9.565  -0.520  6.57806E-02  1.36049E-01 -7.02686E-02
    8987.642     -9.412  -0.480  6.88097E-02  1.49739E-01 -8.09292E-02
    8987.782     -9.272  -0.440  7.18941E-02  1.64562E-01 -9.26682E-02
    8987.910     -9.144  -0.400  7.49938E-02  1.80263E-01 -1.05269E-01
    8988.026     -9.028  -0.360  7.80561E-02  1.96437E-01 -1.18381E-01
    8988.130     -8.925  -0.320  8.10186E-02  2.12561E-01 -1.31543E-01
    8988.221     -8.833  -0.280  8.38134E-02  2.28055E-01 -1.44241E-01
    8988.301     -8.754  -0.240  8.63742E-02  2.42357E-01 -1.55983E-01
    8988.368     -8.687  -0.200  8.86414E-02  2.55000E-01 -1.66358E-01
    8988.422     -8.632  -0.160  9.05651E-02  2.65637E-01 -1.75072E-01
    8988.465     -8.589  -0.120  9.21045E-02  2.74049E-01 -1.81944E-01
    8988.496     -8.559  -0.080  9.32275E-02  2.80110E-01 -1.86882E-01
    8988.520     -8.535   0.000  9.41417E-02  2.84981E-01 -1.90839E-01
    8988.575     -8.480   0.120  9.63220E-02  2.95958E-01 -1.99636E-01
    8988.618     -8.437   0.160  9.79996E-02  3.04495E-01 -2.06495E-01
    8988.672     -8.382   0.200  1.00209E-01  3.15424E-01 -2.15215E-01
    8988.739     -8.315   0.240  1.02932E-01  3.28563E-01 -2.25631E-01
    8988.819     -8.236   0.280  1.06177E-01  3.43656E-01 -2.37479E-01
    8988.910     -8.144   0.320  1.10024E-01  3.60351E-01 -2.50326E-01
    8989.014     -8.041   0.360  1.14512E-01  3.78184E-01 -2.63672E-01
    8989.130     -7.925   0.400  1.19691E-01  3.96618E-01 -2.76928E-01
    8989.258     -7.797   0.440  1.25727E-01  4.15243E-01 -2.89516E-01
    8989.398     -7.657   0.480  1.32757E-01  4.33649E-01 -3.00892E-01
    8989.550     -7.504   0.520  1.41124E-01  4.51654E-01 -3.10530E-01
    8989.715     -7.340   0.560  1.51171E-01  4.69136E-01 -3.17965E-01
    8989.892     -7.163   0.600  1.63452E-01  4.86048E-01 -3.22595E-01
    8990.081     -6.974   0.640  1.78741E-01  5.02460E-01 -3.23718E-01
    8990.282     -6.773   0.680  1.98093E-01  5.18455E-01 -3.20363E-01
    8990.495     -6.560   0.720  2.22872E-01  5.34089E-01 -3.11218E-01
    8990.721     -6.334   0.760  2.54807E-01  5.49456E-01 -2.94649E-01
    8990.958     -6.096   0.800  2.95476E-01  5.64620E-01 -2.69144E-01
    8991.208     -5.846   0.840  3.45517E-01  5.79634E-01 -2.34117E-01
    8991.470     -5.584   0.880  4.03532E-01  5.94560E-01 -1.91028E-01
    8991.745     -5.310   0.920  4.65698E-01  6.09428E-01 -1.43729E-01
    8992.031     -5.023   0.960  5.25325E-01  6.24236E-01 -9.89113E-02
    8992.330     -4.725   1.000  5.72251E-01  6.39033E-01 -6.67822E-02
    8992.641     -4.414   1.040  5.98311E-01  6.53778E-01 -5.54672E-02
    8992.964     -4.091   1.080  6.06982E-01  6.68507E-01 -6.15249E-02
    8993.299     -3.755   1.120  6.09959E-01  6.83167E-01 -7.32072E-02
    8993.647     -3.408   1.160  6.13612E-01  6.97762E-01 -8.41498E-02
    8994.006     -3.048   1.200  6.15849E-01  7.12289E-01 -9.64400E-02
    8994.378     -2.676   1.240  6.18837E-01  7.26685E-01 -1.07847E-01
    8994.762     -2.292   1.280  6.36059E-01  7.40944E-01 -1.04885E-01
    8995.159     -1.896   1.320  6.76283E-01  7.55037E-01 -7.87540E-02
    8995.567     -1.488   1.360  7.31428E-01  7.68916E-01 -3.74875E-02
    8995.988     -1.067   1.400  7.92764E-01  7.82588E-01  1.01767E-02
    8996.420     -0.634   1.440  8.74938E-01  7.96002E-01  7.89363E-02
    8996.865     -0.189   1.480  9.99966E-01  8.09127E-01  1.90838E-01
    8997.323      0.268   1.520  1.15695E+00  8.21932E-01  3.35022E-01
    8997.792      0.737   1.560  1.31133E+00  8.34383E-01  4.76944E-01
    8998.274      1.219   1.600  1.44058E+00  8.46492E-01  5.94085E-01
    8998.767      1.713   1.640  1.54516E+00  8.58189E-01  6.86970E-01
    8999.273      2.219   1.680  1.61624E+00  8.69485E-01  7.46753E-01
    8999.791      2.737   1.720  1.59398E+00  8.80353E-01  7.13631E-01
    9000.322      3.267   1.760  1.44551E+00  8.90783E-01  5.54725E-01
    9000.864      3.810   1.800  1.25863E+00  9.00751E-01  3.57883E-01
    9001.419      4.364   1.840  1.11786E+00  9.10233E-01  2.07623E-01
    9001.986      4.931   1.880  1.03052E+00  9.19267E-01  1.11251E-01
    9002.565      5.511   1.920  9.83564E-01  9.27808E-01  5.57567E-02
    9003.156      6.102   1.960  9.62906E-01  9.35856E-01  2.70498E-02
    9003.760      6.705   2.000  9.49950E-01  9.43433E-01  6.51715E-03
    9004.376      7.321   2.040  9.32103E-01  9.50519E-01 -1.84160E-02
    9005.004      7.949   2.080  9.09325E-01  9.57116E-01 -4.77906E-02
    9005.644      8.589   2.120  8.88529E-01  9.63248E-01 -7.47193E-02
    9006.296      9.241   2.160  8.77761E-01  9.68921E-01 -9.11607E-02
    9006.960      9.906   2.200  8.84517E-01  9.74141E-01 -8.96234E-02
    9007.637     10.582   2.240  9.08568E-01  9.78913E-01 -7.03451E-02
    9008.326     11.271   2.280  9.39556E-01  9.83264E-01 -4.37075E-02
    9009.027     11.972   2.320  9.68216E-01  9.87201E-01 -1.89851E-02
    9009.740     12.685   2.360  9.95598E-01  9.90734E-01  4.86448E-03
    9010.466     13.411   2.400  1.02191E+00  9.93890E-01  2.80170E-02
    9011.203     14.148   2.440  1.03220E+00  9.96677E-01  3.55214E-02
    9011.953     14.898   2.480  1.01240E+00  9.99127E-01  1.32724E-02
    9012.715     15.660   2.520  9.72828E-01  1.00125E+00 -2.84208E-02
    9013.489     16.434   2.560  9.38282E-01  1.00305E+00 -6.47675E-02
    9014.276     17.221   2.600  9.17511E-01  1.00456E+00 -8.70483E-02
    9015.074     18.019   2.640  9.07576E-01  1.00581E+00 -9.82337E-02
    9015.885     18.830   2.680  9.03802E-01  1.00679E+00 -1.02988E-01
    9016.708     19.653   2.720  9.03687E-01  1.00755E+00 -1.03862E-01
    9017.543     20.488   2.760  9.06070E-01  1.00810E+00 -1.02026E-01
    9018.390     21.336   2.800  9.10048E-01  1.00842E+00 -9.83735E-02
    9019.250     22.195   2.840  9.14412E-01  1.00859E+00 -9.41798E-02
    9020.122     23.067   2.880  9.17860E-01  1.00858E+00 -9.07160E-02
    9021.005     23.951   2.920  9.20351E-01  1.00842E+00 -8.80730E-02
    9021.902     24.847   2.960  9.22526E-01  1.00812E+00 -8.55970E-02
    9022.810     25.755   3.000  9.24977E-01  1.00772E+00 -8.27459E-02
    9023.730     26.676   3.040  9.27989E-01  1.00723E+00 -7.92422E-02
    9024.663     27.608   3.080  9.31767E-01  1.00663E+00 -7.48650E-02
    9025.608     28.553   3.120  9.36819E-01  1.00597E+00 -6.91545E-02
    9026.565     29.510   3.160  9.43565E-01  1.00524E+00 -6.16765E-02
    9027.534     30.480   3.200  9.52307E-01  1.00444E+00 -5.21348E-02
    9028.516     31.461   3.240  9.62984E-01  1.00362E+00 -4.06379E-02
    9029.509     32.455   3.280  9.75239E-01  1.00279E+00 -2.75502E-02
    9030.515     33.461   3.320  9.88693E-01  1.00193E+00 -1.32330E-02
    9031.533     34.479   3.360  1.00316E+00  1.00106E+00  2.10553E-03
    9032.563     35.509   3.400  1.01836E+00  1.00016E+00  1.81982E-02
    9033.606     36.551   3.440  1.03397E+00  9.99293E-01  3.46799E-02
    9034.660     37.606   3.480  1.04932E+00  9.98452E-01  5.08671E-02
    9035.727     38.673   3.520  1.06301E+00  9.97621E-01  6.53937E-02
    9036.806     39.752   3.560  1.07340E+00  9.96822E-01  7.65751E-02
    9037.897     40.843   3.600  1.07906E+00  9.96040E-01  8.30168E-02
    9039.001     41.946   3.640  1.07939E+00  9.95317E-01  8.40737E-02
    9040.116     43.062   3.680  1.07472E+00  9.94635E-01  8.00837E-02
    9041.244     44.189   3.720  1.06635E+00  9.93995E-01  7.23552E-02
    9042.384     45.329   3.760  1.05603E+00  9.93399E-01  6.26264E-02
    9043.536     46.482   3.800  1.04541E+00  9.92848E-01  5.25623E-02
    9044.701     47.646   3.840  1.03588E+00  9.92366E-01  4.35159E-02
    9045.877     48.822   3.880  1.02833E+00  9.91952E-01  3.63735E-02
    9047.066     50.011   3.920  1.02280E+00  9.91566E-01  3.12318E-02
    9048.267     51.212   3.960  1.01874E+00  9.91270E-01  2.74725E-02
    9049.480     52.425   4.000  1.01523E+00  9.91004E-01  2.42302E-02
    9050.705     53.650   4.040  1.01165E+00  9.90827E-01  2.08236E-02
    9051.943     54.888   4.080  1.00773E+00  9.90679E-01  1.70518E-02
    9053.192     56.138   4.120  1.00396E+00  9.90621E-01  1.33402E-02
    9054.454     57.399   4.160  1.00105E+00  9.90590E-01  1.04616E-02
    9055.728     58.673   4.200  9.99827E-01  9.90629E-01  9.19840E-03
    9057.014     59.960   4.240  1.00073E+00  9.90737E-01  9.99264E-03
    9058.313     61.258   4.280  1.00359E+00  9.90891E-01  1.26966E-02
    9059.623     62.569   4.320  1.00752E+00  9.91090E-01  1.64264E-02
    9060.946     63.892   4.360  1.01114E+00  9.91332E-01  1.98087E-02
    9062.281     65.227   4.400  1.01297E+00  9.91638E-01  2.13360E-02
    9063.629     66.574   4.440  1.01172E+00  9.91964E-01  1.97552E-02
    9064.988     67.933   4.480  1.00676E+00  9.92353E-01  1.44121E-02
    9066.360     69.305   4.520  9.98321E-01  9.92780E-01  5.54135E-03
    9067.743     70.689   4.560  9.87475E-01  9.93221E-01 -5.74647E-03
    9069.139     72.085   4.600  9.75798E-01  9.93696E-01 -1.78981E-02
    9070.547     73.493   4.640  9.64765E-01  9.94205E-01 -2.94405E-02
    9071.968     74.913   4.680  9.55361E-01  9.94725E-01 -3.93646E-02
    9073.400     76.346   4.720  9.48151E-01  9.95276E-01 -4.71254E-02
    9074.845     77.790   4.760  9.43399E-01  9.95855E-01 -5.24558E-02
    9076.302     79.247   4.800  9.41141E-01  9.96417E-01 -5.52761E-02
    9077.771     80.717   4.840  9.41459E-01  9.97002E-01 -5.55432E-02
    9079.253     82.198   4.880  9.44475E-01  9.97586E-01 -5.31111E-02
    9080.746     83.691   4.920  9.50245E-01  9.98148E-01 -4.79028E-02
    9082.252     85.197   4.960  9.58545E-01  9.98728E-01 -4.01833E-02
    9083.770     86.715   5.000  9.68462E-01  9.99284E-01 -3.08222E-02
    9085.300     88.245   5.040  9.78618E-01  9.99853E-01 -2.12358E-02
    9086.842     89.787   5.080  9.87401E-01  1.00037E+00 -1.29694E-02
    9088.396     91.342   5.120  9.93777E-01  1.00088E+00 -7.10087E-03
    9089.963     92.908   5.160  9.97692E-01  1.00137E+00 -3.68229E-03
    9091.542     94.487   5.200  1.00000E+00  1.00184E+00 -1.83547E-03
    9093.133     96.078   5.240  1.00178E+00  1.00226E+00 -4.81602E-04
    9094.736     97.682   5.280  1.00376E+00  1.00267E+00  1.08574E-03
    9096.352     99.297   5.320  1.00596E+00  1.00302E+00  2.93299E-03
    9097.979    100.925   5.360  1.00794E+00  1.00335E+00  4.58247E-03
    9099.619    102.565   5.400  1.00925E+00  1.00365E+00  5.60397E-03
    9101.271    104.217   5.440  1.00931E+00  1.00387E+00  5.43987E-03
    9102.935    105.881   5.480  1.00809E+00  1.00408E+00  4.01716E-03
    9104.612    107.557   5.520  1.00610E+00  1.00422E+00  1.88222E-03
    9106.300    109.246   5.560  1.00413E+00  1.00431E+00 -1.83193E-04
    9108.001    110.946   5.600  1.00261E+00  1.00436E+00 -1.75712E-03
    9109.714    112.659   5.640  1.00198E+00  1.00437E+00 -2.39216E-03
    9111.439    114.385   5.680  1.00233E+00  1.00434E+00 -2.00786E-03
    9113.177    116.122   5.720  1.00400E+00  1.00424E+00 -2.34553E-04
    9114.926    117.872   5.760  1.00746E+00  1.00412E+00  3.34643E-03
    9116.688    119.633   5.800  1.01287E+00  1.00393E+00  8.93568E-03
    9118.462    121.407   5.840  1.01988E+00  1.00370E+00  1.61833E-02
    9120.248    123.193   5.880  1.02737E+00  1.00340E+00  2.39713E-02
    9122.046    124.992   5.920  1.03372E+00  1.00309E+00  3.06246E-02
    9123.857    126.802   5.960  1.03730E+00  1.00272E+00  3.45813E-02
    9125.679    128.625   6.000  1.03725E+00  1.00227E+00  3.49792E-02
