# # comment:                                                     FEFF 9.9.1  
# # Source:
# # Structure
# # Reduced
# # space
# # abc:
# # angles:
# # sites:
# # POT  SCF 100  7.0000   0, screened core-hole, AFOLP (folp(0)= 1.150)
# # Abs   Z=29 Rmt= 1.262 Rnm= 1.341 K  shell
# # Pot 1 Z=23 Rmt= 1.179 Rnm= 1.341
# # Pot 2 Z=29 Rmt= 1.269 Rnm= 1.346
# # Pot 3 Z= 8 Rmt= 0.989 Rnm= 1.094
# # Gam_ch=1.729E+00 H-L exch Vi= 0.000E+00 Vr= 0.000E+00
# # Mu=-9.873E+00eV kf=2.227E+00 Vint=-1.819E+01eV Rs_int= 1.629
# FMS rfms= 9.0000
# # PATH  Rmax=-1.000,  Keep_limit= 0.00, Heap_limit 0.00  Pwcrit= 2.50%
#  S02=0.950  Temp=   0.00  Debye_temp=   0.00  Global_sig2= 0.00000
#  Energy zero shift, vr, vi    0.00000E+00   0.00000E+00
#  Curved wave amplitude ratio filter   4.000%
#     file         sig2 tot  cw amp ratio   deg  nlegs   reff  inp sig2
#     0/   0 paths used
#  xsedge+ 50, used to normalize mu           2.4929E-04
#  -----------------------------------------------------------------------
#  omega    e    k    mu    mu0     chi     @#
    8984.139    -13.683  -1.000  3.65436E-02  4.82992E-02 -1.17557E-02
    8984.437    -13.384  -0.960  3.85981E-02  5.16517E-02 -1.30536E-02
    8984.724    -13.097  -0.920  4.08429E-02  5.53651E-02 -1.45222E-02
    8984.998    -12.823  -0.880  4.33052E-02  5.94915E-02 -1.61863E-02
    8985.260    -12.561  -0.840  4.60169E-02  6.40918E-02 -1.80749E-02
    8985.510    -12.311  -0.800  4.90151E-02  6.92362E-02 -2.02211E-02
    8985.748    -12.073  -0.760  5.23428E-02  7.50052E-02 -2.26624E-02
    8985.973    -11.848  -0.720  5.60492E-02  8.14898E-02 -2.54406E-02
    8986.187    -11.634  -0.680  6.01886E-02  8.87898E-02 -2.86013E-02
    8986.388    -11.433  -0.640  6.48190E-02  9.70107E-02 -3.21917E-02
    8986.577    -11.244  -0.600  6.99984E-02  1.06256E-01 -3.62571E-02
    8986.754    -11.067  -0.560  7.57775E-02  1.16612E-01 -4.08346E-02
    8986.918    -10.903  -0.520  8.21890E-02  1.28132E-01 -4.59429E-02
    8987.071    -10.750  -0.480  8.92328E-02  1.40802E-01 -5.15689E-02
    8987.211    -10.610  -0.440  9.68583E-02  1.54511E-01 -5.76522E-02
    8987.339    -10.482  -0.400  1.04948E-01  1.69022E-01 -6.40739E-02
    8987.455    -10.366  -0.360  1.13312E-01  1.83966E-01 -7.06543E-02
    8987.558    -10.263  -0.320  1.21693E-01  1.98862E-01 -7.71692E-02
    8987.650    -10.171  -0.280  1.29794E-01  2.13174E-01 -8.33796E-02
    8987.729    -10.092  -0.240  1.37320E-01  2.26387E-01 -8.90672E-02
    8987.796    -10.025  -0.200  1.44010E-01  2.38069E-01 -9.40590E-02
    8987.851     -9.970  -0.160  1.49666E-01  2.47901E-01 -9.82346E-02
    8987.894     -9.928  -0.120  1.54160E-01  2.55677E-01 -1.01517E-01
    8987.924     -9.897  -0.080  1.57419E-01  2.61283E-01 -1.03864E-01
    8987.949     -9.873   0.000  1.60076E-01  2.65789E-01 -1.05713E-01
    8988.003     -9.818   0.120  1.65695E-01  2.75961E-01 -1.10266E-01
    8988.046     -9.775   0.160  1.70040E-01  2.83859E-01 -1.13819E-01
    8988.101     -9.720   0.200  1.75556E-01  2.93978E-01 -1.18422E-01
    8988.168     -9.653   0.240  1.82056E-01  3.06149E-01 -1.24093E-01
    8988.247     -9.574   0.280  1.89306E-01  3.20186E-01 -1.30879E-01
    8988.339     -9.483   0.320  1.96839E-01  3.35711E-01 -1.38872E-01
    8988.442     -9.379   0.360  2.04073E-01  3.52324E-01 -1.48251E-01
    8988.558     -9.263   0.400  2.10344E-01  3.69559E-01 -1.59214E-01
    8988.686     -9.135   0.440  2.15041E-01  3.87006E-01 -1.71965E-01
    8988.826     -8.995   0.480  2.17879E-01  4.04350E-01 -1.86472E-01
    8988.979     -8.842   0.520  2.19162E-01  4.21390E-01 -2.02228E-01
    8989.143     -8.678   0.560  2.19793E-01  4.38037E-01 -2.18244E-01
    8989.320     -8.501   0.600  2.21092E-01  4.54243E-01 -2.33152E-01
    8989.509     -8.312   0.640  2.24385E-01  4.70078E-01 -2.45693E-01
    8989.710     -8.111   0.680  2.30479E-01  4.85598E-01 -2.55119E-01
    8989.924     -7.898   0.720  2.39625E-01  5.00890E-01 -2.61265E-01
    8990.149     -7.672   0.760  2.51758E-01  5.16001E-01 -2.64243E-01
    8990.387     -7.434   0.800  2.66699E-01  5.31028E-01 -2.64328E-01
    8990.637     -7.184   0.840  2.83910E-01  5.46019E-01 -2.62109E-01
    8990.899     -6.922   0.880  3.02502E-01  5.61011E-01 -2.58510E-01
    8991.173     -6.648   0.920  3.21717E-01  5.76049E-01 -2.54332E-01
    8991.460     -6.361   0.960  3.42051E-01  5.91109E-01 -2.49058E-01
    8991.759     -6.063   1.000  3.66256E-01  6.06256E-01 -2.40000E-01
    8992.069     -5.752   1.040  3.97348E-01  6.21449E-01 -2.24101E-01
    8992.393     -5.429   1.080  4.35198E-01  6.36678E-01 -2.01480E-01
    8992.728     -5.093   1.120  4.74804E-01  6.51972E-01 -1.77168E-01
    8993.075     -4.746   1.160  5.04312E-01  6.67292E-01 -1.62980E-01
    8993.435     -4.386   1.200  5.09209E-01  6.82595E-01 -1.73386E-01
    8993.807     -4.014   1.240  4.92066E-01  6.97874E-01 -2.05808E-01
    8994.191     -3.630   1.280  4.76234E-01  7.13083E-01 -2.36850E-01
    8994.587     -3.234   1.320  4.79542E-01  7.28232E-01 -2.48690E-01
    8994.996     -2.826   1.360  5.02477E-01  7.43229E-01 -2.40751E-01
    8995.416     -2.405   1.400  5.37177E-01  7.58100E-01 -2.20923E-01
    8995.849     -1.972   1.440  5.76195E-01  7.72751E-01 -1.96556E-01
    8996.294     -1.527   1.480  6.16945E-01  7.87209E-01 -1.70264E-01
    8996.751     -1.070   1.520  6.58890E-01  8.01378E-01 -1.42488E-01
    8997.221     -0.601   1.560  6.96452E-01  8.15265E-01 -1.18813E-01
    8997.702     -0.119   1.600  7.20419E-01  8.28835E-01 -1.08415E-01
    8998.196      0.375   1.640  7.32772E-01  8.42055E-01 -1.09283E-01
    8998.702      0.881   1.680  7.48798E-01  8.54871E-01 -1.06073E-01
    8999.220      1.399   1.720  7.85881E-01  8.67312E-01 -8.14309E-02
    8999.750      1.929   1.760  8.56660E-01  8.79286E-01 -2.26263E-02
    9000.293      2.472   1.800  9.63774E-01  8.90824E-01  7.29494E-02
    9000.848      3.026   1.840  1.09543E+00  9.01877E-01  1.93554E-01
    9001.415      3.593   1.880  1.23202E+00  9.12456E-01  3.19563E-01
    9001.994      4.172   1.920  1.35525E+00  9.22518E-01  4.32735E-01
    9002.585      4.764   1.960  1.43756E+00  9.32055E-01  5.05509E-01
    9003.189      5.367   2.000  1.46228E+00  9.41085E-01  5.21191E-01
    9003.804      5.983   2.040  1.44799E+00  9.49588E-01  4.98398E-01
    9004.432      6.611   2.080  1.41024E+00  9.57558E-01  4.52685E-01
    9005.072      7.251   2.120  1.34256E+00  9.65000E-01  3.77562E-01
    9005.724      7.903   2.160  1.25445E+00  9.71914E-01  2.82540E-01
    9006.389      8.568   2.200  1.18367E+00  9.78301E-01  2.05367E-01
    9007.066      9.244   2.240  1.15730E+00  9.84189E-01  1.73107E-01
    9007.754      9.933   2.280  1.16407E+00  9.89559E-01  1.74508E-01
    9008.455     10.634   2.320  1.17073E+00  9.94417E-01  1.76318E-01
    9009.169     11.347   2.360  1.16230E+00  9.98812E-01  1.63485E-01
    9009.894     12.073   2.400  1.14206E+00  1.00275E+00  1.39308E-01
    9010.632     12.810   2.440  1.10546E+00  1.00622E+00  9.92399E-02
    9011.382     13.560   2.480  1.05811E+00  1.00927E+00  4.88349E-02
    9012.144     14.322   2.520  1.01380E+00  1.01189E+00  1.91490E-03
    9012.918     15.096   2.560  9.74475E-01  1.01413E+00 -3.96515E-02
    9013.704     15.883   2.600  9.43312E-01  1.01597E+00 -7.26594E-02
    9014.503     16.681   2.640  9.33025E-01  1.01745E+00 -8.44285E-02
    9015.313     17.492   2.680  9.37144E-01  1.01861E+00 -8.14613E-02
    9016.136     18.315   2.720  9.44452E-01  1.01944E+00 -7.49835E-02
    9016.972     19.150   2.760  9.49515E-01  1.01998E+00 -7.04598E-02
    9017.819     19.998   2.800  9.50652E-01  1.02024E+00 -6.95831E-02
    9018.678     20.857   2.840  9.48683E-01  1.02025E+00 -7.15621E-02
    9019.550     21.729   2.880  9.45189E-01  1.02001E+00 -7.48252E-02
    9020.434     22.613   2.920  9.41495E-01  1.01955E+00 -7.80581E-02
    9021.330     23.509   2.960  9.38823E-01  1.01891E+00 -8.00879E-02
    9022.238     24.417   3.000  9.37391E-01  1.01808E+00 -8.06863E-02
    9023.159     25.338   3.040  9.36907E-01  1.01710E+00 -8.01961E-02
    9024.092     26.270   3.080  9.36899E-01  1.01595E+00 -7.90556E-02
    9025.036     27.215   3.120  9.36855E-01  1.01470E+00 -7.78464E-02
    9025.994     28.172   3.160  9.35920E-01  1.01333E+00 -7.74121E-02
    9026.963     29.142   3.200  9.33522E-01  1.01188E+00 -7.83527E-02
    9027.944     30.123   3.240  9.29642E-01  1.01034E+00 -8.06946E-02
    9028.938     31.117   3.280  9.24753E-01  1.00872E+00 -8.39706E-02
    9029.944     32.123   3.320  9.20120E-01  1.00706E+00 -8.69449E-02
    9030.962     33.141   3.360  9.17107E-01  1.00536E+00 -8.82579E-02
    9031.992     34.171   3.400  9.16608E-01  1.00365E+00 -8.70431E-02
    9033.034     35.213   3.440  9.18744E-01  1.00191E+00 -8.31651E-02
    9034.089     36.268   3.480  9.23134E-01  1.00016E+00 -7.70279E-02
    9035.156     37.335   3.520  9.29115E-01  9.98416E-01 -6.93012E-02
    9036.235     38.414   3.560  9.35998E-01  9.96698E-01 -6.06995E-02
    9037.326     39.505   3.600  9.43330E-01  9.94990E-01 -5.16596E-02
    9038.429     40.608   3.640  9.50905E-01  9.93317E-01 -4.24122E-02
    9039.545     41.724   3.680  9.58525E-01  9.91684E-01 -3.31583E-02
    9040.673     42.851   3.720  9.66074E-01  9.90113E-01 -2.40393E-02
    9041.813     43.991   3.760  9.73439E-01  9.88566E-01 -1.51274E-02
    9042.965     45.144   3.800  9.80542E-01  9.87086E-01 -6.54462E-03
    9044.129     46.308   3.840  9.87146E-01  9.85679E-01  1.46628E-03
    9045.306     47.484   3.880  9.92956E-01  9.84325E-01  8.63104E-03
    9046.494     48.673   3.920  9.97903E-01  9.83067E-01  1.48363E-02
    9047.695     49.874   3.960  1.00215E+00  9.81864E-01  2.02907E-02
    9048.908     51.087   4.000  1.00643E+00  9.80738E-01  2.56922E-02
    9050.134     52.312   4.040  1.01171E+00  9.79691E-01  3.20160E-02
    9051.371     53.550   4.080  1.01881E+00  9.78723E-01  4.00847E-02
    9052.621     54.800   4.120  1.02799E+00  9.77835E-01  5.01582E-02
    9053.883     56.061   4.160  1.03877E+00  9.77028E-01  6.17423E-02
    9055.157     57.335   4.200  1.05004E+00  9.76302E-01  7.37356E-02
    9056.443     58.622   4.240  1.06056E+00  9.75679E-01  8.48798E-02
    9057.741     59.920   4.280  1.06935E+00  9.75118E-01  9.42300E-02
    9059.052     61.231   4.320  1.07580E+00  9.74659E-01  1.01138E-01
    9060.375     62.554   4.360  1.07925E+00  9.74282E-01  1.04969E-01
    9061.710     63.889   4.400  1.07896E+00  9.73985E-01  1.04971E-01
    9063.057     65.236   4.440  1.07431E+00  9.73767E-01  1.00543E-01
    9064.416     66.595   4.480  1.06519E+00  9.73605E-01  9.15851E-02
    9065.788     67.967   4.520  1.05238E+00  9.73542E-01  7.88373E-02
    9067.172     69.351   4.560  1.03738E+00  9.73557E-01  6.38257E-02
    9068.568     70.747   4.600  1.02186E+00  9.73626E-01  4.82380E-02
    9069.976     72.155   4.640  1.00725E+00  9.73769E-01  3.34805E-02
    9071.396     73.575   4.680  9.94427E-01  9.73985E-01  2.04427E-02
    9072.829     75.008   4.720  9.83647E-01  9.74250E-01  9.39679E-03
    9074.274     76.452   4.760  9.74680E-01  9.74585E-01  9.54557E-05
    9075.731     77.909   4.800  9.66906E-01  9.74967E-01 -8.06108E-03
    9077.200     79.379   4.840  9.59627E-01  9.75415E-01 -1.57874E-02
    9078.681     80.860   4.880  9.52312E-01  9.75883E-01 -2.35713E-02
    9080.175     82.353   4.920  9.44895E-01  9.76413E-01 -3.15177E-02
    9081.680     83.859   4.960  9.37602E-01  9.76960E-01 -3.93581E-02
    9083.198     85.377   5.000  9.31015E-01  9.77565E-01 -4.65508E-02
    9084.728     86.907   5.040  9.25651E-01  9.78182E-01 -5.25315E-02
    9086.271     88.449   5.080  9.22081E-01  9.78809E-01 -5.67286E-02
    9087.825     90.004   5.120  9.20826E-01  9.79488E-01 -5.86627E-02
    9089.392     91.570   5.160  9.22018E-01  9.80153E-01 -5.81357E-02
    9090.971     93.149   5.200  9.25517E-01  9.80842E-01 -5.53254E-02
    9092.562     94.740   5.240  9.30803E-01  9.81534E-01 -5.07303E-02
    9094.165     96.344   5.280  9.37370E-01  9.82224E-01 -4.48535E-02
    9095.780     97.959   5.320  9.44743E-01  9.82888E-01 -3.81449E-02
    9097.408     99.587   5.360  9.52485E-01  9.83571E-01 -3.10866E-02
    9099.048    101.226   5.400  9.59951E-01  9.84228E-01 -2.42761E-02
    9100.700    102.878   5.440  9.66602E-01  9.84874E-01 -1.82722E-02
    9102.364    104.543   5.480  9.72023E-01  9.85489E-01 -1.34662E-02
    9104.040    106.219   5.520  9.76016E-01  9.86092E-01 -1.00764E-02
    9105.729    107.908   5.560  9.78326E-01  9.86658E-01 -8.33165E-03
    9107.430    109.608   5.600  9.78653E-01  9.87162E-01 -8.50892E-03
    9109.143    111.321   5.640  9.76995E-01  9.87649E-01 -1.06540E-02
    9110.868    113.047   5.680  9.73948E-01  9.88097E-01 -1.41488E-02
    9112.605    114.784   5.720  9.70756E-01  9.88505E-01 -1.77488E-02
    9114.355    116.533   5.760  9.68660E-01  9.88872E-01 -2.02116E-02
    9116.116    118.295   5.800  9.68230E-01  9.89193E-01 -2.09638E-02
    9117.890    120.069   5.840  9.69224E-01  9.89446E-01 -2.02219E-02
    9119.677    121.855   5.880  9.71084E-01  9.89650E-01 -1.85657E-02
    9121.475    123.654   5.920  9.73423E-01  9.89781E-01 -1.63573E-02
    9123.285    125.464   5.960  9.76422E-01  9.89856E-01 -1.34339E-02
    9125.108    127.287   6.000  9.80732E-01  9.89852E-01 -9.11995E-03
