# # comment:                                                     FEFF 9.9.1  
# # Source:
# # Structure
# # Reduced
# # space
# # abc:
# # angles:
# # sites:
# # POT  SCF 100  7.0000   0, screened core-hole, AFOLP (folp(0)= 1.150)
# # Abs   Z=29 Rmt= 1.123 Rnm= 1.266 K  shell
# # Pot 1 Z=19 Rmt= 1.971 Rnm= 2.015
# # Pot 2 Z=29 Rmt= 1.123 Rnm= 1.266
# # Pot 3 Z=16 Rmt= 0.854 Rnm= 1.107
# # Pot 4 Z= 8 Rmt= 0.969 Rnm= 1.121
# # Gam_ch=1.729E+00 H-L exch Vi= 0.000E+00 Vr= 0.000E+00
# # Mu=-7.046E+00eV kf=2.300E+00 Vint=-1.455E+01eV Rs_int= 1.576
# FMS rfms= 9.0000
# # PATH  Rmax=-1.000,  Keep_limit= 0.00, Heap_limit 0.00  Pwcrit= 2.50%
#  S02=0.950  Temp=   0.00  Debye_temp=   0.00  Global_sig2= 0.00000
#  Energy zero shift, vr, vi    0.00000E+00   0.00000E+00
#  Curved wave amplitude ratio filter   4.000%
#     file         sig2 tot  cw amp ratio   deg  nlegs   reff  inp sig2
#     0/   0 paths used
#  xsedge+ 50, used to normalize mu           2.4260E-04
#  -----------------------------------------------------------------------
#  omega    e    k    mu    mu0     chi     @#
    8983.480    -10.856  -1.000  3.30503E-02  5.63126E-02 -2.32623E-02
    8983.779    -10.557  -0.960  3.45199E-02  6.03921E-02 -2.58722E-02
    8984.065    -10.271  -0.920  3.60772E-02  6.49202E-02 -2.88429E-02
    8984.340     -9.996  -0.880  3.77305E-02  6.99620E-02 -3.22316E-02
    8984.602     -9.734  -0.840  3.94888E-02  7.55936E-02 -3.61047E-02
    8984.852     -9.484  -0.800  4.13630E-02  8.19024E-02 -4.05394E-02
    8985.089     -9.247  -0.760  4.33652E-02  8.89891E-02 -4.56239E-02
    8985.315     -9.021  -0.720  4.55092E-02  9.69670E-02 -5.14578E-02
    8985.528     -8.808  -0.680  4.78101E-02  1.05961E-01 -5.81507E-02
    8985.730     -8.606  -0.640  5.02837E-02  1.16102E-01 -6.58181E-02
    8985.918     -8.417  -0.600  5.29448E-02  1.27519E-01 -7.45740E-02
    8986.095     -8.241  -0.560  5.58047E-02  1.40321E-01 -8.45165E-02
    8986.260     -8.076  -0.520  5.88664E-02  1.54573E-01 -9.57071E-02
    8986.412     -7.924  -0.480  6.21195E-02  1.70260E-01 -1.08140E-01
    8986.552     -7.783  -0.440  6.55323E-02  1.87243E-01 -1.21710E-01
    8986.680     -7.655  -0.400  6.90471E-02  2.05229E-01 -1.36182E-01
    8986.796     -7.540  -0.360  7.25788E-02  2.23760E-01 -1.51181E-01
    8986.900     -7.436  -0.320  7.60217E-02  2.42237E-01 -1.66215E-01
    8986.991     -7.345  -0.280  7.92635E-02  2.59995E-01 -1.80732E-01
    8987.071     -7.265  -0.240  8.22021E-02  2.76395E-01 -1.94193E-01
    8987.138     -7.198  -0.200  8.47593E-02  2.90898E-01 -2.06139E-01
    8987.193     -7.143  -0.160  8.68854E-02  3.03107E-01 -2.16222E-01
    8987.235     -7.101  -0.120  8.85561E-02  3.12765E-01 -2.24209E-01
    8987.266     -7.070  -0.080  8.97627E-02  3.19727E-01 -2.29964E-01
    8987.290     -7.046   0.000  9.07558E-02  3.25323E-01 -2.34567E-01
    8987.345     -6.991   0.120  9.28924E-02  3.37962E-01 -2.45069E-01
    8987.388     -6.948   0.160  9.44725E-02  3.47779E-01 -2.53306E-01
    8987.442     -6.893   0.200  9.64208E-02  3.60345E-01 -2.63925E-01
    8987.510     -6.826   0.240  9.87051E-02  3.75487E-01 -2.76782E-01
    8987.589     -6.747   0.280  1.01256E-01  3.92946E-01 -2.91690E-01
    8987.680     -6.656   0.320  1.03941E-01  4.12246E-01 -3.08306E-01
    8987.784     -6.552   0.360  1.06795E-01  4.32933E-01 -3.26139E-01
    8987.900     -6.436   0.400  1.09776E-01  4.54392E-01 -3.44616E-01
    8988.028     -6.308   0.440  1.13011E-01  4.76117E-01 -3.63105E-01
    8988.168     -6.168   0.480  1.16719E-01  4.97714E-01 -3.80995E-01
    8988.320     -6.016   0.520  1.21126E-01  5.18933E-01 -3.97807E-01
    8988.485     -5.851   0.560  1.26392E-01  5.39594E-01 -4.13202E-01
    8988.662     -5.674   0.600  1.32578E-01  5.59724E-01 -4.27146E-01
    8988.851     -5.485   0.640  1.39503E-01  5.79310E-01 -4.39807E-01
    8989.052     -5.284   0.680  1.47074E-01  5.98419E-01 -4.51345E-01
    8989.265     -5.071   0.720  1.55524E-01  6.17148E-01 -4.61624E-01
    8989.491     -4.845   0.760  1.65620E-01  6.35550E-01 -4.69930E-01
    8989.728     -4.607   0.800  1.78817E-01  6.53691E-01 -4.74875E-01
    8989.978     -4.358   0.840  1.96987E-01  6.71622E-01 -4.74635E-01
    8990.241     -4.095   0.880  2.22200E-01  6.89378E-01 -4.67178E-01
    8990.515     -3.821   0.920  2.56229E-01  7.06942E-01 -4.50713E-01
    8990.801     -3.535   0.960  2.99968E-01  7.24326E-01 -4.24358E-01
    8991.100     -3.236   1.000  3.53605E-01  7.41529E-01 -3.87924E-01
    8991.411     -2.925   1.040  4.17692E-01  7.58523E-01 -3.40831E-01
    8991.734     -2.602   1.080  4.89983E-01  7.75292E-01 -2.85309E-01
    8992.069     -2.267   1.120  5.56414E-01  7.91773E-01 -2.35359E-01
    8992.417     -1.919   1.160  5.94504E-01  8.07982E-01 -2.13478E-01
    8992.776     -1.559   1.200  5.99807E-01  8.23827E-01 -2.24020E-01
    8993.148     -1.188   1.240  5.94059E-01  8.39278E-01 -2.45219E-01
    8993.532     -0.804   1.280  6.00246E-01  8.54322E-01 -2.54076E-01
    8993.929     -0.407   1.320  6.23286E-01  8.68904E-01 -2.45618E-01
    8994.337      0.001   1.360  6.51048E-01  8.82970E-01 -2.31922E-01
    8994.758      0.422   1.400  6.71594E-01  8.96508E-01 -2.24915E-01
    8995.190      0.855   1.440  6.83189E-01  9.09465E-01 -2.26276E-01
    8995.635      1.300   1.480  6.92700E-01  9.21853E-01 -2.29153E-01
    8996.093      1.757   1.520  7.09283E-01  9.33599E-01 -2.24315E-01
    8996.562      2.226   1.560  7.31200E-01  9.44717E-01 -2.13517E-01
    8997.044      2.708   1.600  7.47875E-01  9.55183E-01 -2.07308E-01
    8997.537      3.201   1.640  7.55980E-01  9.64972E-01 -2.08992E-01
    8998.043      3.707   1.680  7.67021E-01  9.74105E-01 -2.07084E-01
    8998.562      4.226   1.720  7.91734E-01  9.82582E-01 -1.90849E-01
    8999.092      4.756   1.760  8.27474E-01  9.90386E-01 -1.62912E-01
    8999.634      5.298   1.800  8.70807E-01  9.97521E-01 -1.26713E-01
    9000.189      5.853   1.840  9.28013E-01  1.00401E+00 -7.60007E-02
    9000.756      6.420   1.880  1.00243E+00  1.00987E+00 -7.44716E-03
    9001.335      6.999   1.920  1.07670E+00  1.01513E+00  6.15658E-02
    9001.927      7.591   1.960  1.12856E+00  1.01977E+00  1.08788E-01
    9002.530      8.194   2.000  1.16245E+00  1.02386E+00  1.38591E-01
    9003.146      8.810   2.040  1.20145E+00  1.02739E+00  1.74060E-01
    9003.774      9.438   2.080  1.25878E+00  1.03039E+00  2.28387E-01
    9004.414     10.078   2.120  1.32025E+00  1.03292E+00  2.87330E-01
    9005.066     10.730   2.160  1.35902E+00  1.03496E+00  3.24063E-01
    9005.730     11.394   2.200  1.36583E+00  1.03658E+00  3.29248E-01
    9006.407     12.071   2.240  1.35688E+00  1.03778E+00  3.19103E-01
    9007.096     12.760   2.280  1.35412E+00  1.03859E+00  3.15532E-01
    9007.797     13.461   2.320  1.35487E+00  1.03906E+00  3.15806E-01
    9008.510     14.174   2.360  1.34428E+00  1.03920E+00  3.05082E-01
    9009.236     14.900   2.400  1.31766E+00  1.03904E+00  2.78620E-01
    9009.973     15.637   2.440  1.28175E+00  1.03860E+00  2.43148E-01
    9010.723     16.387   2.480  1.24520E+00  1.03793E+00  2.07265E-01
    9011.485     17.149   2.520  1.21432E+00  1.03703E+00  1.77291E-01
    9012.259     17.923   2.560  1.19556E+00  1.03595E+00  1.59612E-01
    9013.046     18.710   2.600  1.18738E+00  1.03470E+00  1.52685E-01
    9013.844     19.508   2.640  1.18360E+00  1.03331E+00  1.50292E-01
    9014.655     20.319   2.680  1.18178E+00  1.03177E+00  1.50003E-01
    9015.478     21.142   2.720  1.17232E+00  1.03014E+00  1.42181E-01
    9016.313     21.977   2.760  1.15840E+00  1.02843E+00  1.29975E-01
    9017.160     22.824   2.800  1.14181E+00  1.02665E+00  1.15157E-01
    9018.020     23.684   2.840  1.12327E+00  1.02481E+00  9.84645E-02
    9018.892     24.556   2.880  1.10330E+00  1.02295E+00  8.03469E-02
    9019.776     25.440   2.920  1.08202E+00  1.02106E+00  6.09666E-02
    9020.672     26.336   2.960  1.05949E+00  1.01913E+00  4.03585E-02
    9021.580     27.244   3.000  1.03601E+00  1.01723E+00  1.87745E-02
    9022.500     28.164   3.040  1.01193E+00  1.01536E+00 -3.43227E-03
    9023.433     29.097   3.080  9.88050E-01  1.01351E+00 -2.54581E-02
    9024.378     30.042   3.120  9.65353E-01  1.01169E+00 -4.63375E-02
    9025.335     30.999   3.160  9.44673E-01  1.00994E+00 -6.52633E-02
    9026.304     31.968   3.200  9.26603E-01  1.00823E+00 -8.16262E-02
    9027.286     32.950   3.240  9.11547E-01  1.00657E+00 -9.50245E-02
    9028.279     33.943   3.280  8.99148E-01  1.00499E+00 -1.05842E-01
    9029.285     34.949   3.320  8.88644E-01  1.00349E+00 -1.14841E-01
    9030.303     35.967   3.360  8.79420E-01  1.00206E+00 -1.22642E-01
    9031.333     36.998   3.400  8.71128E-01  1.00072E+00 -1.29593E-01
    9032.376     38.040   3.440  8.63799E-01  9.99465E-01 -1.35666E-01
    9033.431     39.095   3.480  8.57668E-01  9.98318E-01 -1.40651E-01
    9034.497     40.161   3.520  8.53098E-01  9.97260E-01 -1.44162E-01
    9035.576     41.240   3.560  8.50203E-01  9.96289E-01 -1.46086E-01
    9036.667     42.332   3.600  8.49391E-01  9.95430E-01 -1.46038E-01
    9037.771     43.435   3.640  8.51299E-01  9.94661E-01 -1.43362E-01
    9038.886     44.550   3.680  8.56557E-01  9.94005E-01 -1.37449E-01
    9040.014     45.678   3.720  8.65378E-01  9.93441E-01 -1.28062E-01
    9041.154     46.818   3.760  8.77573E-01  9.92990E-01 -1.15417E-01
    9042.306     47.970   3.800  8.92404E-01  9.92652E-01 -1.00248E-01
    9043.471     49.135   3.840  9.08603E-01  9.92382E-01 -8.37789E-02
    9044.647     50.311   3.880  9.25070E-01  9.92244E-01 -6.71745E-02
    9045.836     51.500   3.920  9.40775E-01  9.92174E-01 -5.13994E-02
    9047.037     52.701   3.960  9.55053E-01  9.92213E-01 -3.71603E-02
    9048.250     53.914   4.000  9.67542E-01  9.92342E-01 -2.47994E-02
    9049.475     55.139   4.040  9.78312E-01  9.92577E-01 -1.42648E-02
    9050.713     56.377   4.080  9.87515E-01  9.92897E-01 -5.38158E-03
    9051.962     57.626   4.120  9.95318E-01  9.93279E-01  2.03944E-03
    9053.224     58.888   4.160  1.00196E+00  9.93763E-01  8.19438E-03
    9054.498     60.162   4.200  1.00772E+00  9.94327E-01  1.33905E-02
    9055.784     61.448   4.240  1.01298E+00  9.94949E-01  1.80289E-02
    9057.083     62.747   4.280  1.01841E+00  9.95669E-01  2.27450E-02
    9058.394     64.058   4.320  1.02463E+00  9.96441E-01  2.81907E-02
    9059.716     65.380   4.360  1.03209E+00  9.97262E-01  3.48332E-02
    9061.051     66.715   4.400  1.04100E+00  9.98153E-01  4.28458E-02
    9062.399     68.063   4.440  1.05110E+00  9.99088E-01  5.20076E-02
    9063.758     69.422   4.480  1.06174E+00  1.00007E+00  6.16724E-02
    9065.130     70.794   4.520  1.07203E+00  1.00109E+00  7.09415E-02
    9066.513     72.177   4.560  1.08120E+00  1.00214E+00  7.90619E-02
    9067.909     73.573   4.600  1.08866E+00  1.00323E+00  8.54252E-02
    9069.318     74.982   4.640  1.09384E+00  1.00434E+00  8.95027E-02
    9070.738     76.402   4.680  1.09628E+00  1.00547E+00  9.08093E-02
    9072.170     77.834   4.720  1.09553E+00  1.00661E+00  8.89150E-02
    9073.615     79.279   4.760  1.09141E+00  1.00778E+00  8.36297E-02
    9075.072     80.736   4.800  1.08417E+00  1.00893E+00  7.52461E-02
    9076.541     82.205   4.840  1.07453E+00  1.01009E+00  6.44349E-02
    9078.023     83.687   4.880  1.06349E+00  1.01123E+00  5.22568E-02
    9079.516     85.180   4.920  1.05233E+00  1.01236E+00  3.99681E-02
    9081.022     86.686   4.960  1.04223E+00  1.01349E+00  2.87440E-02
    9082.540     88.204   5.000  1.03405E+00  1.01455E+00  1.94936E-02
    9084.070     89.734   5.040  1.02841E+00  1.01563E+00  1.27795E-02
    9085.612     91.276   5.080  1.02545E+00  1.01664E+00  8.81310E-03
    9087.167     92.831   5.120  1.02503E+00  1.01761E+00  7.41799E-03
    9088.733     94.397   5.160  1.02651E+00  1.01857E+00  7.94412E-03
    9090.312     95.976   5.200  1.02883E+00  1.01945E+00  9.37225E-03
    9091.903     97.567   5.240  1.03092E+00  1.02029E+00  1.06296E-02
    9093.506     99.170   5.280  1.03203E+00  1.02108E+00  1.09477E-02
    9095.122    100.786   5.320  1.03172E+00  1.02180E+00  9.91381E-03
    9096.749    102.413   5.360  1.02972E+00  1.02244E+00  7.27772E-03
    9098.389    104.053   5.400  1.02588E+00  1.02304E+00  2.84376E-03
    9100.041    105.705   5.440  1.02020E+00  1.02357E+00 -3.37215E-03
    9101.705    107.369   5.480  1.01307E+00  1.02401E+00 -1.09379E-02
    9103.382    109.046   5.520  1.00530E+00  1.02439E+00 -1.90972E-02
    9105.070    110.734   5.560  9.97704E-01  1.02470E+00 -2.69951E-02
    9106.771    112.435   5.600  9.91082E-01  1.02495E+00 -3.38660E-02
    9108.484    114.148   5.640  9.85878E-01  1.02510E+00 -3.92178E-02
    9110.209    115.873   5.680  9.82456E-01  1.02519E+00 -4.27305E-02
    9111.947    117.611   5.720  9.80862E-01  1.02520E+00 -4.43343E-02
    9113.696    119.360   5.760  9.80851E-01  1.02510E+00 -4.42523E-02
    9115.458    121.122   5.800  9.81919E-01  1.02496E+00 -4.30372E-02
    9117.232    122.896   5.840  9.83341E-01  1.02476E+00 -4.14160E-02
    9119.018    124.682   5.880  9.84485E-01  1.02446E+00 -3.99740E-02
    9120.816    126.480   5.920  9.85233E-01  1.02411E+00 -3.88736E-02
    9122.627    128.291   5.960  9.85890E-01  1.02367E+00 -3.77811E-02
    9124.449    130.114   6.000  9.87183E-01  1.02310E+00 -3.59152E-02
