# # comment:                                                     FEFF 9.9.1  
# # Source:
# # Structure
# # Reduced
# # space
# # abc:
# # angles:145.146053
# # sites:
# # POT  SCF 100  7.0000   0, screened core-hole, AFOLP (folp(0)= 1.150)
# # Abs   Z=29 Rmt= 1.311 Rnm= 1.381 K  shell
# # Pot 1 Z=58 Rmt= 1.671 Rnm= 1.765
# # Pot 2 Z=29 Rmt= 1.297 Rnm= 1.365
# # Pot 3 Z=16 Rmt= 1.420 Rnm= 1.488
# # Pot 4 Z= 8 Rmt= 1.027 Rnm= 1.100
# # Gam_ch=1.729E+00 H-L exch Vi= 0.000E+00 Vr= 0.000E+00
# # Mu=-7.372E+00eV kf=2.000E+00 Vint=-1.731E+01eV Rs_int= 1.813
# FMS rfms= 9.0000
# # PATH  Rmax=-1.000,  Keep_limit= 0.00, Heap_limit 0.00  Pwcrit= 2.50%
#  S02=0.950  Temp=   0.00  Debye_temp=   0.00  Global_sig2= 0.00000
#  Energy zero shift, vr, vi    0.00000E+00   0.00000E+00
#  Curved wave amplitude ratio filter   4.000%
#     file         sig2 tot  cw amp ratio   deg  nlegs   reff  inp sig2
#     0/   0 paths used
#  xsedge+ 50, used to normalize mu           2.4590E-04
#  -----------------------------------------------------------------------
#  omega    e    k    mu    mu0     chi     @#
    8984.198    -11.182  -1.000  4.99297E-02  5.90586E-02 -9.12891E-03
    8984.497    -10.884  -0.960  5.30564E-02  6.35049E-02 -1.04485E-02
    8984.784    -10.597  -0.920  5.64645E-02  6.84590E-02 -1.19945E-02
    8985.058    -10.323  -0.880  6.01872E-02  7.39965E-02 -1.38092E-02
    8985.320    -10.061  -0.840  6.42628E-02  8.02059E-02 -1.59431E-02
    8985.570     -9.811  -0.800  6.87341E-02  8.71899E-02 -1.84558E-02
    8985.808     -9.573  -0.760  7.36493E-02  9.50662E-02 -2.14170E-02
    8986.033     -9.347  -0.720  7.90614E-02  1.03968E-01 -2.49069E-02
    8986.247     -9.134  -0.680  8.50274E-02  1.14043E-01 -2.90158E-02
    8986.448     -8.933  -0.640  9.16052E-02  1.25446E-01 -3.38412E-02
    8986.637     -8.744  -0.600  9.88492E-02  1.38331E-01 -3.94815E-02
    8986.814     -8.567  -0.560  1.06802E-01  1.52827E-01 -4.60256E-02
    8986.978     -8.402  -0.520  1.15480E-01  1.69015E-01 -5.35348E-02
    8987.131     -8.250  -0.480  1.24860E-01  1.86878E-01 -6.20187E-02
    8987.271     -8.110  -0.440  1.34853E-01  2.06260E-01 -7.14068E-02
    8987.399     -7.982  -0.400  1.45295E-01  2.26819E-01 -8.15240E-02
    8987.515     -7.866  -0.360  1.55938E-01  2.48020E-01 -9.20818E-02
    8987.618     -7.762  -0.320  1.66467E-01  2.69165E-01 -1.02698E-01
    8987.710     -7.671  -0.280  1.76538E-01  2.89483E-01 -1.12945E-01
    8987.789     -7.592  -0.240  1.85820E-01  3.08231E-01 -1.22411E-01
    8987.856     -7.525  -0.200  1.94033E-01  3.24791E-01 -1.30758E-01
    8987.911     -7.470  -0.160  2.00964E-01  3.38711E-01 -1.37747E-01
    8987.954     -7.427  -0.120  2.06466E-01  3.49708E-01 -1.43242E-01
    8987.984     -7.397  -0.080  2.10445E-01  3.57625E-01 -1.47180E-01
    8988.008     -7.372   0.000  2.13654E-01  3.63982E-01 -1.50328E-01
    8988.063     -7.317   0.120  2.21133E-01  3.78324E-01 -1.57191E-01
    8988.106     -7.275   0.160  2.26911E-01  3.89429E-01 -1.62518E-01
    8988.161     -7.220   0.200  2.34393E-01  4.03617E-01 -1.69225E-01
    8988.228     -7.153   0.240  2.43537E-01  4.20639E-01 -1.77102E-01
    8988.307     -7.074   0.280  2.54365E-01  4.40153E-01 -1.85788E-01
    8988.399     -6.982   0.320  2.66848E-01  4.61612E-01 -1.94764E-01
    8988.502     -6.878   0.360  2.81047E-01  4.84347E-01 -2.03300E-01
    8988.618     -6.763   0.400  2.97128E-01  5.07688E-01 -2.10560E-01
    8988.746     -6.635   0.440  3.15383E-01  5.30966E-01 -2.15583E-01
    8988.886     -6.494   0.480  3.36240E-01  5.53692E-01 -2.17452E-01
    8989.039     -6.342   0.520  3.60125E-01  5.75558E-01 -2.15432E-01
    8989.203     -6.177   0.560  3.87172E-01  5.96378E-01 -2.09206E-01
    8989.380     -6.001   0.600  4.17108E-01  6.16137E-01 -1.99029E-01
    8989.569     -5.812   0.640  4.48983E-01  6.34903E-01 -1.85921E-01
    8989.770     -5.611   0.680  4.81211E-01  6.52749E-01 -1.71538E-01
    8989.984     -5.397   0.720  5.12110E-01  6.69783E-01 -1.57673E-01
    8990.209     -5.172   0.760  5.40602E-01  6.86134E-01 -1.45532E-01
    8990.447     -4.934   0.800  5.66192E-01  7.01901E-01 -1.35709E-01
    8990.697     -4.684   0.840  5.88027E-01  7.17144E-01 -1.29117E-01
    8990.959     -4.422   0.880  6.04792E-01  7.31951E-01 -1.27158E-01
    8991.233     -4.147   0.920  6.16594E-01  7.46354E-01 -1.29760E-01
    8991.520     -3.861   0.960  6.27610E-01  7.60411E-01 -1.32801E-01
    8991.818     -3.562   1.000  6.44661E-01  7.74125E-01 -1.29463E-01
    8992.129     -3.251   1.040  6.71490E-01  7.87510E-01 -1.16020E-01
    8992.452     -2.928   1.080  7.06291E-01  8.00597E-01 -9.43056E-02
    8992.788     -2.593   1.120  7.47702E-01  8.13361E-01 -6.56593E-02
    8993.135     -2.246   1.160  8.01030E-01  8.25797E-01 -2.47676E-02
    8993.495     -1.886   1.200  8.74251E-01  8.37894E-01  3.63574E-02
    8993.867     -1.514   1.240  9.69541E-01  8.49658E-01  1.19883E-01
    8994.251     -1.130   1.280  1.07530E+00  8.61072E-01  2.14223E-01
    8994.647     -0.734   1.320  1.15998E+00  8.72097E-01  2.87884E-01
    8995.055     -0.325   1.360  1.19178E+00  8.82733E-01  3.09049E-01
    8995.476      0.095   1.400  1.17297E+00  8.92958E-01  2.80010E-01
    8995.909      0.528   1.440  1.12961E+00  9.02793E-01  2.26819E-01
    8996.354      0.973   1.480  1.08289E+00  9.12176E-01  1.70717E-01
    8996.811      1.430   1.520  1.04138E+00  9.21125E-01  1.20251E-01
    8997.280      1.900   1.560  1.00554E+00  9.29640E-01  7.59002E-02
    8997.762      2.381   1.600  9.75003E-01  9.37682E-01  3.73211E-02
    8998.256      2.875   1.640  9.54409E-01  9.45290E-01  9.11952E-03
    8998.762      3.381   1.680  9.52337E-01  9.52427E-01 -9.06632E-05
    8999.280      3.899   1.720  9.71439E-01  9.59116E-01  1.23229E-02
    8999.810      4.430   1.760  1.00429E+00  9.65359E-01  3.89275E-02
    9000.353      4.972   1.800  1.03430E+00  9.71140E-01  6.31550E-02
    9000.908      5.527   1.840  1.04804E+00  9.76485E-01  7.15569E-02
    9001.474      6.094   1.880  1.05327E+00  9.81399E-01  7.18758E-02
    9002.054      6.673   1.920  1.06315E+00  9.85888E-01  7.72660E-02
    9002.645      7.264   1.960  1.07334E+00  9.89960E-01  8.33834E-02
    9003.248      7.868   2.000  1.07032E+00  9.93641E-01  7.66810E-02
    9003.864      8.483   2.040  1.04967E+00  9.96942E-01  5.27258E-02
    9004.492      9.111   2.080  1.01379E+00  9.99890E-01  1.38959E-02
    9005.132      9.751   2.120  9.72534E-01  1.00248E+00 -2.99414E-02
    9005.784     10.404   2.160  9.43005E-01  1.00473E+00 -6.17207E-02
    9006.449     11.068   2.200  9.38329E-01  1.00667E+00 -6.83421E-02
    9007.125     11.745   2.240  9.62827E-01  1.00832E+00 -4.54953E-02
    9007.814     12.434   2.280  1.01426E+00  1.00969E+00  4.57745E-03
    9008.515     13.135   2.320  1.08430E+00  1.01080E+00  7.34998E-02
    9009.229     13.848   2.360  1.15966E+00  1.01168E+00  1.47981E-01
    9009.954     14.573   2.400  1.22652E+00  1.01232E+00  2.14198E-01
    9010.692     15.311   2.440  1.24653E+00  1.01276E+00  2.33767E-01
    9011.441     16.061   2.480  1.21971E+00  1.01300E+00  2.06711E-01
    9012.203     16.823   2.520  1.16944E+00  1.01308E+00  1.56354E-01
    9012.978     17.597   2.560  1.11444E+00  1.01301E+00  1.01427E-01
    9013.764     18.383   2.600  1.06382E+00  1.01278E+00  5.10370E-02
    9014.563     19.182   2.640  1.01986E+00  1.01245E+00  7.41446E-03
    9015.373     19.993   2.680  9.82635E-01  1.01200E+00 -2.93622E-02
    9016.196     20.816   2.720  9.52306E-01  1.01146E+00 -5.91503E-02
    9017.031     21.651   2.760  9.28972E-01  1.01083E+00 -8.18594E-02
    9017.879     22.498   2.800  9.13290E-01  1.01013E+00 -9.68385E-02
    9018.738     23.358   2.840  9.05538E-01  1.00938E+00 -1.03838E-01
    9019.610     24.229   2.880  9.04980E-01  1.00858E+00 -1.03600E-01
    9020.494     25.113   2.920  9.08888E-01  1.00776E+00 -9.88766E-02
    9021.390     26.009   2.960  9.14311E-01  1.00689E+00 -9.25838E-02
    9022.298     26.918   3.000  9.19534E-01  1.00604E+00 -8.65015E-02
    9023.219     27.838   3.040  9.24340E-01  1.00515E+00 -8.08095E-02
    9024.151     28.771   3.080  9.29550E-01  1.00426E+00 -7.47134E-02
    9025.096     29.716   3.120  9.35762E-01  1.00340E+00 -6.76380E-02
    9026.053     30.673   3.160  9.43232E-01  1.00254E+00 -5.93120E-02
    9027.023     31.642   3.200  9.51444E-01  1.00172E+00 -5.02743E-02
    9028.004     32.623   3.240  9.59596E-01  1.00090E+00 -4.13065E-02
    9028.998     33.617   3.280  9.66876E-01  1.00012E+00 -3.32466E-02
    9030.004     34.623   3.320  9.72668E-01  9.99381E-01 -2.67132E-02
    9031.022     35.641   3.360  9.76503E-01  9.98699E-01 -2.21967E-02
    9032.052     36.671   3.400  9.78278E-01  9.98037E-01 -1.97588E-02
    9033.094     37.714   3.440  9.78430E-01  9.97417E-01 -1.89870E-02
    9034.149     38.768   3.480  9.77746E-01  9.96863E-01 -1.91161E-02
    9035.216     39.835   3.520  9.77028E-01  9.96353E-01 -1.93249E-02
    9036.295     40.914   3.560  9.76940E-01  9.95909E-01 -1.89688E-02
    9037.386     42.005   3.600  9.77707E-01  9.95490E-01 -1.77830E-02
    9038.489     43.109   3.640  9.79459E-01  9.95138E-01 -1.56786E-02
    9039.605     44.224   3.680  9.82398E-01  9.94854E-01 -1.24553E-02
    9040.733     45.352   3.720  9.87035E-01  9.94617E-01 -7.58234E-03
    9041.872     46.492   3.760  9.93990E-01  9.94425E-01 -4.35032E-04
    9043.025     47.644   3.800  1.00363E+00  9.94278E-01  9.34792E-03
    9044.189     48.808   3.840  1.01573E+00  9.94199E-01  2.15287E-02
    9045.365     49.985   3.880  1.02938E+00  9.94166E-01  3.52125E-02
    9046.554     51.173   3.920  1.04338E+00  9.94199E-01  4.91806E-02
    9047.755     52.374   3.960  1.05635E+00  9.94275E-01  6.20778E-02
    9048.968     53.587   4.000  1.06710E+00  9.94372E-01  7.27282E-02
    9050.193     54.813   4.040  1.07476E+00  9.94531E-01  8.02302E-02
    9051.431     56.050   4.080  1.07858E+00  9.94731E-01  8.38475E-02
    9052.681     57.300   4.120  1.07803E+00  9.94971E-01  8.30550E-02
    9053.943     58.562   4.160  1.07321E+00  9.95251E-01  7.79563E-02
    9055.217     59.836   4.200  1.06497E+00  9.95567E-01  6.94065E-02
    9056.503     61.122   4.240  1.05470E+00  9.95918E-01  5.87783E-02
    9057.801     62.421   4.280  1.04362E+00  9.96281E-01  4.73425E-02
    9059.112     63.731   4.320  1.03261E+00  9.96676E-01  3.59309E-02
    9060.435     65.054   4.360  1.02203E+00  9.97079E-01  2.49517E-02
    9061.770     66.389   4.400  1.01194E+00  9.97512E-01  1.44278E-02
    9063.117     67.736   4.440  1.00216E+00  9.97953E-01  4.20662E-03
    9064.476     69.096   4.480  9.92472E-01  9.98420E-01 -5.94787E-03
    9065.848     70.467   4.520  9.82733E-01  9.98891E-01 -1.61582E-02
    9067.232     71.851   4.560  9.73235E-01  9.99363E-01 -2.61276E-02
    9068.628     73.247   4.600  9.64775E-01  9.99834E-01 -3.50588E-02
    9070.036     74.655   4.640  9.58310E-01  1.00030E+00 -4.19920E-02
    9071.456     76.076   4.680  9.54445E-01  1.00074E+00 -4.63001E-02
    9072.889     77.508   4.720  9.53207E-01  1.00120E+00 -4.79973E-02
    9074.334     78.953   4.760  9.53985E-01  1.00164E+00 -4.76549E-02
    9075.790     80.410   4.800  9.56012E-01  1.00209E+00 -4.60777E-02
    9077.260     81.879   4.840  9.58384E-01  1.00249E+00 -4.41019E-02
    9078.741     83.360   4.880  9.60388E-01  1.00287E+00 -4.24847E-02
    9080.234     84.854   4.920  9.61456E-01  1.00325E+00 -4.17929E-02
    9081.740     86.359   4.960  9.61284E-01  1.00359E+00 -4.23071E-02
    9083.258     87.877   5.000  9.59933E-01  1.00390E+00 -4.39651E-02
    9084.788     89.407   5.040  9.57755E-01  1.00419E+00 -4.64370E-02
    9086.330     90.950   5.080  9.55197E-01  1.00445E+00 -4.92509E-02
    9087.885     92.504   5.120  9.52824E-01  1.00466E+00 -5.18413E-02
    9089.452     94.071   5.160  9.51411E-01  1.00484E+00 -5.34320E-02
    9091.030     95.650   5.200  9.52066E-01  1.00498E+00 -5.29172E-02
    9092.621     97.241   5.240  9.56087E-01  1.00511E+00 -4.90186E-02
    9094.225     98.844   5.280  9.64511E-01  1.00517E+00 -4.06555E-02
    9095.840    100.459   5.320  9.77871E-01  1.00521E+00 -2.73375E-02
    9097.468    102.087   5.360  9.95697E-01  1.00519E+00 -9.49234E-03
    9099.108    103.727   5.400  1.01653E+00  1.00515E+00  1.13833E-02
    9100.760    105.379   5.440  1.03802E+00  1.00507E+00  3.29453E-02
    9102.424    107.043   5.480  1.05763E+00  1.00493E+00  5.27022E-02
    9104.100    108.719   5.520  1.07361E+00  1.00477E+00  6.88407E-02
    9105.789    110.408   5.560  1.08514E+00  1.00458E+00  8.05672E-02
    9107.490    112.109   5.600  1.09225E+00  1.00434E+00  8.79163E-02
    9109.203    113.822   5.640  1.09552E+00  1.00406E+00  9.14601E-02
    9110.928    115.547   5.680  1.09574E+00  1.00375E+00  9.19963E-02
    9112.665    117.284   5.720  1.09339E+00  1.00339E+00  8.99985E-02
    9114.415    119.034   5.760  1.08822E+00  1.00300E+00  8.52153E-02
    9116.176    120.796   5.800  1.07945E+00  1.00260E+00  7.68507E-02
    9117.950    122.570   5.840  1.06644E+00  1.00216E+00  6.42790E-02
    9119.736    124.356   5.880  1.04937E+00  1.00170E+00  4.76689E-02
    9121.535    126.154   5.920  1.02944E+00  1.00120E+00  2.82383E-02
    9123.345    127.964   5.960  1.00889E+00  1.00070E+00  8.19116E-03
    9125.168    129.787   6.000  9.90117E-01  1.00015E+00 -1.00332E-02
