# # comment:                                                     FEFF 9.9.1  
# # Source:
# # Structure
# # Reduced
# # space
# # abc:
# # angles:137.762942
# # sites:
# # POT  SCF 100  7.0000   0, screened core-hole, AFOLP (folp(0)= 1.150)
# # Abs   Z=29 Rmt= 1.258 Rnm= 1.323 K  shell
# # Pot 1 Z=12 Rmt= 1.327 Rnm= 1.411
# # Pot 2 Z=29 Rmt= 1.258 Rnm= 1.323
# # Pot 3 Z= 8 Rmt= 1.049 Rnm= 1.107
# # Gam_ch=1.729E+00 H-L exch Vi= 0.000E+00 Vr= 0.000E+00
# # Mu=-1.002E+01eV kf=2.107E+00 Vint=-1.858E+01eV Rs_int= 1.722
# FMS rfms= 9.0000
# # PATH  Rmax=-1.000,  Keep_limit= 0.00, Heap_limit 0.00  Pwcrit= 2.50%
#  S02=0.950  Temp=   0.00  Debye_temp=   0.00  Global_sig2= 0.00000
#  Energy zero shift, vr, vi    0.00000E+00   0.00000E+00
#  Curved wave amplitude ratio filter   4.000%
#     file         sig2 tot  cw amp ratio   deg  nlegs   reff  inp sig2
#     0/   0 paths used
#  xsedge+ 50, used to normalize mu           2.4645E-04
#  -----------------------------------------------------------------------
#  omega    e    k    mu    mu0     chi     @#
    8985.107    -13.834  -1.000  3.76812E-02  5.35482E-02 -1.58669E-02
    8985.406    -13.535  -0.960  3.95243E-02  5.74200E-02 -1.78957E-02
    8985.693    -13.249  -0.920  4.14873E-02  6.17204E-02 -2.02331E-02
    8985.967    -12.974  -0.880  4.35815E-02  6.65122E-02 -2.29307E-02
    8986.229    -12.712  -0.840  4.58198E-02  7.18686E-02 -2.60488E-02
    8986.479    -12.462  -0.800  4.82170E-02  7.78742E-02 -2.96573E-02
    8986.717    -12.224  -0.760  5.07900E-02  8.46264E-02 -3.38364E-02
    8986.942    -11.999  -0.720  5.35581E-02  9.22347E-02 -3.86767E-02
    8987.156    -11.785  -0.680  5.65422E-02  1.00820E-01 -4.42780E-02
    8987.357    -11.584  -0.640  5.97643E-02  1.10510E-01 -5.07460E-02
    8987.546    -11.395  -0.600  6.32448E-02  1.21430E-01 -5.81853E-02
    8987.723    -11.219  -0.560  6.69983E-02  1.33686E-01 -6.66879E-02
    8987.887    -11.054  -0.520  7.10271E-02  1.47342E-01 -7.63149E-02
    8988.039    -10.902  -0.480  7.53113E-02  1.62383E-01 -8.70717E-02
    8988.180    -10.761  -0.440  7.97984E-02  1.78677E-01 -9.88787E-02
    8988.308    -10.633  -0.400  8.43959E-02  1.95941E-01 -1.11546E-01
    8988.424    -10.518  -0.360  8.89725E-02  2.13732E-01 -1.24759E-01
    8988.527    -10.414  -0.320  9.33720E-02  2.31470E-01 -1.38098E-01
    8988.619    -10.322  -0.280  9.74393E-02  2.48516E-01 -1.51076E-01
    8988.698    -10.243  -0.240  1.01047E-01  2.64251E-01 -1.63204E-01
    8988.765    -10.176  -0.200  1.04112E-01  2.78158E-01 -1.74046E-01
    8988.820    -10.121  -0.160  1.06599E-01  2.89859E-01 -1.83260E-01
    8988.862    -10.079  -0.120  1.08505E-01  2.99110E-01 -1.90605E-01
    8988.893    -10.048  -0.080  1.09844E-01  3.05775E-01 -1.95931E-01
    8988.917    -10.024   0.000  1.10890E-01  3.11130E-01 -2.00239E-01
    8988.972     -9.969   0.120  1.13252E-01  3.23216E-01 -2.09964E-01
    8989.015     -9.926   0.160  1.15021E-01  3.32607E-01 -2.17586E-01
    8989.070     -9.871   0.200  1.17178E-01  3.44597E-01 -2.27419E-01
    8989.137     -9.804   0.240  1.19675E-01  3.59028E-01 -2.39353E-01
    8989.216     -9.725   0.280  1.22436E-01  3.75618E-01 -2.53182E-01
    8989.307     -9.634   0.320  1.25393E-01  3.93952E-01 -2.68559E-01
    8989.411     -9.530   0.360  1.28504E-01  4.13473E-01 -2.84969E-01
    8989.527     -9.414   0.400  1.31867E-01  4.33674E-01 -3.01808E-01
    8989.655     -9.286   0.440  1.35645E-01  4.54012E-01 -3.18367E-01
    8989.795     -9.146   0.480  1.40148E-01  4.74118E-01 -3.33971E-01
    8989.948     -8.994   0.520  1.45705E-01  4.93706E-01 -3.48002E-01
    8990.112     -8.829   0.560  1.52771E-01  5.12661E-01 -3.59890E-01
    8990.289     -8.652   0.600  1.61877E-01  5.30950E-01 -3.69074E-01
    8990.478     -8.463   0.640  1.73652E-01  5.48629E-01 -3.74977E-01
    8990.679     -8.262   0.680  1.88853E-01  5.65747E-01 -3.76895E-01
    8990.892     -8.049   0.720  2.08520E-01  5.82427E-01 -3.73907E-01
    8991.118     -7.823   0.760  2.33813E-01  5.98729E-01 -3.64915E-01
    8991.356     -7.585   0.800  2.66125E-01  6.14744E-01 -3.48618E-01
    8991.606     -7.335   0.840  3.07248E-01  6.30511E-01 -3.23263E-01
    8991.868     -7.073   0.880  3.59914E-01  6.46078E-01 -2.86164E-01
    8992.142     -6.799   0.920  4.27874E-01  6.61494E-01 -2.33620E-01
    8992.429     -6.512   0.960  5.12722E-01  6.76741E-01 -1.64019E-01
    8992.727     -6.214   1.000  6.05981E-01  6.91870E-01 -8.58892E-02
    8993.038     -5.903   1.040  6.83105E-01  7.06861E-01 -2.37559E-02
    8993.361     -5.580   1.080  7.20098E-01  7.21707E-01 -1.60905E-03
    8993.697     -5.245   1.120  7.17727E-01  7.36377E-01 -1.86502E-02
    8994.044     -4.897   1.160  6.91993E-01  7.50876E-01 -5.88826E-02
    8994.404     -4.537   1.200  6.57497E-01  7.65161E-01 -1.07665E-01
    8994.776     -4.166   1.240  6.28348E-01  7.79210E-01 -1.50862E-01
    8995.160     -3.781   1.280  6.14946E-01  7.93015E-01 -1.78070E-01
    8995.556     -3.385   1.320  6.15076E-01  8.06530E-01 -1.91454E-01
    8995.964     -2.977   1.360  6.19622E-01  8.19705E-01 -2.00083E-01
    8996.385     -2.556   1.400  6.31074E-01  8.32553E-01 -2.01479E-01
    8996.818     -2.123   1.440  6.61989E-01  8.45043E-01 -1.83054E-01
    8997.263     -1.678   1.480  7.13786E-01  8.57127E-01 -1.43341E-01
    8997.720     -1.221   1.520  7.74859E-01  8.68796E-01 -9.39375E-02
    8998.189     -0.752   1.560  8.34662E-01  8.80024E-01 -4.53622E-02
    8998.671     -0.270   1.600  8.88876E-01  8.90803E-01 -1.92667E-03
    8999.165      0.224   1.640  9.41762E-01  9.01105E-01  4.06571E-02
    8999.671      0.730   1.680  1.00940E+00  9.10929E-01  9.84672E-02
    9000.189      1.248   1.720  1.10688E+00  9.20249E-01  1.86629E-01
    9000.719      1.778   1.760  1.23170E+00  9.29064E-01  3.02632E-01
    9001.262      2.321   1.800  1.37716E+00  9.37395E-01  4.39761E-01
    9001.816      2.875   1.840  1.52703E+00  9.45221E-01  5.81805E-01
    9002.383      3.442   1.880  1.63837E+00  9.52523E-01  6.85848E-01
    9002.962      4.021   1.920  1.66084E+00  9.59345E-01  7.01493E-01
    9003.554      4.613   1.960  1.58983E+00  9.65671E-01  6.24161E-01
    9004.157      5.216   2.000  1.47490E+00  9.71506E-01  5.03390E-01
    9004.773      5.832   2.040  1.35730E+00  9.76897E-01  3.80407E-01
    9005.401      6.460   2.080  1.23631E+00  9.81809E-01  2.54505E-01
    9006.041      7.100   2.120  1.11341E+00  9.86270E-01  1.27144E-01
    9006.693      7.752   2.160  1.02050E+00  9.90308E-01  3.01890E-02
    9007.358      8.417   2.200  9.75163E-01  9.93932E-01 -1.87689E-02
    9008.034      9.093   2.240  9.68575E-01  9.97152E-01 -2.85766E-02
    9008.723      9.782   2.280  9.80241E-01  9.99996E-01 -1.97555E-02
    9009.424     10.483   2.320  9.87907E-01  1.00250E+00 -1.45889E-02
    9010.137     11.196   2.360  9.80253E-01  1.00464E+00 -2.43874E-02
    9010.863     11.922   2.400  9.59826E-01  1.00648E+00 -4.66537E-02
    9011.600     12.659   2.440  9.38413E-01  1.00800E+00 -6.95911E-02
    9012.350     13.409   2.480  9.27088E-01  1.00926E+00 -8.21763E-02
    9013.112     14.171   2.520  9.32489E-01  1.01025E+00 -7.77587E-02
    9013.886     14.945   2.560  9.47803E-01  1.01099E+00 -6.31837E-02
    9014.673     15.732   2.600  9.63970E-01  1.01151E+00 -4.75416E-02
    9015.471     16.530   2.640  9.79151E-01  1.01183E+00 -3.26795E-02
    9016.282     17.341   2.680  9.92708E-01  1.01197E+00 -1.92648E-02
    9017.105     18.164   2.720  1.00380E+00  1.01193E+00 -8.12861E-03
    9017.940     18.999   2.760  1.01089E+00  1.01174E+00 -8.49862E-04
    9018.788     19.847   2.800  1.01191E+00  1.01143E+00  4.78454E-04
    9019.647     20.706   2.840  1.00494E+00  1.01097E+00 -6.02833E-03
    9020.519     21.578   2.880  9.90312E-01  1.01042E+00 -2.01035E-02
    9021.403     22.462   2.920  9.70271E-01  1.00977E+00 -3.95033E-02
    9022.299     23.358   2.960  9.48530E-01  1.00905E+00 -6.05206E-02
    9023.207     24.266   3.000  9.28493E-01  1.00827E+00 -7.97814E-02
    9024.128     25.187   3.040  9.12110E-01  1.00743E+00 -9.53186E-02
    9025.060     26.119   3.080  9.00059E-01  1.00654E+00 -1.06478E-01
    9026.005     27.064   3.120  8.92460E-01  1.00561E+00 -1.13149E-01
    9026.962     28.021   3.160  8.88549E-01  1.00467E+00 -1.16119E-01
    9027.932     28.990   3.200  8.87362E-01  1.00372E+00 -1.16358E-01
    9028.913     29.972   3.240  8.87748E-01  1.00275E+00 -1.14999E-01
    9029.907     30.966   3.280  8.88726E-01  1.00179E+00 -1.13069E-01
    9030.912     31.971   3.320  8.89929E-01  1.00085E+00 -1.10916E-01
    9031.931     32.989   3.360  8.92013E-01  9.99904E-01 -1.07891E-01
    9032.961     34.020   3.400  8.96242E-01  9.98993E-01 -1.02751E-01
    9034.003     35.062   3.440  9.03204E-01  9.98115E-01 -9.49114E-02
    9035.058     36.117   3.480  9.13074E-01  9.97252E-01 -8.41780E-02
    9036.125     37.183   3.520  9.25906E-01  9.96448E-01 -7.05416E-02
    9037.204     38.262   3.560  9.41630E-01  9.95663E-01 -5.40330E-02
    9038.295     39.354   3.600  9.60156E-01  9.94941E-01 -3.47841E-02
    9039.398     40.457   3.640  9.81118E-01  9.94260E-01 -1.31422E-02
    9040.514     41.573   3.680  1.00381E+00  9.93623E-01  1.01833E-02
    9041.641     42.700   3.720  1.02715E+00  9.93031E-01  3.41209E-02
    9042.781     43.840   3.760  1.04962E+00  9.92505E-01  5.71192E-02
    9043.933     44.992   3.800  1.06868E+00  9.92026E-01  7.66552E-02
    9045.098     46.157   3.840  1.08131E+00  9.91593E-01  8.97215E-02
    9046.274     47.333   3.880  1.08599E+00  9.91229E-01  9.47640E-02
    9047.463     48.522   3.920  1.08368E+00  9.90932E-01  9.27507E-02
    9048.664     49.723   3.960  1.07706E+00  9.90662E-01  8.63936E-02
    9049.877     50.936   4.000  1.06881E+00  9.90457E-01  7.83562E-02
    9051.102     52.161   4.040  1.06050E+00  9.90299E-01  7.02044E-02
    9052.340     53.399   4.080  1.05285E+00  9.90208E-01  6.26400E-02
    9053.590     54.648   4.120  1.04637E+00  9.90163E-01  5.62034E-02
    9054.851     55.910   4.160  1.04159E+00  9.90161E-01  5.14325E-02
    9056.125     57.184   4.200  1.03855E+00  9.90202E-01  4.83513E-02
    9057.412     58.471   4.240  1.03669E+00  9.90308E-01  4.63773E-02
    9058.710     59.769   4.280  1.03518E+00  9.90455E-01  4.47267E-02
    9060.021     61.080   4.320  1.03339E+00  9.90621E-01  4.27647E-02
    9061.344     62.403   4.360  1.03084E+00  9.90845E-01  3.99993E-02
    9062.679     63.738   4.400  1.02703E+00  9.91088E-01  3.59382E-02
    9064.026     65.085   4.440  1.02170E+00  9.91389E-01  3.03091E-02
    9065.385     66.444   4.480  1.01498E+00  9.91703E-01  2.32746E-02
    9066.757     67.816   4.520  1.00768E+00  9.92051E-01  1.56292E-02
    9068.141     69.200   4.560  1.00091E+00  9.92410E-01  8.49705E-03
    9069.537     70.596   4.600  9.95682E-01  9.92800E-01  2.88124E-03
    9070.945     72.004   4.640  9.92611E-01  9.93221E-01 -6.09749E-04
    9072.365     73.424   4.680  9.91855E-01  9.93649E-01 -1.79333E-03
    9073.798     74.857   4.720  9.93193E-01  9.94081E-01 -8.88850E-04
    9075.242     76.301   4.760  9.96125E-01  9.94538E-01  1.58642E-03
    9076.699     77.758   4.800  9.99930E-01  9.94976E-01  4.95422E-03
    9078.168     79.227   4.840  1.00402E+00  9.95436E-01  8.58600E-03
    9079.650     80.709   4.880  1.00787E+00  9.95895E-01  1.19739E-02
    9081.143     82.202   4.920  1.01085E+00  9.96330E-01  1.45220E-02
    9082.649     83.708   4.960  1.01232E+00  9.96783E-01  1.55360E-02
    9084.167     85.226   5.000  1.01172E+00  9.97209E-01  1.45128E-02
    9085.697     86.756   5.040  1.00886E+00  9.97628E-01  1.12297E-02
    9087.239     88.298   5.080  1.00352E+00  9.98018E-01  5.50204E-03
    9088.794     89.853   5.120  9.95515E-01  9.98421E-01 -2.90572E-03
    9090.360     91.419   5.160  9.84736E-01  9.98771E-01 -1.40354E-02
    9091.939     92.998   5.200  9.71626E-01  9.99110E-01 -2.74837E-02
    9093.530     94.589   5.240  9.56883E-01  9.99438E-01 -4.25557E-02
    9095.134     96.193   5.280  9.41541E-01  9.99732E-01 -5.81913E-02
    9096.749     97.808   5.320  9.27106E-01  9.99988E-01 -7.28822E-02
    9098.377     99.436   5.360  9.15355E-01  1.00021E+00 -8.48527E-02
    9100.016    101.075   5.400  9.07798E-01  1.00041E+00 -9.26135E-02
    9101.668    102.727   5.440  9.05102E-01  1.00055E+00 -9.54522E-02
    9103.333    104.392   5.480  9.07244E-01  1.00068E+00 -9.34385E-02
    9105.009    106.068   5.520  9.13672E-01  1.00078E+00 -8.71046E-02
    9106.698    107.757   5.560  9.23352E-01  1.00085E+00 -7.75000E-02
    9108.398    109.457   5.600  9.34415E-01  1.00087E+00 -6.64499E-02
    9110.111    111.170   5.640  9.44654E-01  1.00084E+00 -5.61828E-02
    9111.837    112.895   5.680  9.52801E-01  1.00077E+00 -4.79696E-02
    9113.574    114.633   5.720  9.59862E-01  1.00069E+00 -4.08259E-02
    9115.323    116.382   5.760  9.68973E-01  1.00054E+00 -3.15712E-02
    9117.085    118.144   5.800  9.83580E-01  1.00039E+00 -1.68063E-02
    9118.859    119.918   5.840  1.00468E+00  1.00019E+00  4.48596E-03
    9120.645    121.704   5.880  1.02985E+00  9.99933E-01  2.99160E-02
    9122.444    123.502   5.920  1.05463E+00  9.99664E-01  5.49629E-02
    9124.254    125.313   5.960  1.07446E+00  9.99359E-01  7.51011E-02
    9126.077    127.136   6.000  1.08634E+00  9.98994E-01  8.73506E-02
