# # comment:                                                     FEFF 9.9.1  
# # Source:
# # Structure
# # Reduced
# # space
# # abc:
# # angles:
# # sites:
# # POT  SCF 100  7.0000   0, screened core-hole, AFOLP (folp(0)= 1.150)
# # Abs   Z=29 Rmt= 1.173 Rnm= 1.296 K  shell
# # Pot 1 Z=49 Rmt= 1.503 Rnm= 1.580
# # Pot 2 Z=29 Rmt= 1.192 Rnm= 1.309
# # Pot 3 Z= 8 Rmt= 1.022 Rnm= 1.115
# # Gam_ch=1.729E+00 H-L exch Vi= 0.000E+00 Vr= 0.000E+00
# # Mu=-7.131E+00eV kf=2.133E+00 Vint=-1.470E+01eV Rs_int= 1.700
# FMS rfms= 9.0000
# # PATH  Rmax=-1.000,  Keep_limit= 0.00, Heap_limit 0.00  Pwcrit= 2.50%
#  S02=0.950  Temp=   0.00  Debye_temp=   0.00  Global_sig2= 0.00000
#  Energy zero shift, vr, vi    0.00000E+00   0.00000E+00
#  Curved wave amplitude ratio filter   4.000%
#     file         sig2 tot  cw amp ratio   deg  nlegs   reff  inp sig2
#     0/   0 paths used
#  xsedge+ 50, used to normalize mu           2.4356E-04
#  -----------------------------------------------------------------------
#  omega    e    k    mu    mu0     chi     @#
    8983.496    -10.941  -1.000  3.56215E-02  5.54123E-02 -1.97908E-02
    8983.795    -10.642  -0.960  3.74341E-02  5.94077E-02 -2.19737E-02
    8984.082    -10.356  -0.920  3.93853E-02  6.38413E-02 -2.44561E-02
    8984.356    -10.082  -0.880  4.14900E-02  6.87767E-02 -2.72867E-02
    8984.618     -9.819  -0.840  4.37651E-02  7.42880E-02 -3.05229E-02
    8984.868     -9.570  -0.800  4.62288E-02  8.04607E-02 -3.42320E-02
    8985.106     -9.332  -0.760  4.89012E-02  8.73930E-02 -3.84918E-02
    8985.331     -9.106  -0.720  5.18037E-02  9.51954E-02 -4.33917E-02
    8985.545     -8.893  -0.680  5.49586E-02  1.03990E-01 -4.90311E-02
    8985.746     -8.692  -0.640  5.83873E-02  1.13904E-01 -5.55167E-02
    8985.935     -8.503  -0.600  6.21091E-02  1.25064E-01 -6.29549E-02
    8986.112     -8.326  -0.560  6.61371E-02  1.37576E-01 -7.14393E-02
    8986.276     -8.161  -0.520  7.04745E-02  1.51504E-01 -8.10298E-02
    8986.429     -8.009  -0.480  7.51077E-02  1.66832E-01 -9.17240E-02
    8986.569     -7.869  -0.440  8.00001E-02  1.83425E-01 -1.03425E-01
    8986.697     -7.741  -0.400  8.50861E-02  2.00997E-01 -1.15911E-01
    8986.813     -7.625  -0.360  9.02683E-02  2.19100E-01 -1.28832E-01
    8986.916     -7.521  -0.320  9.54209E-02  2.37150E-01 -1.41729E-01
    8987.008     -7.430  -0.280  1.00400E-01  2.54497E-01 -1.54097E-01
    8987.087     -7.351  -0.240  1.05056E-01  2.70518E-01 -1.65461E-01
    8987.154     -7.284  -0.200  1.09250E-01  2.84684E-01 -1.75435E-01
    8987.209     -7.229  -0.160  1.12856E-01  2.96611E-01 -1.83754E-01
    8987.252     -7.186  -0.120  1.15772E-01  3.06045E-01 -1.90273E-01
    8987.282     -7.156  -0.080  1.17915E-01  3.12847E-01 -1.94932E-01
    8987.306     -7.131   0.000  1.19678E-01  3.18315E-01 -1.98638E-01
    8987.361     -7.076   0.120  1.23930E-01  3.30646E-01 -2.06716E-01
    8987.404     -7.034   0.160  1.27254E-01  3.40250E-01 -2.12995E-01
    8987.459     -6.979   0.200  1.31599E-01  3.52528E-01 -2.20928E-01
    8987.526     -6.912   0.240  1.37039E-01  3.67309E-01 -2.30270E-01
    8987.605     -6.832   0.280  1.43678E-01  3.84362E-01 -2.40684E-01
    8987.697     -6.741   0.320  1.51601E-01  4.03222E-01 -2.51621E-01
    8987.800     -6.637   0.360  1.60991E-01  4.23425E-01 -2.62434E-01
    8987.916     -6.522   0.400  1.72055E-01  4.44390E-01 -2.72336E-01
    8988.044     -6.394   0.440  1.85131E-01  4.65624E-01 -2.80493E-01
    8988.184     -6.253   0.480  2.00592E-01  4.86742E-01 -2.86150E-01
    8988.337     -6.101   0.520  2.18774E-01  5.07459E-01 -2.88686E-01
    8988.501     -5.936   0.560  2.39692E-01  5.27682E-01 -2.87990E-01
    8988.678     -5.760   0.600  2.62466E-01  5.47375E-01 -2.84909E-01
    8988.867     -5.571   0.640  2.84693E-01  5.66549E-01 -2.81856E-01
    8989.068     -5.369   0.680  3.02692E-01  5.85268E-01 -2.82575E-01
    8989.281     -5.156   0.720  3.13235E-01  6.03648E-01 -2.90413E-01
    8989.507     -4.930   0.760  3.15761E-01  6.21722E-01 -3.05960E-01
    8989.745     -4.693   0.800  3.12717E-01  6.39554E-01 -3.26837E-01
    8989.995     -4.443   0.840  3.07716E-01  6.57194E-01 -3.49478E-01
    8990.257     -4.181   0.880  3.03786E-01  6.74680E-01 -3.70893E-01
    8990.531     -3.906   0.920  3.02193E-01  6.92013E-01 -3.89820E-01
    8990.818     -3.620   0.960  3.02024E-01  7.09206E-01 -4.07182E-01
    8991.116     -3.321   1.000  3.01598E-01  7.26260E-01 -4.24662E-01
    8991.427     -3.010   1.040  3.01020E-01  7.43125E-01 -4.42104E-01
    8991.750     -2.687   1.080  3.02977E-01  7.59807E-01 -4.56831E-01
    8992.086     -2.352   1.120  3.11417E-01  7.76266E-01 -4.64848E-01
    8992.433     -2.004   1.160  3.30210E-01  7.92454E-01 -4.62244E-01
    8992.793     -1.645   1.200  3.62562E-01  8.08343E-01 -4.45781E-01
    8993.165     -1.273   1.240  4.10123E-01  8.23903E-01 -4.13780E-01
    8993.549     -0.889   1.280  4.70747E-01  8.39059E-01 -3.68312E-01
    8993.945     -0.493   1.320  5.37050E-01  8.53817E-01 -3.16767E-01
    8994.353     -0.084   1.360  5.98570E-01  8.68104E-01 -2.69534E-01
    8994.774      0.336   1.400  6.42168E-01  8.81906E-01 -2.39738E-01
    8995.207      0.769   1.440  6.58688E-01  8.95169E-01 -2.36482E-01
    8995.652      1.214   1.480  6.57053E-01  9.07883E-01 -2.50830E-01
    8996.109      1.671   1.520  6.55447E-01  9.19995E-01 -2.64549E-01
    8996.578      2.141   1.560  6.65760E-01  9.31520E-01 -2.65760E-01
    8997.060      2.622   1.600  6.91867E-01  9.42429E-01 -2.50562E-01
    8997.554      3.116   1.640  7.30895E-01  9.52698E-01 -2.21803E-01
    8998.060      3.622   1.680  7.75075E-01  9.62324E-01 -1.87249E-01
    8998.578      4.140   1.720  8.23004E-01  9.71305E-01 -1.48301E-01
    8999.108      4.671   1.760  8.93684E-01  9.79622E-01 -8.59384E-02
    8999.651      5.213   1.800  1.01244E+00  9.87300E-01  2.51452E-02
    9000.205      5.768   1.840  1.17523E+00  9.94342E-01  1.80891E-01
    9000.772      6.335   1.880  1.33122E+00  1.00078E+00  3.30439E-01
    9001.352      6.914   1.920  1.41714E+00  1.00657E+00  4.10569E-01
    9001.943      7.505   1.960  1.42394E+00  1.01179E+00  4.12152E-01
    9002.546      8.109   2.000  1.40270E+00  1.01643E+00  3.86270E-01
    9003.162      8.724   2.040  1.38787E+00  1.02050E+00  3.67366E-01
    9003.790      9.352   2.080  1.37155E+00  1.02405E+00  3.47492E-01
    9004.430      9.992   2.120  1.34284E+00  1.02710E+00  3.15734E-01
    9005.082     10.645   2.160  1.31181E+00  1.02966E+00  2.82152E-01
    9005.747     11.309   2.200  1.29725E+00  1.03176E+00  2.65493E-01
    9006.423     11.986   2.240  1.30767E+00  1.03343E+00  2.74240E-01
    9007.112     12.675   2.280  1.33184E+00  1.03472E+00  2.97116E-01
    9007.813     13.376   2.320  1.34763E+00  1.03562E+00  3.12010E-01
    9008.526     14.089   2.360  1.33943E+00  1.03617E+00  3.03265E-01
    9009.252     14.814   2.400  1.30642E+00  1.03642E+00  2.69998E-01
    9009.990     15.552   2.440  1.26012E+00  1.03637E+00  2.23749E-01
    9010.739     16.302   2.480  1.21453E+00  1.03605E+00  1.78480E-01
    9011.501     17.064   2.520  1.18102E+00  1.03548E+00  1.45538E-01
    9012.276     17.838   2.560  1.16006E+00  1.03471E+00  1.25348E-01
    9013.062     18.624   2.600  1.14193E+00  1.03373E+00  1.08199E-01
    9013.860     19.423   2.640  1.12073E+00  1.03260E+00  8.81278E-02
    9014.671     20.234   2.680  1.09651E+00  1.03131E+00  6.52026E-02
    9015.494     21.057   2.720  1.06997E+00  1.02989E+00  4.00812E-02
    9016.329     21.892   2.760  1.04201E+00  1.02837E+00  1.36403E-02
    9017.177     22.739   2.800  1.01425E+00  1.02675E+00 -1.24959E-02
    9018.036     23.599   2.840  9.89488E-01  1.02507E+00 -3.55791E-02
    9018.908     24.470   2.880  9.69596E-01  1.02331E+00 -5.37177E-02
    9019.792     25.354   2.920  9.54816E-01  1.02152E+00 -6.67018E-02
    9020.688     26.250   2.960  9.44711E-01  1.01971E+00 -7.49984E-02
    9021.596     27.159   3.000  9.37809E-01  1.01789E+00 -8.00833E-02
    9022.517     28.079   3.040  9.32257E-01  1.01608E+00 -8.38181E-02
    9023.449     29.012   3.080  9.26768E-01  1.01426E+00 -8.74919E-02
    9024.394     29.957   3.120  9.20656E-01  1.01245E+00 -9.17989E-02
    9025.351     30.914   3.160  9.13660E-01  1.01068E+00 -9.70251E-02
    9026.321     31.883   3.200  9.05899E-01  1.00898E+00 -1.03077E-01
    9027.302     32.865   3.240  8.97752E-01  1.00729E+00 -1.09538E-01
    9028.296     33.858   3.280  8.89628E-01  1.00569E+00 -1.16066E-01
    9029.302     34.864   3.320  8.81949E-01  1.00413E+00 -1.22177E-01
    9030.320     35.882   3.360  8.75572E-01  1.00263E+00 -1.27062E-01
    9031.350     36.912   3.400  8.71417E-01  1.00124E+00 -1.29824E-01
    9032.392     37.955   3.440  8.70058E-01  9.99906E-01 -1.29848E-01
    9033.447     39.009   3.480  8.71780E-01  9.98650E-01 -1.26870E-01
    9034.514     40.076   3.520  8.76410E-01  9.97477E-01 -1.21068E-01
    9035.593     41.155   3.560  8.83273E-01  9.96411E-01 -1.13138E-01
    9036.684     42.246   3.600  8.91455E-01  9.95411E-01 -1.03956E-01
    9037.787     43.350   3.640  9.00093E-01  9.94517E-01 -9.44244E-02
    9038.903     44.465   3.680  9.08517E-01  9.93734E-01 -8.52173E-02
    9040.030     45.593   3.720  9.16366E-01  9.93039E-01 -7.66732E-02
    9041.170     46.733   3.760  9.23803E-01  9.92431E-01 -6.86275E-02
    9042.323     47.885   3.800  9.31139E-01  9.91910E-01 -6.07712E-02
    9043.487     49.049   3.840  9.38724E-01  9.91499E-01 -5.27749E-02
    9044.663     50.226   3.880  9.47121E-01  9.91177E-01 -4.40556E-02
    9045.852     51.415   3.920  9.57137E-01  9.90963E-01 -3.38267E-02
    9047.053     52.616   3.960  9.69180E-01  9.90837E-01 -2.16572E-02
    9048.266     53.829   4.000  9.82846E-01  9.90796E-01 -7.95083E-03
    9049.491     55.054   4.040  9.96994E-01  9.90840E-01  6.15428E-03
    9050.729     56.291   4.080  1.01027E+00  9.90987E-01  1.92831E-02
    9051.979     57.541   4.120  1.02167E+00  9.91195E-01  3.04760E-02
    9053.240     58.803   4.160  1.03108E+00  9.91484E-01  3.95954E-02
    9054.515     60.077   4.200  1.03895E+00  9.91876E-01  4.70775E-02
    9055.801     61.363   4.240  1.04597E+00  9.92324E-01  5.36483E-02
    9057.099     62.662   4.280  1.05292E+00  9.92848E-01  6.00734E-02
    9058.410     63.972   4.320  1.06026E+00  9.93447E-01  6.68113E-02
    9059.733     65.295   4.360  1.06785E+00  9.94095E-01  7.37521E-02
    9061.068     66.630   4.400  1.07492E+00  9.94791E-01  8.01246E-02
    9062.415     67.977   4.440  1.08041E+00  9.95558E-01  8.48563E-02
    9063.774     69.337   4.480  1.08341E+00  9.96392E-01  8.70165E-02
    9065.146     70.708   4.520  1.08351E+00  9.97245E-01  8.62651E-02
    9066.530     72.092   4.560  1.08105E+00  9.98138E-01  8.29158E-02
    9067.926     73.488   4.600  1.07665E+00  9.99067E-01  7.75864E-02
    9069.334     74.896   4.640  1.07092E+00  1.00003E+00  7.08903E-02
    9070.754     76.317   4.680  1.06454E+00  1.00103E+00  6.35055E-02
    9072.187     77.749   4.720  1.05818E+00  1.00204E+00  5.61362E-02
    9073.631     79.194   4.760  1.05255E+00  1.00305E+00  4.94972E-02
    9075.088     80.651   4.800  1.04826E+00  1.00407E+00  4.41902E-02
    9076.558     82.120   4.840  1.04561E+00  1.00511E+00  4.05013E-02
    9078.039     83.601   4.880  1.04444E+00  1.00615E+00  3.82936E-02
    9079.532     85.095   4.920  1.04411E+00  1.00716E+00  3.69482E-02
    9081.038     86.601   4.960  1.04366E+00  1.00817E+00  3.54918E-02
    9082.556     88.118   5.000  1.04219E+00  1.00917E+00  3.30162E-02
    9084.086     89.649   5.040  1.03926E+00  1.01016E+00  2.90974E-02
    9085.628     91.191   5.080  1.03497E+00  1.01109E+00  2.38793E-02
    9087.183     92.745   5.120  1.02981E+00  1.01201E+00  1.78001E-02
    9088.750     94.312   5.160  1.02408E+00  1.01289E+00  1.11865E-02
    9090.328     95.891   5.200  1.01780E+00  1.01373E+00  4.06893E-03
    9091.919     97.482   5.240  1.01081E+00  1.01455E+00 -3.73442E-03
    9093.523     99.085   5.280  1.00289E+00  1.01528E+00 -1.23916E-02
    9095.138    100.701   5.320  9.94187E-01  1.01599E+00 -2.18006E-02
    9096.766    102.328   5.360  9.85218E-01  1.01665E+00 -3.14304E-02
    9098.406    103.968   5.400  9.76779E-01  1.01724E+00 -4.04585E-02
    9100.058    105.620   5.440  9.69738E-01  1.01775E+00 -4.80142E-02
    9101.722    107.284   5.480  9.64841E-01  1.01822E+00 -5.33747E-02
    9103.398    108.961   5.520  9.62536E-01  1.01863E+00 -5.60925E-02
    9105.087    110.649   5.560  9.62695E-01  1.01894E+00 -5.62494E-02
    9106.787    112.350   5.600  9.64705E-01  1.01923E+00 -5.45239E-02
    9108.500    114.063   5.640  9.67419E-01  1.01942E+00 -5.19979E-02
    9110.226    115.788   5.680  9.69830E-01  1.01955E+00 -4.97188E-02
    9111.963    117.525   5.720  9.71175E-01  1.01961E+00 -4.84322E-02
    9113.713    119.275   5.760  9.71205E-01  1.01961E+00 -4.84062E-02
    9115.474    121.037   5.800  9.70146E-01  1.01952E+00 -4.93695E-02
    9117.248    122.811   5.840  9.68844E-01  1.01937E+00 -5.05245E-02
    9119.034    124.597   5.880  9.68400E-01  1.01917E+00 -5.07711E-02
    9120.833    126.395   5.920  9.69827E-01  1.01887E+00 -4.90470E-02
    9122.643    128.206   5.960  9.73896E-01  1.01852E+00 -4.46220E-02
    9124.466    130.028   6.000  9.81043E-01  1.01806E+00 -3.70181E-02
