# # comment:                                                     FEFF 9.9.1  
# # Source:
# # Structure
# # Reduced
# # space
# # abc:
# # angles:
# # sites:
# # POT  SCF 100  7.0000   0, screened core-hole, AFOLP (folp(0)= 1.150)
# # Abs   Z=29 Rmt= 1.160 Rnm= 1.334 K  shell
# # Pot 1 Z=22 Rmt= 1.291 Rnm= 1.417
# # Pot 2 Z=29 Rmt= 1.160 Rnm= 1.334
# # Pot 3 Z= 8 Rmt= 0.972 Rnm= 1.093
# # Gam_ch=1.729E+00 H-L exch Vi= 0.000E+00 Vr= 0.000E+00
# # Mu=-8.183E+00eV kf=2.133E+00 Vint=-1.677E+01eV Rs_int= 1.700
# FMS rfms= 9.0000
# # PATH  Rmax=-1.000,  Keep_limit= 0.00, Heap_limit 0.00  Pwcrit= 2.50%
#  S02=0.950  Temp=   0.00  Debye_temp=   0.00  Global_sig2= 0.00000
#  Energy zero shift, vr, vi    0.00000E+00   0.00000E+00
#  Curved wave amplitude ratio filter   4.000%
#     file         sig2 tot  cw amp ratio   deg  nlegs   reff  inp sig2
#     0/   0 paths used
#  xsedge+ 50, used to normalize mu           2.4677E-04
#  -----------------------------------------------------------------------
#  omega    e    k    mu    mu0     chi     @#
    8983.994    -11.993  -1.000  4.97022E-02  5.38173E-02 -4.11508E-03
    8984.293    -11.694  -0.960  5.34426E-02  5.77022E-02 -4.25958E-03
    8984.580    -11.407  -0.920  5.76480E-02  6.20162E-02 -4.36822E-03
    8984.854    -11.133  -0.880  6.23966E-02  6.68221E-02 -4.42551E-03
    8985.116    -10.871  -0.840  6.77815E-02  7.21932E-02 -4.41167E-03
    8985.366    -10.621  -0.800  7.39123E-02  7.82141E-02 -4.30181E-03
    8985.604    -10.383  -0.760  8.09169E-02  8.49820E-02 -4.06506E-03
    8985.829    -10.158  -0.720  8.89425E-02  9.26065E-02 -3.66399E-03
    8986.043     -9.944  -0.680  9.81541E-02  1.01209E-01 -3.05442E-03
    8986.244     -9.743  -0.640  1.08729E-01  1.10915E-01 -2.18637E-03
    8986.433     -9.554  -0.600  1.20845E-01  1.21852E-01 -1.00685E-03
    8986.610     -9.377  -0.560  1.34660E-01  1.34125E-01  5.34608E-04
    8986.774     -9.213  -0.520  1.50274E-01  1.47798E-01  2.47643E-03
    8986.927     -9.060  -0.480  1.67687E-01  1.62856E-01  4.83164E-03
    8987.067     -8.920  -0.440  1.86738E-01  1.79166E-01  7.57229E-03
    8987.195     -8.792  -0.400  2.07063E-01  1.96446E-01  1.06169E-02
    8987.311     -8.676  -0.360  2.28081E-01  2.14252E-01  1.38289E-02
    8987.414     -8.573  -0.320  2.49037E-01  2.32005E-01  1.70318E-02
    8987.506     -8.481  -0.280  2.69106E-01  2.49065E-01  2.00416E-02
    8987.585     -8.402  -0.240  2.87517E-01  2.64813E-01  2.27037E-02
    8987.652     -8.335  -0.200  3.03654E-01  2.78734E-01  2.49200E-02
    8987.707     -8.280  -0.160  3.17104E-01  2.90446E-01  2.66585E-02
    8987.750     -8.237  -0.120  3.27647E-01  2.99706E-01  2.79408E-02
    8987.780     -8.207  -0.080  3.35192E-01  3.06379E-01  2.88125E-02
    8987.804     -8.183   0.000  3.41206E-01  3.11741E-01  2.94652E-02
    8987.859     -8.128   0.120  3.54018E-01  3.23845E-01  3.01728E-02
    8987.902     -8.085   0.160  3.64001E-01  3.33233E-01  3.07679E-02
    8987.957     -8.030   0.200  3.76621E-01  3.45240E-01  3.13813E-02
    8988.024     -7.963   0.240  3.91570E-01  3.59709E-01  3.18615E-02
    8988.103     -7.884   0.280  4.08313E-01  3.76317E-01  3.19967E-02
    8988.195     -7.792   0.320  4.26208E-01  3.94671E-01  3.15374E-02
    8988.298     -7.689   0.360  4.44478E-01  4.14257E-01  3.02208E-02
    8988.414     -7.573   0.400  4.62288E-01  4.34507E-01  2.77807E-02
    8988.542     -7.445   0.440  4.78815E-01  4.54921E-01  2.38942E-02
    8988.682     -7.305   0.480  4.93027E-01  4.75090E-01  1.79377E-02
    8988.835     -7.152   0.520  5.03311E-01  4.94768E-01  8.54330E-03
    8988.999     -6.988   0.560  5.07081E-01  5.13821E-01 -6.74015E-03
    8989.176     -6.811   0.600  5.01391E-01  5.32238E-01 -3.08478E-02
    8989.365     -6.622   0.640  4.84947E-01  5.50074E-01 -6.51273E-02
    8989.566     -6.421   0.680  4.60252E-01  5.67358E-01 -1.07107E-01
    8989.779     -6.207   0.720  4.33507E-01  5.84213E-01 -1.50707E-01
    8990.005     -5.982   0.760  4.11512E-01  6.00720E-01 -1.89208E-01
    8990.243     -5.744   0.800  3.98755E-01  6.16929E-01 -2.18174E-01
    8990.493     -5.494   0.840  3.96478E-01  6.32921E-01 -2.36444E-01
    8990.755     -5.232   0.880  4.02970E-01  6.48741E-01 -2.45771E-01
    8991.029     -4.958   0.920  4.14791E-01  6.64420E-01 -2.49629E-01
    8991.316     -4.671   0.960  4.28591E-01  6.79958E-01 -2.51368E-01
    8991.614     -4.373   1.000  4.42083E-01  6.95387E-01 -2.53304E-01
    8991.925     -4.062   1.040  4.53533E-01  7.10707E-01 -2.57173E-01
    8992.248     -3.739   1.080  4.61748E-01  7.25870E-01 -2.64122E-01
    8992.584     -3.403   1.120  4.66246E-01  7.40885E-01 -2.74639E-01
    8992.931     -3.056   1.160  4.67725E-01  7.55756E-01 -2.88030E-01
    8993.291     -2.696   1.200  4.68981E-01  7.70398E-01 -3.01418E-01
    8993.663     -2.324   1.240  4.74496E-01  7.84848E-01 -3.10352E-01
    8994.047     -1.940   1.280  4.88839E-01  7.99019E-01 -3.10180E-01
    8994.443     -1.544   1.320  5.16219E-01  8.12924E-01 -2.96705E-01
    8994.851     -1.136   1.360  5.59682E-01  8.26531E-01 -2.66850E-01
    8995.272     -0.715   1.400  6.20060E-01  8.39771E-01 -2.19711E-01
    8995.705     -0.282   1.440  6.94614E-01  8.52653E-01 -1.58039E-01
    8996.150      0.163   1.480  7.73609E-01  8.65127E-01 -9.15180E-02
    8996.607      0.620   1.520  8.41250E-01  8.77183E-01 -3.59332E-02
    8997.076      1.089   1.560  8.89313E-01  8.88793E-01  5.19663E-04
    8997.558      1.571   1.600  9.21885E-01  8.99929E-01  2.19557E-02
    8998.052      2.065   1.640  9.45003E-01  9.10583E-01  3.44195E-02
    8998.558      2.571   1.680  9.60662E-01  9.20751E-01  3.99114E-02
    8999.076      3.089   1.720  9.70585E-01  9.30386E-01  4.01991E-02
    8999.606      3.619   1.760  9.81416E-01  9.39528E-01  4.18883E-02
    9000.149      4.162   1.800  9.97398E-01  9.48133E-01  4.92652E-02
    9000.703      4.716   1.840  1.01286E+00  9.56201E-01  5.66563E-02
    9001.270      5.283   1.880  1.02104E+00  9.63754E-01  5.72897E-02
    9001.849      5.863   1.920  1.03535E+00  9.70773E-01  6.45805E-02
    9002.441      6.454   1.960  1.07919E+00  9.77261E-01  1.01932E-01
    9003.044      7.057   2.000  1.15521E+00  9.83264E-01  1.71944E-01
    9003.660      7.673   2.040  1.23359E+00  9.88747E-01  2.44838E-01
    9004.288      8.301   2.080  1.27406E+00  9.93737E-01  2.80325E-01
    9004.928      8.941   2.120  1.27208E+00  9.98260E-01  2.73819E-01
    9005.580      9.593   2.160  1.24529E+00  1.00233E+00  2.42962E-01
    9006.245     10.258   2.200  1.20156E+00  1.00594E+00  1.95616E-01
    9006.921     10.934   2.240  1.14646E+00  1.00912E+00  1.37335E-01
    9007.610     11.623   2.280  1.09193E+00  1.01191E+00  8.00171E-02
    9008.311     12.324   2.320  1.04953E+00  1.01432E+00  3.52126E-02
    9009.024     13.037   2.360  1.02285E+00  1.01634E+00  6.50936E-03
    9009.750     13.763   2.400  1.00475E+00  1.01802E+00 -1.32717E-02
    9010.487     14.501   2.440  9.86618E-01  1.01937E+00 -3.27515E-02
    9011.237     15.250   2.480  9.70475E-01  1.02042E+00 -4.99481E-02
    9011.999     16.012   2.520  9.65608E-01  1.02119E+00 -5.55818E-02
    9012.773     16.787   2.560  9.83792E-01  1.02168E+00 -3.78874E-02
    9013.560     17.573   2.600  1.01280E+00  1.02192E+00 -9.12735E-03
    9014.358     18.371   2.640  1.04398E+00  1.02195E+00  2.20334E-02
    9015.169     19.182   2.680  1.07295E+00  1.02177E+00  5.11812E-02
    9015.992     20.005   2.720  1.09821E+00  1.02140E+00  7.68124E-02
    9016.827     20.840   2.760  1.11968E+00  1.02087E+00  9.88084E-02
    9017.675     21.688   2.800  1.13733E+00  1.02017E+00  1.17162E-01
    9018.534     22.547   2.840  1.15025E+00  1.01934E+00  1.30913E-01
    9019.406     23.419   2.880  1.15668E+00  1.01840E+00  1.38272E-01
    9020.290     24.303   2.920  1.15455E+00  1.01736E+00  1.37193E-01
    9021.186     25.199   2.960  1.14242E+00  1.01622E+00  1.26198E-01
    9022.094     26.107   3.000  1.12079E+00  1.01501E+00  1.05778E-01
    9023.015     27.028   3.040  1.09189E+00  1.01372E+00  7.81703E-02
    9023.947     27.960   3.080  1.05903E+00  1.01241E+00  4.66211E-02
    9024.892     28.905   3.120  1.02546E+00  1.01104E+00  1.44215E-02
    9025.849     29.862   3.160  9.93696E-01  1.00965E+00 -1.59534E-02
    9026.819     30.832   3.200  9.65232E-01  1.00826E+00 -4.30232E-02
    9027.800     31.813   3.240  9.41028E-01  1.00686E+00 -6.58276E-02
    9028.794     32.807   3.280  9.21369E-01  1.00544E+00 -8.40664E-02
    9029.800     33.813   3.320  9.06122E-01  1.00404E+00 -9.79184E-02
    9030.818     34.831   3.360  8.95030E-01  1.00267E+00 -1.07645E-01
    9031.848     35.861   3.400  8.87833E-01  1.00132E+00 -1.13486E-01
    9032.890     36.903   3.440  8.84250E-01  9.99999E-01 -1.15750E-01
    9033.945     37.958   3.480  8.84010E-01  9.98718E-01 -1.14709E-01
    9035.012     39.025   3.520  8.86826E-01  9.97478E-01 -1.10651E-01
    9036.091     40.104   3.560  8.92230E-01  9.96280E-01 -1.04049E-01
    9037.182     41.195   3.600  8.99648E-01  9.95148E-01 -9.54998E-02
    9038.285     42.298   3.640  9.08543E-01  9.94062E-01 -8.55193E-02
    9039.401     43.414   3.680  9.18468E-01  9.93026E-01 -7.45577E-02
    9040.528     44.541   3.720  9.28971E-01  9.92060E-01 -6.30887E-02
    9041.668     45.681   3.760  9.39653E-01  9.91167E-01 -5.15138E-02
    9042.821     46.834   3.800  9.50113E-01  9.90326E-01 -4.02129E-02
    9043.985     47.998   3.840  9.60006E-01  9.89560E-01 -2.95539E-02
    9045.161     49.174   3.880  9.68948E-01  9.88869E-01 -1.99216E-02
    9046.350     50.363   3.920  9.76642E-01  9.88253E-01 -1.16105E-02
    9047.551     51.564   3.960  9.82873E-01  9.87691E-01 -4.81779E-03
    9048.764     52.777   4.000  9.87604E-01  9.87204E-01  3.99851E-04
    9049.989     54.002   4.040  9.90967E-01  9.86793E-01  4.17401E-03
    9051.227     55.240   4.080  9.93278E-01  9.86456E-01  6.82251E-03
    9052.477     56.490   4.120  9.94948E-01  9.86172E-01  8.77655E-03
    9053.738     57.751   4.160  9.96463E-01  9.85962E-01  1.05006E-02
    9055.012     59.026   4.200  9.98225E-01  9.85826E-01  1.23990E-02
    9056.299     60.312   4.240  1.00039E+00  9.85741E-01  1.46514E-02
    9057.597     61.610   4.280  1.00287E+00  9.85727E-01  1.71392E-02
    9058.908     62.921   4.320  1.00529E+00  9.85762E-01  1.95265E-02
    9060.231     64.244   4.360  1.00724E+00  9.85867E-01  2.13698E-02
    9061.566     65.579   4.400  1.00830E+00  9.86021E-01  2.22785E-02
    9062.913     66.926   4.440  1.00831E+00  9.86242E-01  2.20634E-02
    9064.272     68.285   4.480  1.00734E+00  9.86509E-01  2.08291E-02
    9065.644     69.657   4.520  1.00583E+00  9.86817E-01  1.90171E-02
    9067.028     71.041   4.560  1.00452E+00  9.87166E-01  1.73507E-02
    9068.424     72.437   4.600  1.00415E+00  9.87555E-01  1.65903E-02
    9069.832     73.845   4.640  1.00524E+00  9.87983E-01  1.72533E-02
    9071.252     75.265   4.680  1.00792E+00  9.88448E-01  1.94719E-02
    9072.685     76.698   4.720  1.01191E+00  9.88948E-01  2.29645E-02
    9074.129     78.143   4.760  1.01661E+00  9.89461E-01  2.71483E-02
    9075.586     79.599   4.800  1.02131E+00  9.90004E-01  3.13105E-02
    9077.056     81.069   4.840  1.02529E+00  9.90555E-01  3.47326E-02
    9078.537     82.550   4.880  1.02788E+00  9.91136E-01  3.67408E-02
    9080.030     84.043   4.920  1.02855E+00  9.91723E-01  3.68302E-02
    9081.536     85.549   4.960  1.02719E+00  9.92336E-01  3.48509E-02
    9083.054     87.067   5.000  1.02402E+00  9.92928E-01  3.10909E-02
    9084.584     88.597   5.040  1.01979E+00  9.93540E-01  2.62542E-02
    9086.126     90.139   5.080  1.01540E+00  9.94128E-01  2.12743E-02
    9087.681     91.694   5.120  1.01183E+00  9.94712E-01  1.71179E-02
    9089.247     93.261   5.160  1.00989E+00  9.95292E-01  1.45950E-02
    9090.826     94.839   5.200  1.01004E+00  9.95865E-01  1.41729E-02
    9092.417     96.430   5.240  1.01228E+00  9.96410E-01  1.58672E-02
    9094.021     98.034   5.280  1.01613E+00  9.96943E-01  1.91870E-02
    9095.636     99.649   5.320  1.02070E+00  9.97445E-01  2.32599E-02
    9097.264    101.277   5.360  1.02493E+00  9.97935E-01  2.69981E-02
    9098.904    102.917   5.400  1.02765E+00  9.98388E-01  2.92618E-02
    9100.556    104.569   5.440  1.02774E+00  9.98803E-01  2.89338E-02
    9102.220    106.233   5.480  1.02421E+00  9.99179E-01  2.50285E-02
    9103.896    107.909   5.520  1.01658E+00  9.99516E-01  1.70616E-02
    9105.585    109.598   5.560  1.00533E+00  9.99813E-01  5.51326E-03
    9107.285    111.299   5.600  9.91944E-01  1.00009E+00 -8.14932E-03
    9108.998    113.011   5.640  9.78255E-01  1.00031E+00 -2.20542E-02
    9110.724    114.737   5.680  9.65854E-01  1.00048E+00 -3.46277E-02
    9112.461    116.474   5.720  9.55759E-01  1.00061E+00 -4.48534E-02
    9114.210    118.224   5.760  9.48567E-01  1.00070E+00 -5.21336E-02
    9115.972    119.985   5.800  9.44509E-01  1.00075E+00 -5.62377E-02
    9117.746    121.759   5.840  9.43256E-01  1.00073E+00 -5.74705E-02
    9119.532    123.545   5.880  9.43985E-01  1.00069E+00 -5.67026E-02
    9121.331    125.344   5.920  9.45636E-01  1.00058E+00 -5.49456E-02
    9123.141    127.154   5.960  9.47811E-01  1.00043E+00 -5.26149E-02
    9124.964    128.977   6.000  9.51297E-01  1.00020E+00 -4.88984E-02
