# # comment:                                                     FEFF 9.9.1  
# # Source:
# # Structure
# # Reduced
# # space
# # abc:
# # angles:
# # sites:
# # POT  SCF 100  7.0000   0, screened core-hole, AFOLP (folp(0)= 1.150)
# # Abs   Z=29 Rmt= 1.219 Rnm= 1.320 K  shell
# # Pot 1 Z=29 Rmt= 1.224 Rnm= 1.329
# # Pot 2 Z=15 Rmt= 0.913 Rnm= 1.152
# # Pot 3 Z= 8 Rmt= 1.001 Rnm= 1.096
# # Gam_ch=1.729E+00 H-L exch Vi= 0.000E+00 Vr= 0.000E+00
# # Mu=-7.240E+00eV kf=2.340E+00 Vint=-1.635E+01eV Rs_int= 1.550
# FMS rfms= 9.0000
# # PATH  Rmax=-1.000,  Keep_limit= 0.00, Heap_limit 0.00  Pwcrit= 2.50%
#  S02=0.950  Temp=   0.00  Debye_temp=   0.00  Global_sig2= 0.00000
#  Energy zero shift, vr, vi    0.00000E+00   0.00000E+00
#  Curved wave amplitude ratio filter   4.000%
#     file         sig2 tot  cw amp ratio   deg  nlegs   reff  inp sig2
#     0/   0 paths used
#  xsedge+ 50, used to normalize mu           2.4770E-04
#  -----------------------------------------------------------------------
#  omega    e    k    mu    mu0     chi     @#
    8983.407    -11.050  -1.000  3.43543E-02  5.12967E-02 -1.69423E-02
    8983.705    -10.751  -0.960  3.59554E-02  5.49744E-02 -1.90190E-02
    8983.992    -10.465  -0.920  3.76534E-02  5.90583E-02 -2.14049E-02
    8984.266    -10.191  -0.880  3.94562E-02  6.36081E-02 -2.41519E-02
    8984.528     -9.929  -0.840  4.13725E-02  6.86933E-02 -2.73208E-02
    8984.778     -9.679  -0.800  4.34118E-02  7.43943E-02 -3.09826E-02
    8985.016     -9.441  -0.760  4.55846E-02  8.08035E-02 -3.52189E-02
    8985.242     -9.215  -0.720  4.79023E-02  8.80252E-02 -4.01229E-02
    8985.455     -9.002  -0.680  5.03768E-02  9.61743E-02 -4.57975E-02
    8985.656     -8.801  -0.640  5.30198E-02  1.05372E-01 -5.23523E-02
    8985.845     -8.612  -0.600  5.58413E-02  1.15738E-01 -5.98962E-02
    8986.022     -8.435  -0.560  5.88475E-02  1.27372E-01 -6.85248E-02
    8986.186     -8.270  -0.520  6.20369E-02  1.40337E-01 -7.82996E-02
    8986.339     -8.118  -0.480  6.53954E-02  1.54617E-01 -8.92213E-02
    8986.479     -7.978  -0.440  6.88908E-02  1.70087E-01 -1.01196E-01
    8986.607     -7.850  -0.400  7.24682E-02  1.86479E-01 -1.14011E-01
    8986.723     -7.734  -0.360  7.60492E-02  2.03370E-01 -1.27321E-01
    8986.826     -7.630  -0.320  7.95374E-02  2.20211E-01 -1.40674E-01
    8986.918     -7.539  -0.280  8.28296E-02  2.36393E-01 -1.53563E-01
    8986.997     -7.460  -0.240  8.58299E-02  2.51328E-01 -1.65498E-01
    8987.064     -7.393  -0.200  8.84607E-02  2.64527E-01 -1.76066E-01
    8987.119     -7.338  -0.160  9.06668E-02  2.75630E-01 -1.84963E-01
    8987.162     -7.295  -0.120  9.24129E-02  2.84406E-01 -1.91994E-01
    8987.192     -7.265  -0.080  9.36785E-02  2.90730E-01 -1.97051E-01
    8987.217     -7.240   0.000  9.47174E-02  2.95810E-01 -2.01093E-01
    8987.271     -7.185   0.120  9.70906E-02  3.07268E-01 -2.10177E-01
    8987.314     -7.143   0.160  9.88717E-02  3.16169E-01 -2.17297E-01
    8987.369     -7.088   0.200  1.01135E-01  3.27524E-01 -2.26389E-01
    8987.436     -7.021   0.240  1.03858E-01  3.41198E-01 -2.37340E-01
    8987.515     -6.941   0.280  1.07068E-01  3.56918E-01 -2.49851E-01
    8987.607     -6.850   0.320  1.10709E-01  3.74249E-01 -2.63539E-01
    8987.710     -6.746   0.360  1.14858E-01  3.92713E-01 -2.77855E-01
    8987.826     -6.631   0.400  1.19623E-01  4.11786E-01 -2.92163E-01
    8987.954     -6.503   0.440  1.25194E-01  4.30966E-01 -3.05772E-01
    8988.094     -6.362   0.480  1.31787E-01  4.49883E-01 -3.18096E-01
    8988.247     -6.210   0.520  1.39688E-01  4.68280E-01 -3.28592E-01
    8988.411     -6.045   0.560  1.49110E-01  4.86072E-01 -3.36961E-01
    8988.588     -5.869   0.600  1.60131E-01  5.03186E-01 -3.43055E-01
    8988.777     -5.680   0.640  1.72724E-01  5.19717E-01 -3.46993E-01
    8988.978     -5.478   0.680  1.86810E-01  5.35734E-01 -3.48924E-01
    8989.192     -5.265   0.720  2.02573E-01  5.51299E-01 -3.48726E-01
    8989.417     -5.040   0.760  2.20733E-01  5.66511E-01 -3.45778E-01
    8989.655     -4.802   0.800  2.42386E-01  5.81461E-01 -3.39075E-01
    8989.905     -4.552   0.840  2.68535E-01  5.96188E-01 -3.27653E-01
    8990.167     -4.290   0.880  2.99521E-01  6.10759E-01 -3.11237E-01
    8990.441     -4.015   0.920  3.34643E-01  6.25206E-01 -2.90563E-01
    8990.728     -3.729   0.960  3.72769E-01  6.39574E-01 -2.66805E-01
    8991.027     -3.430   1.000  4.13480E-01  6.53834E-01 -2.40354E-01
    8991.337     -3.119   1.040  4.56886E-01  6.68032E-01 -2.11146E-01
    8991.661     -2.796   1.080  5.01154E-01  6.82143E-01 -1.80988E-01
    8991.996     -2.461   1.120  5.42738E-01  6.96159E-01 -1.53421E-01
    8992.343     -2.113   1.160  5.79853E-01  7.10087E-01 -1.30234E-01
    8992.703     -1.754   1.200  6.13198E-01  7.23908E-01 -1.10711E-01
    8993.075     -1.382   1.240  6.41073E-01  7.37560E-01 -9.64867E-02
    8993.459     -0.998   1.280  6.58204E-01  7.51081E-01 -9.28775E-02
    8993.855     -0.602   1.320  6.66427E-01  7.64404E-01 -9.79775E-02
    8994.264     -0.193   1.360  6.77708E-01  7.77503E-01 -9.97951E-02
    8994.684      0.227   1.400  6.98814E-01  7.90370E-01 -9.15560E-02
    8995.117      0.660   1.440  7.24692E-01  8.02997E-01 -7.83043E-02
    8995.562      1.105   1.480  7.48564E-01  8.15313E-01 -6.67489E-02
    8996.019      1.562   1.520  7.65720E-01  8.27330E-01 -6.16103E-02
    8996.489      2.032   1.560  7.72800E-01  8.39021E-01 -6.62209E-02
    8996.970      2.513   1.600  7.72657E-01  8.50356E-01 -7.76985E-02
    8997.464      3.007   1.640  7.74555E-01  8.61328E-01 -8.67734E-02
    8997.970      3.513   1.680  7.88451E-01  8.71891E-01 -8.34406E-02
    8998.488      4.031   1.720  8.22312E-01  8.82078E-01 -5.97668E-02
    8999.018      4.562   1.760  8.78433E-01  8.91823E-01 -1.33896E-02
    8999.561      5.104   1.800  9.56605E-01  9.01162E-01  5.54428E-02
    9000.116      5.659   1.840  1.05584E+00  9.10054E-01  1.45783E-01
    9000.683      6.226   1.880  1.17537E+00  9.18516E-01  2.56858E-01
    9001.262      6.805   1.920  1.29302E+00  9.26525E-01  3.66495E-01
    9001.853      7.396   1.960  1.35861E+00  9.34084E-01  4.24524E-01
    9002.457      8.000   2.000  1.34649E+00  9.41212E-01  4.05277E-01
    9003.072      8.615   2.040  1.29547E+00  9.47891E-01  3.47579E-01
    9003.700      9.243   2.080  1.25077E+00  9.54124E-01  2.96646E-01
    9004.340      9.883   2.120  1.21588E+00  9.59937E-01  2.55942E-01
    9004.992     10.536   2.160  1.18475E+00  9.65332E-01  2.19421E-01
    9005.657     11.200   2.200  1.16339E+00  9.70315E-01  1.93074E-01
    9006.334     11.877   2.240  1.15603E+00  9.74892E-01  1.81142E-01
    9007.022     12.566   2.280  1.15225E+00  9.79088E-01  1.73164E-01
    9007.723     13.267   2.320  1.13641E+00  9.82891E-01  1.53515E-01
    9008.437     13.980   2.360  1.10851E+00  9.86347E-01  1.22160E-01
    9009.162     14.705   2.400  1.08357E+00  9.89445E-01  9.41198E-02
    9009.900     15.443   2.440  1.07029E+00  9.92213E-01  7.80814E-02
    9010.650     16.193   2.480  1.06493E+00  9.94657E-01  7.02760E-02
    9011.412     16.955   2.520  1.06234E+00  9.96807E-01  6.55303E-02
    9012.186     17.729   2.560  1.06100E+00  9.98671E-01  6.23286E-02
    9012.972     18.515   2.600  1.06241E+00  1.00028E+00  6.21286E-02
    9013.771     19.314   2.640  1.06691E+00  1.00161E+00  6.53013E-02
    9014.581     20.125   2.680  1.07098E+00  1.00271E+00  6.82772E-02
    9015.404     20.948   2.720  1.06847E+00  1.00359E+00  6.48787E-02
    9016.240     21.783   2.760  1.05433E+00  1.00428E+00  5.00429E-02
    9017.087     22.630   2.800  1.03490E+00  1.00476E+00  3.01396E-02
    9017.946     23.490   2.840  1.01429E+00  1.00507E+00  9.21635E-03
    9018.818     24.361   2.880  9.95586E-01  1.00524E+00 -9.65261E-03
    9019.702     25.245   2.920  9.78725E-01  1.00525E+00 -2.65254E-02
    9020.598     26.141   2.960  9.62516E-01  1.00511E+00 -4.25984E-02
    9021.506     27.050   3.000  9.46464E-01  1.00488E+00 -5.84144E-02
    9022.427     27.970   3.040  9.31144E-01  1.00455E+00 -7.34046E-02
    9023.360     28.903   3.080  9.17574E-01  1.00411E+00 -8.65353E-02
    9024.305     29.848   3.120  9.06490E-01  1.00359E+00 -9.70968E-02
    9025.262     30.805   3.160  8.97746E-01  1.00299E+00 -1.05242E-01
    9026.231     31.774   3.200  8.90710E-01  1.00234E+00 -1.11627E-01
    9027.212     32.755   3.240  8.85020E-01  1.00164E+00 -1.16620E-01
    9028.206     33.749   3.280  8.80397E-01  1.00090E+00 -1.20505E-01
    9029.212     34.755   3.320  8.77013E-01  1.00013E+00 -1.23115E-01
    9030.230     35.773   3.360  8.75362E-01  9.99341E-01 -1.23978E-01
    9031.260     36.803   3.400  8.75818E-01  9.98523E-01 -1.22705E-01
    9032.302     37.846   3.440  8.78393E-01  9.97700E-01 -1.19308E-01
    9033.357     38.900   3.480  8.82834E-01  9.96877E-01 -1.14043E-01
    9034.424     39.967   3.520  8.88848E-01  9.96076E-01 -1.07228E-01
    9035.503     41.046   3.560  8.95963E-01  9.95259E-01 -9.92960E-02
    9036.594     42.137   3.600  9.04078E-01  9.94468E-01 -9.03897E-02
    9037.697     43.241   3.640  9.13197E-01  9.93707E-01 -8.05103E-02
    9038.813     44.356   3.680  9.23247E-01  9.92957E-01 -6.97100E-02
    9039.941     45.484   3.720  9.34023E-01  9.92241E-01 -5.82184E-02
    9041.081     46.624   3.760  9.45248E-01  9.91562E-01 -4.63139E-02
    9042.233     47.776   3.800  9.56596E-01  9.90918E-01 -3.43224E-02
    9043.397     48.940   3.840  9.67750E-01  9.90292E-01 -2.25416E-02
    9044.574     50.117   3.880  9.78663E-01  9.89727E-01 -1.10641E-02
    9045.762     51.306   3.920  9.89381E-01  9.89203E-01  1.77858E-04
    9046.963     52.506   3.960  9.99929E-01  9.88718E-01  1.12108E-02
    9048.176     53.720   4.000  1.01027E+00  9.88276E-01  2.19955E-02
    9049.402     54.945   4.040  1.02026E+00  9.87876E-01  3.23838E-02
    9050.639     56.182   4.080  1.02967E+00  9.87539E-01  4.21284E-02
    9051.889     57.432   4.120  1.03822E+00  9.87223E-01  5.10013E-02
    9053.151     58.694   4.160  1.04587E+00  9.86973E-01  5.88976E-02
    9054.425     59.968   4.200  1.05256E+00  9.86763E-01  6.57978E-02
    9055.711     61.254   4.240  1.05822E+00  9.86594E-01  7.16281E-02
    9057.009     62.553   4.280  1.06275E+00  9.86467E-01  7.62854E-02
    9058.320     63.863   4.320  1.06594E+00  9.86383E-01  7.95529E-02
    9059.643     65.186   4.360  1.06748E+00  9.86359E-01  8.11209E-02
    9060.978     66.521   4.400  1.06704E+00  9.86355E-01  8.06901E-02
    9062.325     67.868   4.440  1.06454E+00  9.86390E-01  7.81514E-02
    9063.685     69.228   4.480  1.06012E+00  9.86485E-01  7.36392E-02
    9065.056     70.599   4.520  1.05414E+00  9.86596E-01  6.75465E-02
    9066.440     71.983   4.560  1.04733E+00  9.86744E-01  6.05907E-02
    9067.836     73.379   4.600  1.04043E+00  9.86928E-01  5.34977E-02
    9069.244     74.787   4.640  1.03404E+00  9.87146E-01  4.68889E-02
    9070.664     76.208   4.680  1.02850E+00  9.87375E-01  4.11239E-02
    9072.097     77.640   4.720  1.02380E+00  9.87636E-01  3.61647E-02
    9073.542     79.085   4.760  1.01953E+00  9.87907E-01  3.16206E-02
    9074.999     80.542   4.800  1.01516E+00  9.88209E-01  2.69526E-02
    9076.468     82.011   4.840  1.01026E+00  9.88540E-01  2.17199E-02
    9077.949     83.492   4.880  1.00472E+00  9.88876E-01  1.58479E-02
    9079.443     84.986   4.920  9.98884E-01  9.89194E-01  9.69021E-03
    9080.948     86.492   4.960  9.93398E-01  9.89560E-01  3.83823E-03
    9082.466     88.009   5.000  9.88795E-01  9.89907E-01 -1.11267E-03
    9083.996     89.539   5.040  9.85415E-01  9.90275E-01 -4.86077E-03
    9085.539     91.082   5.080  9.83143E-01  9.90623E-01 -7.47953E-03
    9087.093     92.636   5.120  9.81625E-01  9.90989E-01 -9.36445E-03
    9088.660     94.203   5.160  9.80241E-01  9.91331E-01 -1.10900E-02
    9090.239     95.782   5.200  9.78489E-01  9.91669E-01 -1.31802E-02
    9091.830     97.373   5.240  9.76075E-01  9.92003E-01 -1.59276E-02
    9093.433     98.976   5.280  9.73076E-01  9.92331E-01 -1.92542E-02
    9095.048    100.591   5.320  9.69772E-01  9.92629E-01 -2.28567E-02
    9096.676    102.219   5.360  9.66423E-01  9.92919E-01 -2.64960E-02
    9098.316    103.859   5.400  9.62928E-01  9.93201E-01 -3.02732E-02
    9099.968    105.511   5.440  9.58912E-01  9.93428E-01 -3.45158E-02
    9101.632    107.175   5.480  9.54209E-01  9.93664E-01 -3.94547E-02
    9103.308    108.852   5.520  9.48965E-01  9.93845E-01 -4.48805E-02
    9104.997    110.540   5.560  9.43828E-01  9.94015E-01 -5.01863E-02
    9106.698    112.241   5.600  9.39498E-01  9.94172E-01 -5.46739E-02
    9108.411    113.954   5.640  9.36365E-01  9.94270E-01 -5.79052E-02
    9110.136    115.679   5.680  9.34616E-01  9.94354E-01 -5.97385E-02
    9111.873    117.416   5.720  9.34258E-01  9.94402E-01 -6.01436E-02
    9113.623    119.166   5.760  9.35419E-01  9.94412E-01 -5.89932E-02
    9115.384    120.928   5.800  9.38307E-01  9.94386E-01 -5.60791E-02
    9117.158    122.702   5.840  9.43102E-01  9.94347E-01 -5.12455E-02
    9118.945    124.488   5.880  9.49700E-01  9.94272E-01 -4.45717E-02
    9120.743    126.286   5.920  9.57682E-01  9.94135E-01 -3.64527E-02
    9122.553    128.097   5.960  9.66451E-01  9.93984E-01 -2.75332E-02
    9124.376    129.919   6.000  9.75510E-01  9.93806E-01 -1.82960E-02
