# # comment:                                                     FEFF 9.9.1  
# # Source:
# # Structure
# # Reduced
# # space
# # abc:
# # angles:
# # sites:
# # POT  SCF 100  7.0000   0, screened core-hole, AFOLP (folp(0)= 1.150)
# # Abs   Z=29 Rmt= 1.237 Rnm= 1.301 K  shell
# # Pot 1 Z=30 Rmt= 1.435 Rnm= 1.496
# # Pot 2 Z=29 Rmt= 1.237 Rnm= 1.301
# # Pot 3 Z= 8 Rmt= 1.033 Rnm= 1.104
# # Gam_ch=1.729E+00 H-L exch Vi= 0.000E+00 Vr= 0.000E+00
# # Mu=-8.132E+00eV kf=2.155E+00 Vint=-1.602E+01eV Rs_int= 1.683
# FMS rfms= 9.0000
# # PATH  Rmax=-1.000,  Keep_limit= 0.00, Heap_limit 0.00  Pwcrit= 2.50%
#  S02=0.950  Temp=   0.00  Debye_temp=   0.00  Global_sig2= 0.00000
#  Energy zero shift, vr, vi    0.00000E+00   0.00000E+00
#  Curved wave amplitude ratio filter   4.000%
#     file         sig2 tot  cw amp ratio   deg  nlegs   reff  inp sig2
#     0/   0 paths used
#  xsedge+ 50, used to normalize mu           2.4448E-04
#  -----------------------------------------------------------------------
#  omega    e    k    mu    mu0     chi     @#
    8984.016    -11.942  -1.000  3.07537E-02  5.42349E-02 -2.34812E-02
    8984.315    -11.643  -0.960  3.19775E-02  5.81530E-02 -2.61755E-02
    8984.601    -11.357  -0.920  3.32654E-02  6.25030E-02 -2.92376E-02
    8984.876    -11.082  -0.880  3.46240E-02  6.73480E-02 -3.27240E-02
    8985.138    -10.820  -0.840  3.60610E-02  7.27613E-02 -3.67003E-02
    8985.388    -10.570  -0.800  3.75856E-02  7.88278E-02 -4.12422E-02
    8985.625    -10.332  -0.760  3.92086E-02  8.56449E-02 -4.64362E-02
    8985.851    -10.107  -0.720  4.09428E-02  9.33223E-02 -5.23795E-02
    8986.064     -9.894  -0.680  4.28024E-02  1.01981E-01 -5.91786E-02
    8986.266     -9.692  -0.640  4.48027E-02  1.11748E-01 -6.69457E-02
    8986.455     -9.503  -0.600  4.69585E-02  1.22749E-01 -7.57909E-02
    8986.631     -9.327  -0.560  4.92817E-02  1.35090E-01 -8.58087E-02
    8986.796     -9.162  -0.520  5.17771E-02  1.48834E-01 -9.70572E-02
    8986.948     -9.010  -0.480  5.44363E-02  1.63966E-01 -1.09530E-01
    8987.089     -8.869  -0.440  5.72314E-02  1.80353E-01 -1.23121E-01
    8987.217     -8.741  -0.400  6.01098E-02  1.97712E-01 -1.37602E-01
    8987.332     -8.626  -0.360  6.29939E-02  2.15597E-01 -1.52603E-01
    8987.436     -8.522  -0.320  6.57884E-02  2.33430E-01 -1.67642E-01
    8987.527     -8.431  -0.280  6.83956E-02  2.50568E-01 -1.82173E-01
    8987.607     -8.351  -0.240  7.07312E-02  2.66393E-01 -1.95662E-01
    8987.674     -8.284  -0.200  7.27363E-02  2.80383E-01 -2.07647E-01
    8987.729     -8.229  -0.160  7.43802E-02  2.92158E-01 -2.17777E-01
    8987.771     -8.187  -0.120  7.56531E-02  3.01470E-01 -2.25817E-01
    8987.802     -8.156  -0.080  7.65571E-02  3.08182E-01 -2.31625E-01
    8987.826     -8.132   0.000  7.72790E-02  3.13577E-01 -2.36298E-01
    8987.881     -8.077   0.120  7.89345E-02  3.25741E-01 -2.46807E-01
    8987.924     -8.034   0.160  8.01452E-02  3.35203E-01 -2.55058E-01
    8987.979     -7.979   0.200  8.16390E-02  3.47303E-01 -2.65664E-01
    8988.046     -7.912   0.240  8.33387E-02  3.61866E-01 -2.78528E-01
    8988.125     -7.833   0.280  8.51914E-02  3.78638E-01 -2.93447E-01
    8988.216     -7.742   0.320  8.70729E-02  3.97172E-01 -3.10099E-01
    8988.320     -7.638   0.360  8.89548E-02  4.16978E-01 -3.28023E-01
    8988.436     -7.522   0.400  9.08421E-02  4.37516E-01 -3.46674E-01
    8988.564     -7.394   0.440  9.27457E-02  4.58249E-01 -3.65504E-01
    8988.704     -7.254   0.480  9.47938E-02  4.78793E-01 -3.83999E-01
    8988.856     -7.102   0.520  9.71484E-02  4.98901E-01 -4.01753E-01
    8989.021     -6.937   0.560  9.99832E-02  5.18440E-01 -4.18457E-01
    8989.198     -6.760   0.600  1.03479E-01  5.37375E-01 -4.33896E-01
    8989.387     -6.571   0.640  1.07832E-01  5.55738E-01 -4.47905E-01
    8989.588     -6.370   0.680  1.13226E-01  5.73614E-01 -4.60388E-01
    8989.801     -6.157   0.720  1.19818E-01  5.91083E-01 -4.71265E-01
    8990.027     -5.931   0.760  1.27705E-01  6.08199E-01 -4.80494E-01
    8990.265     -5.693   0.800  1.36833E-01  6.25049E-01 -4.88216E-01
    8990.514     -5.443   0.840  1.46810E-01  6.41666E-01 -4.94857E-01
    8990.777     -5.181   0.880  1.57004E-01  6.58091E-01 -5.01087E-01
    8991.051     -4.907   0.920  1.66841E-01  6.74350E-01 -5.07510E-01
    8991.337     -4.621   0.960  1.76249E-01  6.90458E-01 -5.14210E-01
    8991.636     -4.322   1.000  1.86316E-01  7.06401E-01 -5.20085E-01
    8991.947     -4.011   1.040  1.99278E-01  7.22174E-01 -5.22896E-01
    8992.270     -3.688   1.080  2.17933E-01  7.37767E-01 -5.19834E-01
    8992.605     -3.353   1.120  2.44612E-01  7.53143E-01 -5.08530E-01
    8992.953     -3.005   1.160  2.79929E-01  7.68280E-01 -4.88350E-01
    8993.313     -2.645   1.200  3.21808E-01  7.83153E-01 -4.61345E-01
    8993.684     -2.274   1.240  3.64556E-01  7.97736E-01 -4.33181E-01
    8994.068     -1.890   1.280  4.01048E-01  8.11959E-01 -4.10911E-01
    8994.465     -1.493   1.320  4.32005E-01  8.25832E-01 -3.93827E-01
    8994.873     -1.085   1.360  4.65289E-01  8.39306E-01 -3.74016E-01
    8995.294     -0.664   1.400  5.06296E-01  8.52346E-01 -3.46050E-01
    8995.727     -0.231   1.440  5.60659E-01  8.64925E-01 -3.04265E-01
    8996.172      0.214   1.480  6.34516E-01  8.77034E-01 -2.42517E-01
    8996.629      0.671   1.520  7.25927E-01  8.88645E-01 -1.62717E-01
    8997.098      1.140   1.560  8.27184E-01  8.99707E-01 -7.25236E-02
    8997.580      1.622   1.600  9.35367E-01  9.10258E-01  2.51089E-02
    8998.073      2.116   1.640  1.04924E+00  9.20253E-01  1.28990E-01
    8998.579      2.621   1.680  1.16094E+00  9.29668E-01  2.31269E-01
    8999.098      3.140   1.720  1.26693E+00  9.38544E-01  3.28390E-01
    8999.628      3.670   1.760  1.37516E+00  9.46840E-01  4.28318E-01
    9000.170      4.213   1.800  1.48036E+00  9.54580E-01  5.25776E-01
    9000.725      4.767   1.840  1.54846E+00  9.61766E-01  5.86699E-01
    9001.292      5.334   1.880  1.57607E+00  9.68403E-01  6.07670E-01
    9001.871      5.913   1.920  1.60846E+00  9.74499E-01  6.33962E-01
    9002.463      6.505   1.960  1.65182E+00  9.80081E-01  6.71740E-01
    9003.066      7.108   2.000  1.66994E+00  9.85134E-01  6.84806E-01
    9003.682      7.724   2.040  1.63857E+00  9.89711E-01  6.48858E-01
    9004.310      8.352   2.080  1.56422E+00  9.93799E-01  5.70419E-01
    9004.950      8.992   2.120  1.46950E+00  9.97431E-01  4.72072E-01
    9005.602      9.644   2.160  1.37703E+00  1.00064E+00  3.76389E-01
    9006.266     10.309   2.200  1.30744E+00  1.00343E+00  3.04013E-01
    9006.943     10.985   2.240  1.25688E+00  1.00584E+00  2.51033E-01
    9007.632     11.674   2.280  1.20815E+00  1.00789E+00  2.00262E-01
    9008.333     12.375   2.320  1.15326E+00  1.00959E+00  1.43672E-01
    9009.046     13.088   2.360  1.09327E+00  1.01099E+00  8.22850E-02
    9009.772     13.814   2.400  1.03311E+00  1.01207E+00  2.10393E-02
    9010.509     14.551   2.440  9.82543E-01  1.01288E+00 -3.03329E-02
    9011.259     15.301   2.480  9.47683E-01  1.01345E+00 -6.57652E-02
    9012.021     16.063   2.520  9.23478E-01  1.01378E+00 -9.03030E-02
    9012.795     16.837   2.560  9.05401E-01  1.01391E+00 -1.08505E-01
    9013.582     17.624   2.600  9.00320E-01  1.01385E+00 -1.13534E-01
    9014.380     18.422   2.640  9.05322E-01  1.01363E+00 -1.08313E-01
    9015.191     19.233   2.680  9.14492E-01  1.01326E+00 -9.87641E-02
    9016.014     20.056   2.720  9.22438E-01  1.01275E+00 -9.03097E-02
    9016.849     20.891   2.760  9.26694E-01  1.01212E+00 -8.54258E-02
    9017.696     21.738   2.800  9.27046E-01  1.01140E+00 -8.43556E-02
    9018.556     22.598   2.840  9.24143E-01  1.01060E+00 -8.64579E-02
    9019.428     23.470   2.880  9.18604E-01  1.00975E+00 -9.11420E-02
    9020.312     24.354   2.920  9.10335E-01  1.00882E+00 -9.84862E-02
    9021.208     25.250   2.960  8.99199E-01  1.00788E+00 -1.08676E-01
    9022.116     26.158   3.000  8.85502E-01  1.00687E+00 -1.21372E-01
    9023.036     27.079   3.040  8.70683E-01  1.00588E+00 -1.35198E-01
    9023.969     28.011   3.080  8.56783E-01  1.00487E+00 -1.48084E-01
    9024.914     28.956   3.120  8.45345E-01  1.00387E+00 -1.58528E-01
    9025.871     29.913   3.160  8.37108E-01  1.00288E+00 -1.65775E-01
    9026.840     30.882   3.200  8.32689E-01  1.00190E+00 -1.69212E-01
    9027.822     31.864   3.240  8.32384E-01  1.00095E+00 -1.68569E-01
    9028.815     32.858   3.280  8.35806E-01  1.00004E+00 -1.64235E-01
    9029.821     33.863   3.320  8.42477E-01  9.99171E-01 -1.56694E-01
    9030.839     34.881   3.360  8.52128E-01  9.98363E-01 -1.46235E-01
    9031.870     35.912   3.400  8.64321E-01  9.97578E-01 -1.33257E-01
    9032.912     36.954   3.440  8.78809E-01  9.96859E-01 -1.18051E-01
    9033.967     38.009   3.480  8.95283E-01  9.96190E-01 -1.00907E-01
    9035.033     39.075   3.520  9.13186E-01  9.95590E-01 -8.24035E-02
    9036.112     40.154   3.560  9.31721E-01  9.95040E-01 -6.33194E-02
    9037.204     41.246   3.600  9.50280E-01  9.94564E-01 -4.42836E-02
    9038.307     42.349   3.640  9.68381E-01  9.94161E-01 -2.57807E-02
    9039.422     43.465   3.680  9.85811E-01  9.93812E-01 -8.00087E-03
    9040.550     44.592   3.720  1.00283E+00  9.93536E-01  9.29647E-03
    9041.690     45.732   3.760  1.01997E+00  9.93335E-01  2.66346E-02
    9042.842     46.884   3.800  1.03755E+00  9.93185E-01  4.43693E-02
    9044.007     48.049   3.840  1.05553E+00  9.93110E-01  6.24196E-02
    9045.183     49.225   3.880  1.07329E+00  9.93109E-01  8.01785E-02
    9046.372     50.414   3.920  1.08977E+00  9.93160E-01  9.66137E-02
    9047.573     51.615   3.960  1.10386E+00  9.93281E-01  1.10576E-01
    9048.786     52.828   4.000  1.11474E+00  9.93452E-01  1.21286E-01
    9050.011     54.053   4.040  1.12212E+00  9.93694E-01  1.28422E-01
    9051.249     55.291   4.080  1.12608E+00  9.93985E-01  1.32091E-01
    9052.498     56.540   4.120  1.12710E+00  9.94344E-01  1.32761E-01
    9053.760     57.802   4.160  1.12585E+00  9.94748E-01  1.31101E-01
    9055.034     59.076   4.200  1.12287E+00  9.95194E-01  1.27673E-01
    9056.321     60.363   4.240  1.11851E+00  9.95681E-01  1.22832E-01
    9057.619     61.661   4.280  1.11284E+00  9.96208E-01  1.16635E-01
    9058.930     62.972   4.320  1.10539E+00  9.96774E-01  1.08619E-01
    9060.252     64.294   4.360  1.09541E+00  9.97378E-01  9.80309E-02
    9061.587     65.629   4.400  1.08251E+00  9.98017E-01  8.44943E-02
    9062.935     66.977   4.440  1.06714E+00  9.98667E-01  6.84714E-02
    9064.294     68.336   4.480  1.05038E+00  9.99348E-01  5.10366E-02
    9065.666     69.708   4.520  1.03336E+00  1.00004E+00  3.33268E-02
    9067.049     71.091   4.560  1.01674E+00  1.00075E+00  1.59871E-02
    9068.445     72.487   4.600  1.00057E+00  1.00147E+00 -9.04228E-04
    9069.854     73.896   4.640  9.84726E-01  1.00219E+00 -1.74686E-02
    9071.274     75.316   4.680  9.69339E-01  1.00292E+00 -3.35767E-02
    9072.706     76.749   4.720  9.55024E-01  1.00364E+00 -4.86114E-02
    9074.151     78.193   4.760  9.42749E-01  1.00435E+00 -6.16014E-02
    9075.608     79.650   4.800  9.33375E-01  1.00504E+00 -7.16623E-02
    9077.077     81.119   4.840  9.27424E-01  1.00574E+00 -7.83138E-02
    9078.559     82.601   4.880  9.24897E-01  1.00639E+00 -8.14901E-02
    9080.052     84.094   4.920  9.25645E-01  1.00705E+00 -8.14009E-02
    9081.558     85.600   4.960  9.29425E-01  1.00765E+00 -7.82229E-02
    9083.076     87.118   5.000  9.36172E-01  1.00824E+00 -7.20648E-02
    9084.606     88.648   5.040  9.45592E-01  1.00879E+00 -6.31946E-02
    9086.148     90.190   5.080  9.57136E-01  1.00930E+00 -5.21627E-02
    9087.703     91.745   5.120  9.70055E-01  1.00979E+00 -3.97387E-02
    9089.269     93.311   5.160  9.83455E-01  1.01022E+00 -2.67690E-02
    9090.848     94.890   5.200  9.96481E-01  1.01061E+00 -1.41297E-02
    9092.439     96.481   5.240  1.00824E+00  1.01096E+00 -2.71190E-03
    9094.042     98.084   5.280  1.01801E+00  1.01128E+00  6.73007E-03
    9095.658     99.700   5.320  1.02507E+00  1.01151E+00  1.35514E-02
    9097.285    101.328   5.360  1.02902E+00  1.01173E+00  1.72987E-02
    9098.925    102.967   5.400  1.02969E+00  1.01189E+00  1.77950E-02
    9100.577    104.619   5.440  1.02726E+00  1.01199E+00  1.52675E-02
    9102.241    106.284   5.480  1.02234E+00  1.01204E+00  1.02981E-02
    9103.918    107.960   5.520  1.01577E+00  1.01202E+00  3.75031E-03
    9105.606    109.649   5.560  1.00856E+00  1.01198E+00 -3.42496E-03
    9107.307    111.349   5.600  1.00145E+00  1.01187E+00 -1.04264E-02
    9109.020    113.062   5.640  9.94849E-01  1.01172E+00 -1.68694E-02
    9110.745    114.787   5.680  9.88681E-01  1.01150E+00 -2.28154E-02
    9112.483    116.525   5.720  9.82701E-01  1.01125E+00 -2.85506E-02
    9114.232    118.274   5.760  9.76676E-01  1.01094E+00 -3.42659E-02
    9115.994    120.036   5.800  9.70713E-01  1.01059E+00 -3.98773E-02
    9117.768    121.810   5.840  9.65266E-01  1.01020E+00 -4.49324E-02
    9119.554    123.596   5.880  9.61128E-01  1.00977E+00 -4.86414E-02
    9121.352    125.394   5.920  9.59266E-01  1.00930E+00 -5.00387E-02
    9123.163    127.205   5.960  9.60635E-01  1.00880E+00 -4.81697E-02
    9124.986    129.028   6.000  9.66478E-01  1.00824E+00 -4.17600E-02
