# # comment:                                                     FEFF 9.9.1  
# # Source:
# # Structure
# # Reduced
# # space
# # abc:
# # angles:
# # sites:
# # POT  SCF 100  7.0000   0, screened core-hole, AFOLP (folp(0)= 1.150)
# # Abs   Z=29 Rmt= 1.194 Rnm= 1.258 K  shell
# # Pot 1 Z=62 Rmt= 1.680 Rnm= 1.766
# # Pot 2 Z=29 Rmt= 1.194 Rnm= 1.258
# # Pot 3 Z= 8 Rmt= 1.054 Rnm= 1.109
# # Gam_ch=1.729E+00 H-L exch Vi= 0.000E+00 Vr= 0.000E+00
# # Mu=-8.173E+00eV kf=2.081E+00 Vint=-1.754E+01eV Rs_int= 1.743
# FMS rfms= 9.0000
# # PATH  Rmax=-1.000,  Keep_limit= 0.00, Heap_limit 0.00  Pwcrit= 2.50%
#  S02=0.950  Temp=   0.00  Debye_temp=   0.00  Global_sig2= 0.00000
#  Energy zero shift, vr, vi    0.00000E+00   0.00000E+00
#  Curved wave amplitude ratio filter   4.000%
#     file         sig2 tot  cw amp ratio   deg  nlegs   reff  inp sig2
#     0/   0 paths used
#  xsedge+ 50, used to normalize mu           2.4447E-04
#  -----------------------------------------------------------------------
#  omega    e    k    mu    mu0     chi     @#
    8984.590    -11.983  -1.000  3.16297E-02  5.80283E-02 -2.63986E-02
    8984.889    -11.684  -0.960  3.28949E-02  6.23599E-02 -2.94650E-02
    8985.176    -11.397  -0.920  3.42284E-02  6.71825E-02 -3.29541E-02
    8985.450    -11.123  -0.880  3.56372E-02  7.25690E-02 -3.69317E-02
    8985.712    -10.861  -0.840  3.71302E-02  7.86046E-02 -4.14743E-02
    8985.962    -10.611  -0.800  3.87176E-02  8.53878E-02 -4.66702E-02
    8986.200    -10.373  -0.760  4.04116E-02  9.30320E-02 -5.26204E-02
    8986.425    -10.148  -0.720  4.22263E-02  1.01665E-01 -5.94389E-02
    8986.639     -9.934  -0.680  4.41776E-02  1.11429E-01 -6.72511E-02
    8986.840     -9.733  -0.640  4.62825E-02  1.22471E-01 -7.61890E-02
    8987.029     -9.544  -0.600  4.85576E-02  1.34940E-01 -8.63828E-02
    8987.205     -9.367  -0.560  5.10158E-02  1.48961E-01 -9.79450E-02
    8987.370     -9.203  -0.520  5.36623E-02  1.64608E-01 -1.10946E-01
    8987.522     -9.050  -0.480  5.64872E-02  1.81867E-01 -1.25379E-01
    8987.663     -8.910  -0.440  5.94586E-02  2.00585E-01 -1.41126E-01
    8987.791     -8.782  -0.400  6.25173E-02  2.20434E-01 -1.57917E-01
    8987.907     -8.666  -0.360  6.55767E-02  2.40900E-01 -1.75323E-01
    8988.010     -8.563  -0.320  6.85321E-02  2.61312E-01 -1.92779E-01
    8988.102     -8.471  -0.280  7.12778E-02  2.80925E-01 -2.09647E-01
    8988.181     -8.392  -0.240  7.37248E-02  2.99026E-01 -2.25301E-01
    8988.248     -8.325  -0.200  7.58136E-02  3.15017E-01 -2.39203E-01
    8988.303     -8.270  -0.160  7.75146E-02  3.28463E-01 -2.50948E-01
    8988.345     -8.228  -0.120  7.88188E-02  3.39087E-01 -2.60269E-01
    8988.376     -8.197  -0.080  7.97281E-02  3.46738E-01 -2.67010E-01
    8988.400     -8.173   0.000  8.04145E-02  3.52883E-01 -2.72468E-01
    8988.455     -8.118   0.120  8.22119E-02  3.66742E-01 -2.84530E-01
    8988.498     -8.075   0.160  8.35433E-02  3.77492E-01 -2.93948E-01
    8988.553     -8.020   0.200  8.52043E-02  3.91216E-01 -3.06011E-01
    8988.620     -7.953   0.240  8.71324E-02  4.07698E-01 -3.20566E-01
    8988.699     -7.874   0.280  8.92829E-02  4.26617E-01 -3.37334E-01
    8988.790     -7.783   0.320  9.15183E-02  4.47433E-01 -3.55915E-01
    8988.894     -7.679   0.360  9.38438E-02  4.69550E-01 -3.75706E-01
    8989.010     -7.563   0.400  9.61750E-02  4.92270E-01 -3.96095E-01
    8989.138     -7.435   0.440  9.86141E-02  5.15017E-01 -4.16403E-01
    8989.278     -7.295   0.480  1.01228E-01  5.37305E-01 -4.36076E-01
    8989.431     -7.142   0.520  1.04168E-01  5.58819E-01 -4.54651E-01
    8989.595     -6.978   0.560  1.07564E-01  5.79401E-01 -4.71837E-01
    8989.772     -6.801   0.600  1.11659E-01  5.99056E-01 -4.87398E-01
    8989.961     -6.612   0.640  1.16566E-01  6.17787E-01 -5.01221E-01
    8990.162     -6.411   0.680  1.22425E-01  6.35701E-01 -5.13276E-01
    8990.375     -6.198   0.720  1.29338E-01  6.52899E-01 -5.23561E-01
    8990.601     -5.972   0.760  1.37307E-01  6.69501E-01 -5.32194E-01
    8990.839     -5.734   0.800  1.46264E-01  6.85556E-01 -5.39292E-01
    8991.089     -5.484   0.840  1.56157E-01  7.01182E-01 -5.45025E-01
    8991.351     -5.222   0.880  1.66618E-01  7.16418E-01 -5.49800E-01
    8991.625     -4.948   0.920  1.76774E-01  7.31288E-01 -5.54515E-01
    8991.912     -4.661   0.960  1.85596E-01  7.45867E-01 -5.60271E-01
    8992.210     -4.363   1.000  1.92694E-01  7.60132E-01 -5.67438E-01
    8992.521     -4.052   1.040  1.98628E-01  7.74115E-01 -5.75487E-01
    8992.844     -3.729   1.080  2.04240E-01  7.87797E-01 -5.83558E-01
    8993.180     -3.393   1.120  2.10614E-01  8.01174E-01 -5.90560E-01
    8993.527     -3.046   1.160  2.19568E-01  8.14256E-01 -5.94688E-01
    8993.887     -2.686   1.200  2.33741E-01  8.27007E-01 -5.93266E-01
    8994.259     -2.314   1.240  2.55578E-01  8.39411E-01 -5.83833E-01
    8994.643     -1.930   1.280  2.86679E-01  8.51468E-01 -5.64789E-01
    8995.039     -1.534   1.320  3.27504E-01  8.63137E-01 -5.35632E-01
    8995.447     -1.126   1.360  3.78102E-01  8.74393E-01 -4.96291E-01
    8995.868     -0.705   1.400  4.41501E-01  8.85256E-01 -4.43756E-01
    8996.301     -0.272   1.440  5.25167E-01  8.95683E-01 -3.70515E-01
    8996.746      0.173   1.480  6.32914E-01  9.05648E-01 -2.72734E-01
    8997.203      0.630   1.520  7.56673E-01  9.15171E-01 -1.58498E-01
    8997.672      1.099   1.560  8.88784E-01  9.24208E-01 -3.54239E-02
    8998.154      1.581   1.600  1.03302E+00  9.32779E-01  1.00243E-01
    8998.648      2.075   1.640  1.20715E+00  9.40865E-01  2.66290E-01
    8999.154      2.581   1.680  1.44245E+00  9.48488E-01  4.93967E-01
    8999.672      3.099   1.720  1.74334E+00  9.55605E-01  7.87733E-01
    9000.202      3.629   1.760  2.01305E+00  9.62243E-01  1.05080E+00
    9000.745      4.172   1.800  2.07724E+00  9.68403E-01  1.10884E+00
    9001.299      4.726   1.840  1.93258E+00  9.74090E-01  9.58494E-01
    9001.866      5.293   1.880  1.74703E+00  9.79313E-01  7.67712E-01
    9002.445      5.872   1.920  1.60478E+00  9.84096E-01  6.20685E-01
    9003.037      6.464   1.960  1.50249E+00  9.88427E-01  5.14066E-01
    9003.640      7.067   2.000  1.42279E+00  9.92355E-01  4.30435E-01
    9004.256      7.683   2.040  1.35692E+00  9.95869E-01  3.61050E-01
    9004.884      8.311   2.080  1.30081E+00  9.98996E-01  3.01810E-01
    9005.524      8.951   2.120  1.24633E+00  1.00175E+00  2.44589E-01
    9006.176      9.603   2.160  1.19348E+00  1.00413E+00  1.89351E-01
    9006.841     10.268   2.200  1.14592E+00  1.00620E+00  1.39728E-01
    9007.517     10.944   2.240  1.11307E+00  1.00794E+00  1.05129E-01
    9008.206     11.633   2.280  1.09904E+00  1.00938E+00  8.96603E-02
    9008.907     12.334   2.320  1.09534E+00  1.01054E+00  8.48033E-02
    9009.620     13.047   2.360  1.08943E+00  1.01144E+00  7.79907E-02
    9010.346     13.773   2.400  1.08233E+00  1.01212E+00  7.02099E-02
    9011.083     14.510   2.440  1.08584E+00  1.01256E+00  7.32825E-02
    9011.833     15.260   2.480  1.10739E+00  1.01282E+00  9.45676E-02
    9012.595     16.022   2.520  1.14019E+00  1.01288E+00  1.27305E-01
    9013.369     16.796   2.560  1.16074E+00  1.01280E+00  1.47942E-01
    9014.156     17.583   2.600  1.15841E+00  1.01255E+00  1.45852E-01
    9014.954     18.381   2.640  1.13216E+00  1.01218E+00  1.19980E-01
    9015.765     19.192   2.680  1.08875E+00  1.01169E+00  7.70618E-02
    9016.588     20.015   2.720  1.03807E+00  1.01110E+00  2.69716E-02
    9017.423     20.850   2.760  9.88746E-01  1.01041E+00 -2.16603E-02
    9018.271     21.698   2.800  9.44561E-01  1.00965E+00 -6.50932E-02
    9019.130     22.557   2.840  9.06671E-01  1.00885E+00 -1.02180E-01
    9020.002     23.429   2.880  8.74962E-01  1.00800E+00 -1.33041E-01
    9020.886     24.313   2.920  8.48744E-01  1.00712E+00 -1.58372E-01
    9021.782     25.209   2.960  8.27349E-01  1.00619E+00 -1.78843E-01
    9022.690     26.117   3.000  8.09996E-01  1.00526E+00 -1.95265E-01
    9023.611     27.038   3.040  7.95971E-01  1.00433E+00 -2.08355E-01
    9024.543     27.970   3.080  7.85188E-01  1.00341E+00 -2.18224E-01
    9025.488     28.915   3.120  7.78209E-01  1.00248E+00 -2.24273E-01
    9026.445     29.872   3.160  7.74960E-01  1.00158E+00 -2.26621E-01
    9027.415     30.842   3.200  7.75202E-01  1.00071E+00 -2.25511E-01
    9028.396     31.823   3.240  7.78921E-01  9.99880E-01 -2.20959E-01
    9029.390     32.817   3.280  7.85974E-01  9.99063E-01 -2.13089E-01
    9030.395     33.823   3.320  7.96317E-01  9.98308E-01 -2.01991E-01
    9031.413     34.841   3.360  8.10013E-01  9.97595E-01 -1.87582E-01
    9032.444     35.871   3.400  8.27481E-01  9.96926E-01 -1.69445E-01
    9033.486     36.913   3.440  8.48583E-01  9.96302E-01 -1.47720E-01
    9034.541     37.968   3.480  8.73130E-01  9.95747E-01 -1.22617E-01
    9035.608     39.035   3.520  9.00380E-01  9.95241E-01 -9.48607E-02
    9036.687     40.114   3.560  9.29026E-01  9.94806E-01 -6.57802E-02
    9037.778     41.205   3.600  9.57368E-01  9.94445E-01 -3.70770E-02
    9038.881     42.308   3.640  9.83504E-01  9.94133E-01 -1.06288E-02
    9039.997     43.424   3.680  1.00569E+00  9.93871E-01  1.18143E-02
    9041.124     44.551   3.720  1.02276E+00  9.93703E-01  2.90599E-02
    9042.264     45.691   3.760  1.03449E+00  9.93565E-01  4.09258E-02
    9043.416     46.844   3.800  1.04151E+00  9.93520E-01  4.79941E-02
    9044.581     48.008   3.840  1.04448E+00  9.93524E-01  5.09546E-02
    9045.757     49.184   3.880  1.04428E+00  9.93578E-01  5.06996E-02
    9046.946     50.373   3.920  1.04193E+00  9.93702E-01  4.82294E-02
    9048.147     51.574   3.960  1.03857E+00  9.93875E-01  4.46995E-02
    9049.360     52.787   4.000  1.03545E+00  9.94116E-01  4.13310E-02
    9050.585     54.012   4.040  1.03352E+00  9.94405E-01  3.91163E-02
    9051.823     55.250   4.080  1.03355E+00  9.94759E-01  3.87946E-02
    9053.072     56.500   4.120  1.03610E+00  9.95136E-01  4.09650E-02
    9054.334     57.761   4.160  1.04202E+00  9.95575E-01  4.64453E-02
    9055.608     59.035   4.200  1.05191E+00  9.96033E-01  5.58793E-02
    9056.895     60.322   4.240  1.06590E+00  9.96554E-01  6.93424E-02
    9058.193     61.620   4.280  1.08317E+00  9.97111E-01  8.60573E-02
    9059.504     62.931   4.320  1.10197E+00  9.97683E-01  1.04289E-01
    9060.827     64.254   4.360  1.11963E+00  9.98289E-01  1.21345E-01
    9062.162     65.589   4.400  1.13308E+00  9.98926E-01  1.34156E-01
    9063.509     66.936   4.440  1.14011E+00  9.99574E-01  1.40535E-01
    9064.868     68.295   4.480  1.13981E+00  1.00025E+00  1.39561E-01
    9066.240     69.667   4.520  1.13266E+00  1.00091E+00  1.31751E-01
    9067.624     71.051   4.560  1.12034E+00  1.00161E+00  1.18721E-01
    9069.020     72.447   4.600  1.10487E+00  1.00230E+00  1.02567E-01
    9070.428     73.855   4.640  1.08822E+00  1.00299E+00  8.52327E-02
    9071.848     75.275   4.680  1.07178E+00  1.00369E+00  6.80849E-02
    9073.281     76.708   4.720  1.05609E+00  1.00437E+00  5.17123E-02
    9074.725     78.152   4.760  1.04129E+00  1.00505E+00  3.62387E-02
    9076.182     79.609   4.800  1.02749E+00  1.00569E+00  2.17994E-02
    9077.651     81.079   4.840  1.01502E+00  1.00633E+00  8.68910E-03
    9079.133     82.560   4.880  1.00402E+00  1.00695E+00 -2.93495E-03
    9080.626     84.053   4.920  9.94153E-01  1.00755E+00 -1.33930E-02
    9082.132     85.559   4.960  9.84795E-01  1.00810E+00 -2.33090E-02
    9083.650     87.077   5.000  9.75446E-01  1.00865E+00 -3.32013E-02
    9085.180     88.607   5.040  9.65860E-01  1.00915E+00 -4.32929E-02
    9086.722     90.149   5.080  9.56259E-01  1.00962E+00 -5.33597E-02
    9088.277     91.704   5.120  9.47432E-01  1.01004E+00 -6.26120E-02
    9089.843     93.270   5.160  9.40428E-01  1.01043E+00 -6.99996E-02
    9091.422     94.849   5.200  9.36071E-01  1.01077E+00 -7.46984E-02
    9093.013     96.440   5.240  9.34445E-01  1.01107E+00 -7.66230E-02
    9094.617     98.044   5.280  9.35056E-01  1.01132E+00 -7.62656E-02
    9096.232     99.659   5.320  9.37166E-01  1.01151E+00 -7.43432E-02
    9097.860    101.287   5.360  9.40164E-01  1.01167E+00 -7.15105E-02
    9099.499    102.926   5.400  9.43434E-01  1.01177E+00 -6.83393E-02
    9101.151    104.578   5.440  9.46646E-01  1.01183E+00 -6.51809E-02
    9102.816    106.243   5.480  9.49730E-01  1.01184E+00 -6.21063E-02
    9104.492    107.919   5.520  9.52701E-01  1.01180E+00 -5.91001E-02
    9106.181    109.608   5.560  9.55386E-01  1.01170E+00 -5.63125E-02
    9107.881    111.308   5.600  9.57598E-01  1.01157E+00 -5.39762E-02
    9109.594    113.021   5.640  9.59351E-01  1.01138E+00 -5.20332E-02
    9111.320    114.747   5.680  9.61373E-01  1.01115E+00 -4.97765E-02
    9113.057    116.484   5.720  9.64750E-01  1.01087E+00 -4.61209E-02
    9114.806    118.233   5.760  9.70257E-01  1.01053E+00 -4.02709E-02
    9116.568    119.995   5.800  9.77964E-01  1.01017E+00 -3.22033E-02
    9118.342    121.769   5.840  9.87208E-01  1.00977E+00 -2.25609E-02
    9120.128    123.555   5.880  9.97028E-01  1.00931E+00 -1.22809E-02
    9121.927    125.354   5.920  1.00648E+00  1.00884E+00 -2.35545E-03
    9123.737    127.164   5.960  1.01441E+00  1.00834E+00  6.07548E-03
    9125.560    128.987   6.000  1.01942E+00  1.00777E+00  1.16471E-02
