# # comment:                                                     FEFF 9.9.1  
# # Source:
# # Structure
# # Reduced
# # space
# # abc:
# # angles:
# # sites:
# # POT  SCF 100  7.0000   0, screened core-hole, AFOLP (folp(0)= 1.150)
# # Abs   Z=29 Rmt= 1.225 Rnm= 1.357 K  shell
# # Pot 1 Z=29 Rmt= 1.225 Rnm= 1.357
# # Pot 2 Z= 7 Rmt= 1.062 Rnm= 1.294
# # Pot 3 Z=17 Rmt= 1.372 Rnm= 1.531
# # Pot 4 Z= 8 Rmt= 1.342 Rnm= 1.369
# # Gam_ch=1.729E+00 H-L exch Vi= 0.000E+00 Vr= 0.000E+00
# # Mu=-7.279E+00eV kf=1.763E+00 Vint=-1.073E+01eV Rs_int= 2.057
# FMS rfms= 9.0000
# # PATH  Rmax=-1.000,  Keep_limit= 0.00, Heap_limit 0.00  Pwcrit= 2.50%
#  S02=0.950  Temp=   0.00  Debye_temp=   0.00  Global_sig2= 0.00000
#  Energy zero shift, vr, vi    0.00000E+00   0.00000E+00
#  Curved wave amplitude ratio filter   4.000%
#     file         sig2 tot  cw amp ratio   deg  nlegs   reff  inp sig2
#     0/   0 paths used
#  xsedge+ 50, used to normalize mu           2.3479E-04
#  -----------------------------------------------------------------------
#  omega    e    k    mu    mu0     chi     @#
    8983.548    -11.089  -1.000  3.63148E-02  5.80447E-02 -2.17298E-02
    8983.847    -10.790  -0.960  3.78698E-02  6.20010E-02 -2.41311E-02
    8984.133    -10.503  -0.920  3.95057E-02  6.63514E-02 -2.68457E-02
    8984.408    -10.229  -0.880  4.12291E-02  7.11479E-02 -2.99188E-02
    8984.670     -9.967  -0.840  4.30476E-02  7.64498E-02 -3.34022E-02
    8984.920     -9.717  -0.800  4.49702E-02  8.23249E-02 -3.73547E-02
    8985.157     -9.479  -0.760  4.70075E-02  8.88500E-02 -4.18425E-02
    8985.383     -9.254  -0.720  4.91718E-02  9.61107E-02 -4.69389E-02
    8985.596     -9.040  -0.680  5.14767E-02  1.04199E-01 -5.27228E-02
    8985.798     -8.839  -0.640  5.39369E-02  1.13213E-01 -5.92757E-02
    8985.987     -8.650  -0.600  5.65661E-02  1.23242E-01 -6.66763E-02
    8986.163     -8.473  -0.560  5.93747E-02  1.34365E-01 -7.49900E-02
    8986.328     -8.309  -0.520  6.23648E-02  1.46620E-01 -8.42551E-02
    8986.480     -8.156  -0.480  6.55241E-02  1.59986E-01 -9.44623E-02
    8986.620     -8.016  -0.440  6.88184E-02  1.74351E-01 -1.05532E-01
    8986.749     -7.888  -0.400  7.21860E-02  1.89482E-01 -1.17296E-01
    8986.864     -7.772  -0.360  7.55378E-02  2.05021E-01 -1.29483E-01
    8986.968     -7.669  -0.320  7.87657E-02  2.20503E-01 -1.41738E-01
    8987.059     -7.577  -0.280  8.17597E-02  2.35407E-01 -1.53647E-01
    8987.139     -7.498  -0.240  8.44267E-02  2.49218E-01 -1.64792E-01
    8987.206     -7.431  -0.200  8.67040E-02  2.61492E-01 -1.74788E-01
    8987.261     -7.376  -0.160  8.85609E-02  2.71884E-01 -1.83323E-01
    8987.303     -7.333  -0.120  8.99880E-02  2.80153E-01 -1.90165E-01
    8987.334     -7.303  -0.080  9.09866E-02  2.86147E-01 -1.95160E-01
    8987.358     -7.279   0.000  9.17485E-02  2.90993E-01 -1.99245E-01
    8987.413     -7.224   0.120  9.38331E-02  3.01959E-01 -2.08126E-01
    8987.456     -7.181   0.160  9.53442E-02  3.10572E-01 -2.15228E-01
    8987.511     -7.126   0.200  9.71881E-02  3.21695E-01 -2.24507E-01
    8987.578     -7.059   0.240  9.92641E-02  3.35281E-01 -2.36017E-01
    8987.657     -6.980   0.280  1.01502E-01  3.51243E-01 -2.49741E-01
    8987.748     -6.888   0.320  1.03777E-01  3.69385E-01 -2.65608E-01
    8987.852     -6.785   0.360  1.06021E-01  3.89412E-01 -2.83391E-01
    8987.968     -6.669   0.400  1.08194E-01  4.11018E-01 -3.02824E-01
    8988.096     -6.541   0.440  1.10385E-01  4.33938E-01 -3.23554E-01
    8988.236     -6.401   0.480  1.12739E-01  4.57949E-01 -3.45209E-01
    8988.388     -6.248   0.520  1.15389E-01  4.82857E-01 -3.67469E-01
    8988.553     -6.084   0.560  1.18560E-01  5.08608E-01 -3.90049E-01
    8988.730     -5.907   0.600  1.22380E-01  5.35116E-01 -4.12735E-01
    8988.919     -5.718   0.640  1.27053E-01  5.62367E-01 -4.35314E-01
    8989.120     -5.517   0.680  1.32710E-01  5.90335E-01 -4.57625E-01
    8989.333     -5.303   0.720  1.39556E-01  6.18975E-01 -4.79419E-01
    8989.559     -5.078   0.760  1.47814E-01  6.48224E-01 -5.00409E-01
    8989.796     -4.840   0.800  1.57830E-01  6.78004E-01 -5.20173E-01
    8990.046     -4.590   0.840  1.70069E-01  7.08179E-01 -5.38109E-01
    8990.309     -4.328   0.880  1.85184E-01  7.38615E-01 -5.53431E-01
    8990.583     -4.054   0.920  2.04184E-01  7.69142E-01 -5.64958E-01
    8990.869     -3.767   0.960  2.28626E-01  7.99557E-01 -5.70932E-01
    8991.168     -3.469   1.000  2.61006E-01  8.29690E-01 -5.68684E-01
    8991.479     -3.158   1.040  3.05253E-01  8.59341E-01 -5.54087E-01
    8991.802     -2.835   1.080  3.67549E-01  8.88245E-01 -5.20696E-01
    8992.137     -2.499   1.120  4.56787E-01  9.16268E-01 -4.59481E-01
    8992.485     -2.152   1.160  5.81425E-01  9.43170E-01 -3.61744E-01
    8992.844     -1.792   1.200  7.36795E-01  9.68780E-01 -2.31985E-01
    8993.216     -1.420   1.240  8.83342E-01  9.92941E-01 -1.09599E-01
    8993.600     -1.036   1.280  9.59864E-01  1.01555E+00 -5.56817E-02
    8993.997     -0.640   1.320  9.57761E-01  1.03646E+00 -7.86983E-02
    8994.405     -0.232   1.360  9.36475E-01  1.05560E+00 -1.19125E-01
    8994.826      0.189   1.400  9.52028E-01  1.07294E+00 -1.20917E-01
    8995.258      0.622   1.440  1.01877E+00  1.08842E+00 -6.96458E-02
    8995.703      1.067   1.480  1.11360E+00  1.10207E+00  1.15296E-02
    8996.161      1.524   1.520  1.18849E+00  1.11390E+00  7.45941E-02
    8996.630      1.993   1.560  1.22352E+00  1.12395E+00  9.95770E-02
    8997.112      2.475   1.600  1.24337E+00  1.13230E+00  1.11072E-01
    8997.605      2.969   1.640  1.23701E+00  1.13902E+00  9.79803E-02
    8998.111      3.475   1.680  1.18415E+00  1.14421E+00  3.99452E-02
    8998.630      3.993   1.720  1.12304E+00  1.14797E+00 -2.49249E-02
    8999.160      4.523   1.760  1.10347E+00  1.15039E+00 -4.69280E-02
    8999.702      5.066   1.800  1.13758E+00  1.15159E+00 -1.40101E-02
    9000.257      5.621   1.840  1.19053E+00  1.15169E+00  3.88335E-02
    9000.824      6.187   1.880  1.23959E+00  1.15078E+00  8.88118E-02
    9001.403      6.767   1.920  1.30402E+00  1.14900E+00  1.55026E-01
    9001.995      7.358   1.960  1.36833E+00  1.14641E+00  2.21920E-01
    9002.598      7.961   2.000  1.38511E+00  1.14313E+00  2.41977E-01
    9003.214      8.577   2.040  1.33202E+00  1.13926E+00  1.92761E-01
    9003.842      9.205   2.080  1.22885E+00  1.13490E+00  9.39543E-02
    9004.482      9.845   2.120  1.12786E+00  1.13009E+00 -2.22305E-03
    9005.134     10.497   2.160  1.07774E+00  1.12495E+00 -4.72061E-02
    9005.798     11.162   2.200  1.07222E+00  1.11952E+00 -4.73010E-02
    9006.475     11.838   2.240  1.07044E+00  1.11391E+00 -4.34650E-02
    9007.164     12.527   2.280  1.06845E+00  1.10810E+00 -3.96580E-02
    9007.865     13.228   2.320  1.07156E+00  1.10223E+00 -3.06692E-02
    9008.578     13.942   2.360  1.08276E+00  1.09628E+00 -1.35251E-02
    9009.304     14.667   2.400  1.10157E+00  1.09032E+00  1.12496E-02
    9010.041     15.405   2.440  1.12381E+00  1.08439E+00  3.94165E-02
    9010.791     16.154   2.480  1.14220E+00  1.07853E+00  6.36672E-02
    9011.553     16.916   2.520  1.15096E+00  1.07275E+00  7.82114E-02
    9012.327     17.691   2.560  1.15008E+00  1.06708E+00  8.30072E-02
    9013.114     18.477   2.600  1.14357E+00  1.06157E+00  8.20049E-02
    9013.912     19.276   2.640  1.13653E+00  1.05620E+00  8.03313E-02
    9014.723     20.086   2.680  1.13239E+00  1.05101E+00  8.13811E-02
    9015.546     20.909   2.720  1.13221E+00  1.04602E+00  8.61908E-02
    9016.381     21.744   2.760  1.13501E+00  1.04123E+00  9.37807E-02
    9017.228     22.592   2.800  1.13888E+00  1.03665E+00  1.02230E-01
    9018.088     23.451   2.840  1.14108E+00  1.03230E+00  1.08778E-01
    9018.960     24.323   2.880  1.13878E+00  1.02817E+00  1.10615E-01
    9019.844     25.207   2.920  1.12974E+00  1.02428E+00  1.05457E-01
    9020.740     26.103   2.960  1.11242E+00  1.02064E+00  9.17712E-02
    9021.648     27.011   3.000  1.08719E+00  1.01725E+00  6.99478E-02
    9022.568     27.932   3.040  1.05623E+00  1.01408E+00  4.21515E-02
    9023.501     28.864   3.080  1.02219E+00  1.01118E+00  1.10085E-02
    9024.446     29.809   3.120  9.87558E-01  1.00855E+00 -2.09900E-02
    9025.403     30.766   3.160  9.54377E-01  1.00614E+00 -5.17623E-02
    9026.372     31.736   3.200  9.24213E-01  1.00396E+00 -7.97460E-02
    9027.354     32.717   3.240  8.98509E-01  1.00206E+00 -1.03550E-01
    9028.347     33.711   3.280  8.78361E-01  1.00040E+00 -1.22041E-01
    9029.353     34.717   3.320  8.64136E-01  9.98974E-01 -1.34838E-01
    9030.371     35.735   3.360  8.55473E-01  9.97775E-01 -1.42302E-01
    9031.402     36.765   3.400  8.51814E-01  9.96833E-01 -1.45019E-01
    9032.444     37.807   3.440  8.52546E-01  9.96086E-01 -1.43540E-01
    9033.499     38.862   3.480  8.57680E-01  9.95588E-01 -1.37908E-01
    9034.565     39.929   3.520  8.67417E-01  9.95304E-01 -1.27886E-01
    9035.644     41.008   3.560  8.81885E-01  9.95232E-01 -1.13347E-01
    9036.735     42.099   3.600  9.01062E-01  9.95369E-01 -9.43065E-02
    9037.839     43.202   3.640  9.24383E-01  9.95712E-01 -7.13291E-02
    9038.954     44.318   3.680  9.50749E-01  9.96237E-01 -4.54886E-02
    9040.082     45.446   3.720  9.78703E-01  9.96961E-01 -1.82587E-02
    9041.222     46.585   3.760  1.00634E+00  9.97836E-01  8.50391E-03
    9042.374     47.738   3.800  1.03184E+00  9.98903E-01  3.29337E-02
    9043.539     48.902   3.840  1.05320E+00  1.00014E+00  5.30597E-02
    9044.715     50.078   3.880  1.06849E+00  1.00151E+00  6.69789E-02
    9045.904     51.267   3.920  1.07588E+00  1.00304E+00  7.28314E-02
    9047.105     52.468   3.960  1.07418E+00  1.00471E+00  6.94726E-02
    9048.318     53.681   4.000  1.06394E+00  1.00650E+00  5.74443E-02
    9049.543     54.906   4.040  1.04789E+00  1.00841E+00  3.94838E-02
    9050.781     56.144   4.080  1.03040E+00  1.01041E+00  1.99871E-02
    9052.030     57.394   4.120  1.01603E+00  1.01250E+00  3.52404E-03
    9053.292     58.656   4.160  1.00826E+00  1.01468E+00 -6.42139E-03
    9054.566     59.930   4.200  1.00884E+00  1.01694E+00 -8.10329E-03
    9055.852     61.216   4.240  1.01769E+00  1.01927E+00 -1.57764E-03
    9057.151     62.514   4.280  1.03332E+00  1.02165E+00  1.16692E-02
    9058.462     63.825   4.320  1.05354E+00  1.02404E+00  2.95010E-02
    9059.784     65.148   4.360  1.07616E+00  1.02650E+00  4.96627E-02
    9061.119     66.483   4.400  1.09883E+00  1.02896E+00  6.98688E-02
    9062.467     67.830   4.440  1.11939E+00  1.03142E+00  8.79648E-02
    9063.826     69.189   4.480  1.13596E+00  1.03386E+00  1.02098E-01
    9065.198     70.561   4.520  1.14697E+00  1.03631E+00  1.10657E-01
    9066.581     71.945   4.560  1.15120E+00  1.03872E+00  1.12481E-01
    9067.977     73.341   4.600  1.14839E+00  1.04107E+00  1.07320E-01
    9069.386     74.749   4.640  1.13930E+00  1.04340E+00  9.59032E-02
    9070.806     76.169   4.680  1.12521E+00  1.04565E+00  7.95614E-02
    9072.238     77.602   4.720  1.10743E+00  1.04785E+00  5.95886E-02
    9073.683     79.047   4.760  1.08706E+00  1.04996E+00  3.70961E-02
    9075.140     80.503   4.800  1.06537E+00  1.05196E+00  1.34053E-02
    9076.609     81.973   4.840  1.04387E+00  1.05390E+00 -1.00244E-02
    9078.091     83.454   4.880  1.02403E+00  1.05571E+00 -3.16870E-02
    9079.584     84.947   4.920  1.00710E+00  1.05740E+00 -5.03087E-02
    9081.090     86.453   4.960  9.93843E-01  1.05897E+00 -6.51298E-02
    9082.608     87.971   5.000  9.84503E-01  1.06044E+00 -7.59337E-02
    9084.138     89.501   5.040  9.78920E-01  1.06175E+00 -8.28313E-02
    9085.680     91.043   5.080  9.77047E-01  1.06296E+00 -8.59085E-02
    9087.235     92.598   5.120  9.78649E-01  1.06400E+00 -8.53520E-02
    9088.801     94.165   5.160  9.83114E-01  1.06489E+00 -8.17762E-02
    9090.380     95.743   5.200  9.89417E-01  1.06567E+00 -7.62501E-02
    9091.971     97.334   5.240  9.96425E-01  1.06628E+00 -6.98594E-02
    9093.574     98.938   5.280  1.00347E+00  1.06674E+00 -6.32722E-02
    9095.190    100.553   5.320  1.01010E+00  1.06706E+00 -5.69560E-02
    9096.817    102.181   5.360  1.01568E+00  1.06724E+00 -5.15635E-02
    9098.457    103.821   5.400  1.01928E+00  1.06727E+00 -4.79876E-02
    9100.109    105.473   5.440  1.02038E+00  1.06716E+00 -4.67840E-02
    9101.773    107.137   5.480  1.01945E+00  1.06692E+00 -4.74683E-02
    9103.450    108.813   5.520  1.01807E+00  1.06653E+00 -4.84576E-02
    9105.138    110.502   5.560  1.01840E+00  1.06603E+00 -4.76295E-02
    9106.839    112.203   5.600  1.02249E+00  1.06541E+00 -4.29159E-02
    9108.552    113.916   5.640  1.03179E+00  1.06466E+00 -3.28738E-02
    9110.277    115.641   5.680  1.04651E+00  1.06380E+00 -1.72837E-02
    9112.015    117.378   5.720  1.06529E+00  1.06284E+00  2.44599E-03
    9113.764    119.128   5.760  1.08525E+00  1.06180E+00  2.34495E-02
    9115.526    120.889   5.800  1.10281E+00  1.06065E+00  4.21584E-02
    9117.300    122.663   5.840  1.11480E+00  1.05944E+00  5.53561E-02
    9119.086    124.449   5.880  1.11955E+00  1.05817E+00  6.13815E-02
    9120.884    126.248   5.920  1.11797E+00  1.05683E+00  6.11371E-02
    9122.695    128.058   5.960  1.11319E+00  1.05546E+00  5.77281E-02
    9124.518    129.881   6.000  1.10863E+00  1.05400E+00  5.46256E-02
