# # comment:                                                     FEFF 9.9.1  
# # Source:
# # Structure
# # Reduced
# # space
# # abc:
# # angles:109.692393
# # sites:
# # POT  SCF 100  7.0000   0, screened core-hole, AFOLP (folp(0)= 1.150)
# # Abs   Z=29 Rmt= 1.178 Rnm= 1.282 K  shell
# # Pot 1 Z=25 Rmt= 1.297 Rnm= 1.409
# # Pot 2 Z=29 Rmt= 1.188 Rnm= 1.289
# # Pot 3 Z=83 Rmt= 1.672 Rnm= 1.702
# # Pot 4 Z= 8 Rmt= 1.025 Rnm= 1.105
# # Gam_ch=1.729E+00 H-L exch Vi= 0.000E+00 Vr= 0.000E+00
# # Mu=-9.369E+00eV kf=2.166E+00 Vint=-1.717E+01eV Rs_int= 1.675
# FMS rfms= 9.0000
# # PATH  Rmax=-1.000,  Keep_limit= 0.00, Heap_limit 0.00  Pwcrit= 2.50%
#  S02=0.950  Temp=   0.00  Debye_temp=   0.00  Global_sig2= 0.00000
#  Energy zero shift, vr, vi    0.00000E+00   0.00000E+00
#  Curved wave amplitude ratio filter   4.000%
#     file         sig2 tot  cw amp ratio   deg  nlegs   reff  inp sig2
#     0/   0 paths used
#  xsedge+ 50, used to normalize mu           2.4655E-04
#  -----------------------------------------------------------------------
#  omega    e    k    mu    mu0     chi     @#
    8984.343    -13.178  -1.000  3.44478E-02  5.23931E-02 -1.79453E-02
    8984.641    -12.880  -0.960  3.60995E-02  5.61238E-02 -2.00244E-02
    8984.928    -12.593  -0.920  3.78609E-02  6.02616E-02 -2.24007E-02
    8985.202    -12.319  -0.880  3.97425E-02  6.48654E-02 -2.51229E-02
    8985.464    -12.057  -0.840  4.17558E-02  7.00040E-02 -2.82482E-02
    8985.714    -11.807  -0.800  4.39141E-02  7.57569E-02 -3.18427E-02
    8985.952    -11.569  -0.760  4.62321E-02  8.22151E-02 -3.59830E-02
    8986.178    -11.344  -0.720  4.87257E-02  8.94815E-02 -4.07558E-02
    8986.391    -11.130  -0.680  5.14121E-02  9.76691E-02 -4.62570E-02
    8986.592    -10.929  -0.640  5.43084E-02  1.06897E-01 -5.25887E-02
    8986.781    -10.740  -0.600  5.74300E-02  1.17282E-01 -5.98520E-02
    8986.958    -10.563  -0.560  6.07874E-02  1.28923E-01 -6.81357E-02
    8987.122    -10.399  -0.520  6.43818E-02  1.41879E-01 -7.74972E-02
    8987.275    -10.246  -0.480  6.81981E-02  1.56135E-01 -8.79367E-02
    8987.415    -10.106  -0.440  7.21982E-02  1.71566E-01 -9.93679E-02
    8987.543     -9.978  -0.400  7.63152E-02  1.87906E-01 -1.11591E-01
    8987.659     -9.862  -0.360  8.04532E-02  2.04738E-01 -1.24285E-01
    8987.763     -9.759  -0.320  8.44946E-02  2.21519E-01 -1.37024E-01
    8987.854     -9.667  -0.280  8.83156E-02  2.37645E-01 -1.49329E-01
    8987.933     -9.588  -0.240  9.18028E-02  2.52535E-01 -1.60732E-01
    8988.000     -9.521  -0.200  9.48653E-02  2.65702E-01 -1.70836E-01
    8988.055     -9.466  -0.160  9.74380E-02  2.76784E-01 -1.79346E-01
    8988.098     -9.423  -0.120  9.94774E-02  2.85551E-01 -1.86074E-01
    8988.128     -9.393  -0.080  1.00955E-01  2.91871E-01 -1.90916E-01
    8988.153     -9.369   0.000  1.02156E-01  2.96951E-01 -1.94795E-01
    8988.208     -9.314   0.120  1.04972E-01  3.08417E-01 -2.03445E-01
    8988.250     -9.271   0.160  1.07117E-01  3.17334E-01 -2.10217E-01
    8988.305     -9.216   0.200  1.09890E-01  3.28746E-01 -2.18855E-01
    8988.372     -9.149   0.240  1.13264E-01  3.42471E-01 -2.29207E-01
    8988.451     -9.070   0.280  1.17325E-01  3.58295E-01 -2.40970E-01
    8988.543     -8.978   0.320  1.22096E-01  3.75820E-01 -2.53724E-01
    8988.646     -8.875   0.360  1.27675E-01  3.94554E-01 -2.66879E-01
    8988.762     -8.759   0.400  1.34226E-01  4.13993E-01 -2.79767E-01
    8988.890     -8.631   0.440  1.41979E-01  4.33677E-01 -2.91698E-01
    8989.030     -8.491   0.480  1.51064E-01  4.53249E-01 -3.02185E-01
    8989.183     -8.338   0.520  1.61453E-01  4.72442E-01 -3.10989E-01
    8989.347     -8.174   0.560  1.72809E-01  4.91169E-01 -3.18361E-01
    8989.524     -7.997   0.600  1.84484E-01  5.09401E-01 -3.24917E-01
    8989.713     -7.808   0.640  1.95791E-01  5.27166E-01 -3.31375E-01
    8989.914     -7.607   0.680  2.06415E-01  5.44526E-01 -3.38111E-01
    8990.128     -7.393   0.720  2.16419E-01  5.61553E-01 -3.45134E-01
    8990.353     -7.168   0.760  2.26064E-01  5.78338E-01 -3.52275E-01
    8990.591     -6.930   0.800  2.35623E-01  5.94923E-01 -3.59300E-01
    8990.841     -6.680   0.840  2.45543E-01  6.11377E-01 -3.65834E-01
    8991.103     -6.418   0.880  2.56267E-01  6.27737E-01 -3.71470E-01
    8991.377     -6.144   0.920  2.68284E-01  6.44007E-01 -3.75722E-01
    8991.664     -5.857   0.960  2.84297E-01  6.60200E-01 -3.75903E-01
    8991.963     -5.559   1.000  3.10669E-01  6.76299E-01 -3.65630E-01
    8992.274     -5.248   1.040  3.56213E-01  6.92339E-01 -3.36126E-01
    8992.597     -4.925   1.080  4.31772E-01  7.08268E-01 -2.76496E-01
    8992.932     -4.589   1.120  5.50883E-01  7.24048E-01 -1.73165E-01
    8993.279     -4.242   1.160  7.19720E-01  7.39697E-01 -1.99764E-02
    8993.639     -3.882   1.200  8.97547E-01  7.55147E-01  1.42400E-01
    8994.011     -3.510   1.240  9.73424E-01  7.70351E-01  2.03072E-01
    8994.395     -3.126   1.280  8.90232E-01  7.85320E-01  1.04912E-01
    8994.791     -2.730   1.320  7.31847E-01  7.99998E-01 -6.81511E-02
    8995.200     -2.322   1.360  5.97865E-01  8.14335E-01 -2.16471E-01
    8995.620     -1.901   1.400  5.26169E-01  8.28317E-01 -3.02148E-01
    8996.053     -1.468   1.440  5.14162E-01  8.41890E-01 -3.27728E-01
    8996.498     -1.023   1.480  5.42553E-01  8.55045E-01 -3.12492E-01
    8996.955     -0.566   1.520  5.80478E-01  8.67727E-01 -2.87249E-01
    8997.425     -0.097   1.560  6.05145E-01  8.79947E-01 -2.74802E-01
    8997.906      0.385   1.600  6.19780E-01  8.91656E-01 -2.71876E-01
    8998.400      0.879   1.640  6.36004E-01  9.02846E-01 -2.66842E-01
    8998.906      1.385   1.680  6.67820E-01  9.13491E-01 -2.45671E-01
    8999.424      1.903   1.720  7.32448E-01  9.23586E-01 -1.91138E-01
    8999.954      2.433   1.760  8.20857E-01  9.33128E-01 -1.12271E-01
    9000.497      2.976   1.800  8.92698E-01  9.42116E-01 -4.94186E-02
    9001.052      3.531   1.840  9.30682E-01  9.50530E-01 -1.98472E-02
    9001.619      4.098   1.880  9.44028E-01  9.58370E-01 -1.43424E-02
    9002.198      4.677   1.920  9.67625E-01  9.65661E-01  1.96377E-03
    9002.789      5.268   1.960  1.04749E+00  9.72407E-01  7.50785E-02
    9003.393      5.871   2.000  1.18003E+00  9.78614E-01  2.01413E-01
    9004.008      6.487   2.040  1.30328E+00  9.84287E-01  3.18990E-01
    9004.636      7.115   2.080  1.37326E+00  9.89435E-01  3.83821E-01
    9005.276      7.755   2.120  1.40629E+00  9.94106E-01  4.12187E-01
    9005.929      8.407   2.160  1.40909E+00  9.98270E-01  4.10823E-01
    9006.593      9.072   2.200  1.36668E+00  1.00200E+00  3.64681E-01
    9007.270      9.748   2.240  1.30430E+00  1.00528E+00  2.99026E-01
    9007.958     10.437   2.280  1.27458E+00  1.00814E+00  2.66435E-01
    9008.660     11.138   2.320  1.29403E+00  1.01061E+00  2.83424E-01
    9009.373     11.852   2.360  1.33006E+00  1.01269E+00  3.17371E-01
    9010.098     12.577   2.400  1.33911E+00  1.01444E+00  3.24668E-01
    9010.836     13.315   2.440  1.31916E+00  1.01584E+00  3.03322E-01
    9011.586     14.064   2.480  1.29265E+00  1.01694E+00  2.75717E-01
    9012.348     14.826   2.520  1.26018E+00  1.01775E+00  2.42433E-01
    9013.122     15.601   2.560  1.20945E+00  1.01830E+00  1.91152E-01
    9013.908     16.387   2.600  1.14518E+00  1.01861E+00  1.26570E-01
    9014.707     17.186   2.640  1.08962E+00  1.01869E+00  7.09385E-02
    9015.518     17.996   2.680  1.04514E+00  1.01856E+00  2.65839E-02
    9016.340     18.819   2.720  1.01510E+00  1.01825E+00 -3.15628E-03
    9017.176     19.654   2.760  9.98516E-01  1.01778E+00 -1.92668E-02
    9018.023     20.502   2.800  9.91304E-01  1.01718E+00 -2.58762E-02
    9018.882     21.361   2.840  9.88113E-01  1.01643E+00 -2.83171E-02
    9019.754     22.233   2.880  9.84297E-01  1.01558E+00 -3.12847E-02
    9020.638     23.117   2.920  9.77940E-01  1.01464E+00 -3.67037E-02
    9021.534     24.013   2.960  9.69258E-01  1.01360E+00 -4.43436E-02
    9022.443     24.921   3.000  9.58261E-01  1.01250E+00 -5.42431E-02
    9023.363     25.842   3.040  9.44062E-01  1.01134E+00 -6.72748E-02
    9024.296     26.775   3.080  9.26616E-01  1.01015E+00 -8.35309E-02
    9025.241     27.719   3.120  9.07648E-01  1.00892E+00 -1.01273E-01
    9026.198     28.676   3.160  8.89499E-01  1.00766E+00 -1.18163E-01
    9027.167     29.646   3.200  8.74074E-01  1.00640E+00 -1.32325E-01
    9028.148     30.627   3.240  8.62461E-01  1.00515E+00 -1.42693E-01
    9029.142     31.621   3.280  8.54600E-01  1.00389E+00 -1.49290E-01
    9030.148     32.627   3.320  8.50052E-01  1.00265E+00 -1.52602E-01
    9031.166     33.645   3.360  8.48372E-01  1.00143E+00 -1.53055E-01
    9032.196     34.675   3.400  8.49205E-01  1.00023E+00 -1.51030E-01
    9033.239     35.717   3.440  8.52314E-01  9.99101E-01 -1.46787E-01
    9034.293     36.772   3.480  8.57577E-01  9.97986E-01 -1.40409E-01
    9035.360     37.839   3.520  8.64993E-01  9.96912E-01 -1.31919E-01
    9036.439     38.918   3.560  8.74593E-01  9.95902E-01 -1.21309E-01
    9037.530     40.009   3.600  8.86653E-01  9.94916E-01 -1.08263E-01
    9038.633     41.112   3.640  9.01411E-01  9.94019E-01 -9.26082E-02
    9039.749     42.228   3.680  9.18457E-01  9.93150E-01 -7.46928E-02
    9040.877     43.356   3.720  9.36863E-01  9.92372E-01 -5.55088E-02
    9042.017     44.496   3.760  9.55228E-01  9.91624E-01 -3.63956E-02
    9043.169     45.648   3.800  9.71979E-01  9.90968E-01 -1.89888E-02
    9044.333     46.812   3.840  9.85397E-01  9.90365E-01 -4.96784E-03
    9045.510     47.989   3.880  9.94299E-01  9.89834E-01  4.46455E-03
    9046.698     49.177   3.920  9.98253E-01  9.89353E-01  8.89938E-03
    9047.899     50.378   3.960  9.97909E-01  9.88944E-01  8.96529E-03
    9049.112     51.591   4.000  9.94865E-01  9.88585E-01  6.28005E-03
    9050.338     52.817   4.040  9.91495E-01  9.88301E-01  3.19395E-03
    9051.575     54.054   4.080  9.90362E-01  9.88088E-01  2.27399E-03
    9052.825     55.304   4.120  9.93603E-01  9.87925E-01  5.67829E-03
    9054.087     56.566   4.160  1.00232E+00  9.87833E-01  1.44834E-02
    9055.361     57.840   4.200  1.01576E+00  9.87790E-01  2.79698E-02
    9056.647     59.126   4.240  1.03146E+00  9.87816E-01  4.36442E-02
    9057.945     60.424   4.280  1.04639E+00  9.87887E-01  5.85061E-02
    9059.256     61.735   4.320  1.05861E+00  9.88003E-01  7.06116E-02
    9060.579     63.058   4.360  1.06762E+00  9.88185E-01  7.94317E-02
    9061.914     64.393   4.400  1.07335E+00  9.88387E-01  8.49588E-02
    9063.261     65.740   4.440  1.07557E+00  9.88652E-01  8.69218E-02
    9064.621     67.099   4.480  1.07378E+00  9.88956E-01  8.48269E-02
    9065.992     68.471   4.520  1.06820E+00  9.89278E-01  7.89271E-02
    9067.376     69.855   4.560  1.06022E+00  9.89658E-01  7.05615E-02
    9068.772     71.251   4.600  1.05168E+00  9.90052E-01  6.16294E-02
    9070.180     72.659   4.640  1.04448E+00  9.90479E-01  5.40057E-02
    9071.600     74.079   4.680  1.04012E+00  9.90939E-01  4.91815E-02
    9073.033     75.512   4.720  1.03932E+00  9.91407E-01  4.79165E-02
    9074.478     76.957   4.760  1.04197E+00  9.91880E-01  5.00876E-02
    9075.935     78.414   4.800  1.04704E+00  9.92381E-01  5.46612E-02
    9077.404     79.883   4.840  1.05280E+00  9.92886E-01  5.99167E-02
    9078.885     81.364   4.880  1.05726E+00  9.93392E-01  6.38634E-02
    9080.379     82.857   4.920  1.05862E+00  9.93898E-01  6.47258E-02
    9081.884     84.363   4.960  1.05588E+00  9.94403E-01  6.14786E-02
    9083.402     85.881   5.000  1.04903E+00  9.94906E-01  5.41206E-02
    9084.932     87.411   5.040  1.03876E+00  9.95406E-01  4.33499E-02
    9086.475     88.953   5.080  1.02605E+00  9.95901E-01  3.01512E-02
    9088.029     90.508   5.120  1.01165E+00  9.96368E-01  1.52798E-02
    9089.596     92.075   5.160  9.95889E-01  9.96825E-01 -9.36774E-04
    9091.175     93.653   5.200  9.79096E-01  9.97274E-01 -1.81776E-02
    9092.766     95.245   5.240  9.62046E-01  9.97667E-01 -3.56212E-02
    9094.369     96.848   5.280  9.46047E-01  9.98069E-01 -5.20220E-02
    9095.984     98.463   5.320  9.32185E-01  9.98415E-01 -6.62300E-02
    9097.612    100.091   5.360  9.21112E-01  9.98748E-01 -7.76358E-02
    9099.252    101.731   5.400  9.12996E-01  9.99045E-01 -8.60488E-02
    9100.904    103.383   5.440  9.08110E-01  9.99326E-01 -9.12168E-02
    9102.568    105.047   5.480  9.06921E-01  9.99548E-01 -9.26263E-02
    9104.244    106.723   5.520  9.10002E-01  9.99751E-01 -8.97482E-02
    9105.933    108.412   5.560  9.17580E-01  9.99893E-01 -8.23125E-02
    9107.634    110.113   5.600  9.29399E-01  1.00002E+00 -7.06194E-02
    9109.347    111.826   5.640  9.44431E-01  1.00010E+00 -5.56735E-02
    9111.072    113.551   5.680  9.61319E-01  1.00015E+00 -3.88285E-02
    9112.809    115.288   5.720  9.78905E-01  1.00013E+00 -2.12243E-02
    9114.559    117.038   5.760  9.96634E-01  1.00009E+00 -3.45808E-03
    9116.321    118.799   5.800  1.01387E+00  1.00002E+00  1.38585E-02
    9118.094    120.573   5.840  1.02922E+00  9.99876E-01  2.93439E-02
    9119.881    122.359   5.880  1.04070E+00  9.99721E-01  4.09787E-02
    9121.679    124.158   5.920  1.04652E+00  9.99528E-01  4.69869E-02
    9123.489    125.968   5.960  1.04557E+00  9.99270E-01  4.62954E-02
    9125.312    127.791   6.000  1.03745E+00  9.98973E-01  3.84805E-02
