# # comment:                                                     FEFF 9.9.1  
# # Source:
# # Structure
# # Reduced
# # space
# # abc:
# # angles:
# # sites:
# # POT  SCF 100  7.0000   0, screened core-hole, AFOLP (folp(0)= 1.150)
# # Abs   Z=29 Rmt= 1.267 Rnm= 1.337 K  shell
# # Pot 1 Z=55 Rmt= 2.209 Rnm= 2.253
# # Pot 2 Z=29 Rmt= 1.273 Rnm= 1.343
# # Pot 3 Z=15 Rmt= 0.940 Rnm= 1.156
# # Pot 4 Z= 8 Rmt= 0.899 Rnm= 1.044
# # Gam_ch=1.729E+00 H-L exch Vi= 0.000E+00 Vr= 0.000E+00
# # Mu=-6.877E+00eV kf=2.410E+00 Vint=-1.757E+01eV Rs_int= 1.505
# FMS rfms= 9.0000
# # PATH  Rmax=-1.000,  Keep_limit= 0.00, Heap_limit 0.00  Pwcrit= 2.50%
#  S02=0.950  Temp=   0.00  Debye_temp=   0.00  Global_sig2= 0.00000
#  Energy zero shift, vr, vi    0.00000E+00   0.00000E+00
#  Curved wave amplitude ratio filter   4.000%
#     file         sig2 tot  cw amp ratio   deg  nlegs   reff  inp sig2
#     0/   0 paths used
#  xsedge+ 50, used to normalize mu           2.4813E-04
#  -----------------------------------------------------------------------
#  omega    e    k    mu    mu0     chi     @#
    8983.717    -10.687  -1.000  4.76348E-02  5.38996E-02 -6.26477E-03
    8984.016    -10.389  -0.960  5.07986E-02  5.78483E-02 -7.04978E-03
    8984.302    -10.102  -0.920  5.42786E-02  6.22412E-02 -7.96255E-03
    8984.576     -9.828  -0.880  5.81156E-02  6.71441E-02 -9.02854E-03
    8984.838     -9.566  -0.840  6.23552E-02  7.26341E-02 -1.02789E-02
    8985.088     -9.316  -0.800  6.70486E-02  7.88003E-02 -1.17517E-02
    8985.326     -9.078  -0.760  7.22524E-02  8.57453E-02 -1.34930E-02
    8985.552     -8.853  -0.720  7.80277E-02  9.35851E-02 -1.55574E-02
    8985.765     -8.639  -0.680  8.44388E-02  1.02447E-01 -1.80087E-02
    8985.966     -8.438  -0.640  9.15503E-02  1.12468E-01 -2.09173E-02
    8986.155     -8.249  -0.600  9.94220E-02  1.23778E-01 -2.43562E-02
    8986.332     -8.072  -0.560  1.08102E-01  1.36493E-01 -2.83912E-02
    8986.497     -7.908  -0.520  1.17615E-01  1.50681E-01 -3.30651E-02
    8986.649     -7.755  -0.480  1.27951E-01  1.66326E-01 -3.83754E-02
    8986.789     -7.615  -0.440  1.39045E-01  1.83293E-01 -4.42481E-02
    8986.917     -7.487  -0.400  1.50765E-01  2.01283E-01 -5.05174E-02
    8987.033     -7.371  -0.360  1.62903E-01  2.19828E-01 -5.69245E-02
    8987.137     -7.268  -0.320  1.75174E-01  2.38321E-01 -6.31470E-02
    8987.228     -7.176  -0.280  1.87231E-01  2.56088E-01 -6.88572E-02
    8987.307     -7.097  -0.240  1.98691E-01  2.72481E-01 -7.37904E-02
    8987.374     -7.030  -0.200  2.09167E-01  2.86961E-01 -7.77936E-02
    8987.429     -6.975  -0.160  2.18298E-01  2.99134E-01 -8.08363E-02
    8987.472     -6.932  -0.120  2.25768E-01  3.08751E-01 -8.29830E-02
    8987.502     -6.902  -0.080  2.31327E-01  3.15675E-01 -8.43484E-02
    8987.527     -6.877   0.000  2.35987E-01  3.21236E-01 -8.52490E-02
    8987.582     -6.823   0.120  2.46401E-01  3.33763E-01 -8.73627E-02
    8987.624     -6.780   0.160  2.54745E-01  3.43494E-01 -8.87490E-02
    8987.679     -6.725   0.200  2.65831E-01  3.55904E-01 -9.00724E-02
    8987.746     -6.658   0.240  2.79957E-01  3.70810E-01 -9.08528E-02
    8987.826     -6.579   0.280  2.97408E-01  3.87897E-01 -9.04883E-02
    8987.917     -6.487   0.320  3.18453E-01  4.06688E-01 -8.82351E-02
    8988.021     -6.384   0.360  3.43287E-01  4.26618E-01 -8.33306E-02
    8988.136     -6.268   0.400  3.71870E-01  4.47107E-01 -7.52367E-02
    8988.264     -6.140   0.440  4.03716E-01  4.67589E-01 -6.38730E-02
    8988.405     -6.000   0.480  4.37560E-01  4.87602E-01 -5.00415E-02
    8988.557     -5.847   0.520  4.71226E-01  5.06920E-01 -3.56938E-02
    8988.722     -5.683   0.560  5.01490E-01  5.25398E-01 -2.39089E-02
    8988.898     -5.506   0.600  5.24730E-01  5.43009E-01 -1.82788E-02
    8989.087     -5.317   0.640  5.37899E-01  5.59795E-01 -2.18952E-02
    8989.289     -5.116   0.680  5.39551E-01  5.75877E-01 -3.63255E-02
    8989.502     -4.902   0.720  5.30715E-01  5.91333E-01 -6.06183E-02
    8989.727     -4.677   0.760  5.15685E-01  6.06301E-01 -9.06157E-02
    8989.965     -4.439   0.800  5.01049E-01  6.20826E-01 -1.19777E-01
    8990.215     -4.189   0.840  4.93508E-01  6.35043E-01 -1.41535E-01
    8990.477     -3.927   0.880  4.96890E-01  6.48971E-01 -1.52081E-01
    8990.752     -3.653   0.920  5.09872E-01  6.62698E-01 -1.52826E-01
    8991.038     -3.366   0.960  5.26357E-01  6.76236E-01 -1.49879E-01
    8991.337     -3.067   1.000  5.40912E-01  6.89628E-01 -1.48716E-01
    8991.648     -2.757   1.040  5.52160E-01  7.02888E-01 -1.50728E-01
    8991.971     -2.434   1.080  5.60110E-01  7.16021E-01 -1.55911E-01
    8992.306     -2.098   1.120  5.64698E-01  7.29044E-01 -1.64346E-01
    8992.654     -1.751   1.160  5.67771E-01  7.41933E-01 -1.74161E-01
    8993.013     -1.391   1.200  5.72825E-01  7.54674E-01 -1.81848E-01
    8993.385     -1.019   1.240  5.82190E-01  7.67270E-01 -1.85081E-01
    8993.769     -0.635   1.280  5.96099E-01  7.79726E-01 -1.83627E-01
    8994.165     -0.239   1.320  6.14778E-01  7.91979E-01 -1.77200E-01
    8994.574      0.169   1.360  6.39584E-01  8.04046E-01 -1.64461E-01
    8994.994      0.590   1.400  6.69388E-01  8.15884E-01 -1.46496E-01
    8995.427      1.023   1.440  7.02543E-01  8.27487E-01 -1.24944E-01
    8995.872      1.468   1.480  7.44495E-01  8.38849E-01 -9.43537E-02
    8996.329      1.925   1.520  8.03371E-01  8.49924E-01 -4.65531E-02
    8996.799      2.395   1.560  8.72259E-01  8.60685E-01  1.15737E-02
    8997.280      2.876   1.600  9.30877E-01  8.71146E-01  5.97304E-02
    8997.774      3.370   1.640  9.66981E-01  8.81280E-01  8.57002E-02
    8998.280      3.876   1.680  9.88237E-01  8.91062E-01  9.71753E-02
    8998.798      4.394   1.720  1.00485E+00  9.00465E-01  1.04383E-01
    8999.329      4.924   1.760  1.02020E+00  9.09507E-01  1.10688E-01
    8999.871      5.467   1.800  1.03891E+00  9.18162E-01  1.20747E-01
    9000.426      6.022   1.840  1.06786E+00  9.26428E-01  1.41430E-01
    9000.993      6.589   1.880  1.10688E+00  9.34302E-01  1.72579E-01
    9001.572      7.168   1.920  1.14594E+00  9.41740E-01  2.04203E-01
    9002.163      7.759   1.960  1.17466E+00  9.48785E-01  2.25879E-01
    9002.767      8.362   2.000  1.19379E+00  9.55435E-01  2.38357E-01
    9003.382      8.978   2.040  1.21094E+00  9.61651E-01  2.49289E-01
    9004.010      9.606   2.080  1.23053E+00  9.67453E-01  2.63074E-01
    9004.650     10.246   2.120  1.25063E+00  9.72866E-01  2.77766E-01
    9005.303     10.898   2.160  1.26751E+00  9.77873E-01  2.89638E-01
    9005.967     11.563   2.200  1.27321E+00  9.82497E-01  2.90711E-01
    9006.644     12.239   2.240  1.26224E+00  9.86722E-01  2.75519E-01
    9007.333     12.928   2.280  1.23600E+00  9.90572E-01  2.45429E-01
    9008.034     13.629   2.320  1.20037E+00  9.94056E-01  2.06314E-01
    9008.747     14.343   2.360  1.16717E+00  9.97198E-01  1.69976E-01
    9009.472     15.068   2.400  1.14588E+00  9.99983E-01  1.45898E-01
    9010.210     15.806   2.440  1.13625E+00  1.00246E+00  1.33788E-01
    9010.960     16.555   2.480  1.13395E+00  1.00460E+00  1.29349E-01
    9011.722     17.317   2.520  1.13409E+00  1.00646E+00  1.27630E-01
    9012.496     18.092   2.560  1.12876E+00  1.00801E+00  1.20743E-01
    9013.282     18.878   2.600  1.11226E+00  1.00931E+00  1.02950E-01
    9014.081     19.677   2.640  1.08813E+00  1.01035E+00  7.77726E-02
    9014.892     20.487   2.680  1.06232E+00  1.01113E+00  5.11879E-02
    9015.715     21.310   2.720  1.03596E+00  1.01172E+00  2.42445E-02
    9016.550     22.145   2.760  1.00973E+00  1.01208E+00 -2.34542E-03
    9017.397     22.993   2.800  9.84686E-01  1.01223E+00 -2.75474E-02
    9018.257     23.852   2.840  9.59990E-01  1.01222E+00 -5.22268E-02
    9019.128     24.724   2.880  9.35983E-01  1.01204E+00 -7.60537E-02
    9020.012     25.608   2.920  9.15008E-01  1.01172E+00 -9.67113E-02
    9020.908     26.504   2.960  8.98213E-01  1.01125E+00 -1.13038E-01
    9021.817     27.412   3.000  8.84915E-01  1.01066E+00 -1.25745E-01
    9022.737     28.333   3.040  8.74153E-01  1.00995E+00 -1.35796E-01
    9023.670     29.266   3.080  8.65191E-01  1.00917E+00 -1.43981E-01
    9024.615     30.210   3.120  8.57721E-01  1.00829E+00 -1.50568E-01
    9025.572     31.168   3.160  8.51839E-01  1.00733E+00 -1.55486E-01
    9026.541     32.137   3.200  8.47532E-01  1.00631E+00 -1.58778E-01
    9027.523     33.118   3.240  8.44729E-01  1.00523E+00 -1.60498E-01
    9028.516     34.112   3.280  8.43689E-01  1.00412E+00 -1.60433E-01
    9029.522     35.118   3.320  8.44425E-01  1.00298E+00 -1.58556E-01
    9030.540     36.136   3.360  8.47099E-01  1.00181E+00 -1.54707E-01
    9031.570     37.166   3.400  8.52056E-01  1.00063E+00 -1.48569E-01
    9032.613     38.208   3.440  8.59652E-01  9.99463E-01 -1.39811E-01
    9033.667     39.263   3.480  8.70034E-01  9.98278E-01 -1.28244E-01
    9034.734     40.330   3.520  8.83334E-01  9.97097E-01 -1.13763E-01
    9035.813     41.409   3.560  8.99453E-01  9.95944E-01 -9.64910E-02
    9036.904     42.500   3.600  9.17662E-01  9.94822E-01 -7.71601E-02
    9038.008     43.603   3.640  9.37162E-01  9.93713E-01 -5.65506E-02
    9039.123     44.719   3.680  9.57189E-01  9.92638E-01 -3.54488E-02
    9040.251     45.847   3.720  9.77021E-01  9.91604E-01 -1.45822E-02
    9041.391     46.987   3.760  9.96165E-01  9.90630E-01  5.53480E-03
    9042.543     48.139   3.800  1.01423E+00  9.89678E-01  2.45550E-02
    9043.707     49.303   3.840  1.03078E+00  9.88790E-01  4.19902E-02
    9044.884     50.480   3.880  1.04524E+00  9.87946E-01  5.72945E-02
    9046.073     51.668   3.920  1.05718E+00  9.87149E-01  7.00292E-02
    9047.273     52.869   3.960  1.06639E+00  9.86419E-01  7.99747E-02
    9048.487     54.082   4.000  1.07289E+00  9.85738E-01  8.71566E-02
    9049.712     55.308   4.040  1.07713E+00  9.85125E-01  9.20050E-02
    9050.949     56.545   4.080  1.07955E+00  9.84563E-01  9.49885E-02
    9052.199     57.795   4.120  1.08044E+00  9.84071E-01  9.63719E-02
    9053.461     59.057   4.160  1.07979E+00  9.83629E-01  9.61639E-02
    9054.735     60.331   4.200  1.07752E+00  9.83258E-01  9.42574E-02
    9056.021     61.617   4.240  1.07352E+00  9.82959E-01  9.05638E-02
    9057.320     62.915   4.280  1.06793E+00  9.82709E-01  8.52227E-02
    9058.630     64.226   4.320  1.06120E+00  9.82508E-01  7.86951E-02
    9059.953     65.549   4.360  1.05392E+00  9.82398E-01  7.15180E-02
    9061.288     66.884   4.400  1.04654E+00  9.82315E-01  6.42228E-02
    9062.635     68.231   4.440  1.03954E+00  9.82299E-01  5.72426E-02
    9063.995     69.590   4.480  1.03308E+00  9.82330E-01  5.07539E-02
    9065.366     70.962   4.520  1.02709E+00  9.82427E-01  4.46595E-02
    9066.750     72.346   4.560  1.02125E+00  9.82567E-01  3.86810E-02
    9068.146     73.742   4.600  1.01517E+00  9.82729E-01  3.24371E-02
    9069.554     75.150   4.640  1.00852E+00  9.82976E-01  2.55476E-02
    9070.975     76.570   4.680  1.00090E+00  9.83242E-01  1.76610E-02
    9072.407     78.003   4.720  9.92571E-01  9.83546E-01  9.02469E-03
    9073.852     79.448   4.760  9.83859E-01  9.83887E-01 -2.82386E-05
    9075.309     80.905   4.800  9.75304E-01  9.84264E-01 -8.95958E-03
    9076.778     82.374   4.840  9.67421E-01  9.84653E-01 -1.72313E-02
    9078.259     83.855   4.880  9.60639E-01  9.85074E-01 -2.44351E-02
    9079.753     85.349   4.920  9.55217E-01  9.85528E-01 -3.03113E-02
    9081.259     86.854   4.960  9.51250E-01  9.85990E-01 -3.47406E-02
    9082.776     88.372   5.000  9.48674E-01  9.86479E-01 -3.78049E-02
    9084.307     89.902   5.040  9.47389E-01  9.86949E-01 -3.95599E-02
    9085.849     91.444   5.080  9.47282E-01  9.87444E-01 -4.01614E-02
    9087.403     92.999   5.120  9.48214E-01  9.87941E-01 -3.97269E-02
    9088.970     94.566   5.160  9.50098E-01  9.88438E-01 -3.83398E-02
    9090.549     96.144   5.200  9.52882E-01  9.88934E-01 -3.60521E-02
    9092.140     97.736   5.240  9.56458E-01  9.89428E-01 -3.29699E-02
    9093.743     99.339   5.280  9.60627E-01  9.89916E-01 -2.92892E-02
    9095.359    100.954   5.320  9.65016E-01  9.90375E-01 -2.53584E-02
    9096.986    102.582   5.360  9.69132E-01  9.90824E-01 -2.16922E-02
    9098.626    104.222   5.400  9.72437E-01  9.91241E-01 -1.88047E-02
    9100.278    105.874   5.440  9.74653E-01  9.91648E-01 -1.69946E-02
    9101.942    107.538   5.480  9.75779E-01  9.92019E-01 -1.62394E-02
    9103.619    109.214   5.520  9.75995E-01  9.92353E-01 -1.63584E-02
    9105.307    110.903   5.560  9.75423E-01  9.92651E-01 -1.72282E-02
    9107.008    112.604   5.600  9.74125E-01  9.92936E-01 -1.88103E-02
    9108.721    114.317   5.640  9.72170E-01  9.93182E-01 -2.10125E-02
    9110.446    116.042   5.680  9.69877E-01  9.93387E-01 -2.35095E-02
    9112.183    117.779   5.720  9.67772E-01  9.93529E-01 -2.57576E-02
    9113.933    119.529   5.760  9.66512E-01  9.93653E-01 -2.71415E-02
    9115.695    121.290   5.800  9.66581E-01  9.93738E-01 -2.71573E-02
    9117.469    123.064   5.840  9.68196E-01  9.93758E-01 -2.55616E-02
    9119.255    124.850   5.880  9.71280E-01  9.93758E-01 -2.24776E-02
    9121.053    126.649   5.920  9.75302E-01  9.93694E-01 -1.83919E-02
    9122.864    128.459   5.960  9.79536E-01  9.93583E-01 -1.40471E-02
    9124.686    130.282   6.000  9.83373E-01  9.93430E-01 -1.00569E-02
