# # comment:                                                     FEFF 9.9.1  
# # Source:
# # Structure
# # Reduced
# # space
# # abc:
# # angles:
# # sites:
# # POT  SCF 100  7.0000   0, screened core-hole, AFOLP (folp(0)= 1.150)
# # Abs   Z=29 Rmt= 1.260 Rnm= 1.332 K  shell
# # Pot 1 Z=24 Rmt= 1.308 Rnm= 1.403
# # Pot 2 Z=29 Rmt= 1.259 Rnm= 1.332
# # Pot 3 Z= 8 Rmt= 1.017 Rnm= 1.089
# # Gam_ch=1.729E+00 H-L exch Vi= 0.000E+00 Vr= 0.000E+00
# # Mu=-1.076E+01eV kf=2.213E+00 Vint=-1.916E+01eV Rs_int= 1.638
# FMS rfms= 9.0000
# # PATH  Rmax=-1.000,  Keep_limit= 0.00, Heap_limit 0.00  Pwcrit= 2.50%
#  S02=0.950  Temp=   0.00  Debye_temp=   0.00  Global_sig2= 0.00000
#  Energy zero shift, vr, vi    0.00000E+00   0.00000E+00
#  Curved wave amplitude ratio filter   4.000%
#     file         sig2 tot  cw amp ratio   deg  nlegs   reff  inp sig2
#     0/   0 paths used
#  xsedge+ 50, used to normalize mu           2.5097E-04
#  -----------------------------------------------------------------------
#  omega    e    k    mu    mu0     chi     @#
    8984.345    -14.568  -1.000  3.29637E-02  4.58972E-02 -1.29334E-02
    8984.644    -14.270  -0.960  3.45978E-02  4.90275E-02 -1.44297E-02
    8984.931    -13.983  -0.920  3.63551E-02  5.24914E-02 -1.61363E-02
    8985.205    -13.709  -0.880  3.82499E-02  5.63369E-02 -1.80870E-02
    8985.467    -13.447  -0.840  4.02989E-02  6.06199E-02 -2.03210E-02
    8985.717    -13.197  -0.800  4.25209E-02  6.54051E-02 -2.28842E-02
    8985.955    -12.959  -0.760  4.49375E-02  7.07665E-02 -2.58290E-02
    8986.180    -12.734  -0.720  4.75730E-02  7.67880E-02 -2.92149E-02
    8986.394    -12.520  -0.680  5.04538E-02  8.35613E-02 -3.31076E-02
    8986.595    -12.319  -0.640  5.36071E-02  9.11835E-02 -3.75764E-02
    8986.784    -12.130  -0.600  5.70589E-02  9.97494E-02 -4.26905E-02
    8986.961    -11.953  -0.560  6.08294E-02  1.09340E-01 -4.85103E-02
    8987.125    -11.789  -0.520  6.49261E-02  1.20001E-01 -5.50752E-02
    8987.278    -11.636  -0.480  6.93353E-02  1.31722E-01 -6.23868E-02
    8987.418    -11.496  -0.440  7.40107E-02  1.44399E-01 -7.03886E-02
    8987.546    -11.368  -0.400  7.88662E-02  1.57815E-01 -7.89488E-02
    8987.662    -11.252  -0.360  8.37742E-02  1.71627E-01 -8.78531E-02
    8987.765    -11.149  -0.320  8.85771E-02  1.85393E-01 -9.68154E-02
    8987.857    -11.057  -0.280  9.31083E-02  1.98617E-01 -1.05509E-01
    8987.936    -10.978  -0.240  9.72178E-02  2.10827E-01 -1.13609E-01
    8988.003    -10.911  -0.200  1.00791E-01  2.21621E-01 -1.20830E-01
    8988.058    -10.856  -0.160  1.03755E-01  2.30706E-01 -1.26951E-01
    8988.101    -10.813  -0.120  1.06070E-01  2.37892E-01 -1.31822E-01
    8988.131    -10.783  -0.080  1.07717E-01  2.43072E-01 -1.35355E-01
    8988.155    -10.758   0.000  1.09008E-01  2.47236E-01 -1.38227E-01
    8988.210    -10.704   0.120  1.12069E-01  2.56627E-01 -1.44558E-01
    8988.253    -10.661   0.160  1.14431E-01  2.63937E-01 -1.49506E-01
    8988.308    -10.606   0.200  1.17449E-01  2.73302E-01 -1.55853E-01
    8988.375    -10.539   0.240  1.21071E-01  2.84565E-01 -1.63495E-01
    8988.454    -10.460   0.280  1.25267E-01  2.97536E-01 -1.72270E-01
    8988.546    -10.368   0.320  1.30041E-01  3.11906E-01 -1.81865E-01
    8988.649    -10.265   0.360  1.35470E-01  3.27290E-01 -1.91819E-01
    8988.765    -10.149   0.400  1.41746E-01  3.43255E-01 -2.01509E-01
    8988.893    -10.021   0.440  1.49226E-01  3.59447E-01 -2.10220E-01
    8989.033     -9.881   0.480  1.58332E-01  3.75556E-01 -2.17224E-01
    8989.186     -9.728   0.520  1.69485E-01  3.91419E-01 -2.21933E-01
    8989.350     -9.564   0.560  1.82738E-01  4.06914E-01 -2.24176E-01
    8989.527     -9.387   0.600  1.97521E-01  4.22058E-01 -2.24537E-01
    8989.716     -9.198   0.640  2.12367E-01  4.36896E-01 -2.24529E-01
    8989.917     -8.997   0.680  2.25001E-01  4.51480E-01 -2.26479E-01
    8990.130     -8.783   0.720  2.33047E-01  4.65873E-01 -2.32826E-01
    8990.356     -8.558   0.760  2.35431E-01  4.80157E-01 -2.44726E-01
    8990.594     -8.320   0.800  2.33836E-01  4.94426E-01 -2.60590E-01
    8990.844     -8.070   0.840  2.32544E-01  5.08684E-01 -2.76140E-01
    8991.106     -7.808   0.880  2.36534E-01  5.23007E-01 -2.86473E-01
    8991.380     -7.534   0.920  2.49564E-01  5.37435E-01 -2.87871E-01
    8991.667     -7.247   0.960  2.74609E-01  5.51965E-01 -2.77356E-01
    8991.965     -6.948   1.000  3.14494E-01  5.66603E-01 -2.52109E-01
    8992.276     -6.638   1.040  3.70375E-01  5.81388E-01 -2.11013E-01
    8992.599     -6.314   1.080  4.36451E-01  5.96294E-01 -1.59843E-01
    8992.935     -5.979   1.120  4.94711E-01  6.11327E-01 -1.16616E-01
    8993.282     -5.632   1.160  5.19299E-01  6.26451E-01 -1.07151E-01
    8993.642     -5.272   1.200  5.02602E-01  6.41665E-01 -1.39063E-01
    8994.014     -4.900   1.240  4.72191E-01  6.56925E-01 -1.84734E-01
    8994.398     -4.516   1.280  4.57196E-01  6.72244E-01 -2.15048E-01
    8994.794     -4.120   1.320  4.63351E-01  6.87554E-01 -2.24203E-01
    8995.202     -3.711   1.360  4.85357E-01  7.02843E-01 -2.17486E-01
    8995.623     -3.291   1.400  5.16221E-01  7.18080E-01 -2.01859E-01
    8996.056     -2.858   1.440  5.48271E-01  7.33230E-01 -1.84959E-01
    8996.501     -2.413   1.480  5.82224E-01  7.48260E-01 -1.66037E-01
    8996.958     -1.956   1.520  6.28603E-01  7.63134E-01 -1.34531E-01
    8997.427     -1.486   1.560  6.88103E-01  7.77817E-01 -8.97139E-02
    8997.909     -1.005   1.600  7.38946E-01  7.92254E-01 -5.33074E-02
    8998.403     -0.511   1.640  7.62429E-01  8.06448E-01 -4.40190E-02
    8998.909     -0.005   1.680  7.61951E-01  8.20346E-01 -5.83942E-02
    8999.427      0.513   1.720  7.52108E-01  8.33910E-01 -8.18016E-02
    8999.957      1.043   1.760  7.57763E-01  8.47108E-01 -8.93448E-02
    9000.500      1.586   1.800  8.00427E-01  8.59948E-01 -5.95208E-02
    9001.054      2.141   1.840  8.91518E-01  8.72356E-01  1.91624E-02
    9001.621      2.708   1.880  1.03007E+00  8.84339E-01  1.45733E-01
    9002.201      3.287   1.920  1.18571E+00  8.95848E-01  2.89867E-01
    9002.792      3.878   1.960  1.30286E+00  9.06894E-01  3.95967E-01
    9003.395      4.481   2.000  1.34466E+00  9.17428E-01  4.27234E-01
    9004.011      5.097   2.040  1.31949E+00  9.27464E-01  3.92028E-01
    9004.639      5.725   2.080  1.27852E+00  9.36977E-01  3.41539E-01
    9005.279      6.365   2.120  1.26182E+00  9.45962E-01  3.15857E-01
    9005.931      7.017   2.160  1.26654E+00  9.54417E-01  3.12125E-01
    9006.596      7.682   2.200  1.29013E+00  9.62319E-01  3.27808E-01
    9007.272      8.359   2.240  1.32787E+00  9.69689E-01  3.58181E-01
    9007.961      9.047   2.280  1.34009E+00  9.76508E-01  3.63579E-01
    9008.662      9.748   2.320  1.29448E+00  9.82817E-01  3.11667E-01
    9009.375     10.462   2.360  1.20816E+00  9.88581E-01  2.19582E-01
    9010.101     11.187   2.400  1.10471E+00  9.93822E-01  1.10887E-01
    9010.839     11.925   2.440  1.01620E+00  9.98546E-01  1.76545E-02
    9011.588     12.674   2.480  9.67166E-01  1.00278E+00 -3.56136E-02
    9012.350     13.436   2.520  9.49086E-01  1.00653E+00 -5.74439E-02
    9013.125     14.211   2.560  9.52700E-01  1.00981E+00 -5.71057E-02
    9013.911     14.997   2.600  9.72423E-01  1.01266E+00 -4.02323E-02
    9014.709     15.796   2.640  9.93906E-01  1.01505E+00 -2.11404E-02
    9015.520     16.606   2.680  1.00271E+00  1.01703E+00 -1.43199E-02
    9016.343     17.429   2.720  1.00185E+00  1.01861E+00 -1.67633E-02
    9017.178     18.264   2.760  9.95055E-01  1.01983E+00 -2.47758E-02
    9018.026     19.112   2.800  9.84375E-01  1.02069E+00 -3.63136E-02
    9018.885     19.971   2.840  9.71357E-01  1.02122E+00 -4.98632E-02
    9019.757     20.843   2.880  9.57791E-01  1.02144E+00 -6.36445E-02
    9020.641     21.727   2.920  9.45394E-01  1.02136E+00 -7.59700E-02
    9021.537     22.623   2.960  9.35408E-01  1.02102E+00 -8.56090E-02
    9022.445     23.531   3.000  9.27634E-01  1.02043E+00 -9.27932E-02
    9023.366     24.452   3.040  9.21228E-01  1.01962E+00 -9.83955E-02
    9024.298     25.385   3.080  9.15641E-01  1.01860E+00 -1.02955E-01
    9025.243     26.329   3.120  9.10877E-01  1.01739E+00 -1.06516E-01
    9026.200     27.287   3.160  9.07083E-01  1.01603E+00 -1.08945E-01
    9027.170     28.256   3.200  9.04497E-01  1.01451E+00 -1.10011E-01
    9028.151     29.237   3.240  9.03302E-01  1.01286E+00 -1.09558E-01
    9029.145     30.231   3.280  9.03444E-01  1.01110E+00 -1.07654E-01
    9030.151     31.237   3.320  9.05007E-01  1.00925E+00 -1.04241E-01
    9031.169     32.255   3.360  9.08083E-01  1.00732E+00 -9.92335E-02
    9032.199     33.285   3.400  9.12501E-01  1.00531E+00 -9.28123E-02
    9033.241     34.327   3.440  9.17790E-01  1.00326E+00 -8.54746E-02
    9034.296     35.382   3.480  9.23455E-01  1.00120E+00 -7.77435E-02
    9035.363     36.449   3.520  9.29065E-01  9.99103E-01 -7.00378E-02
    9036.442     37.528   3.560  9.34381E-01  9.97001E-01 -6.26200E-02
    9037.533     38.619   3.600  9.39604E-01  9.94900E-01 -5.52959E-02
    9038.636     39.722   3.640  9.45233E-01  9.92804E-01 -4.75706E-02
    9039.752     40.838   3.680  9.51875E-01  9.90740E-01 -3.88651E-02
    9040.879     41.966   3.720  9.59894E-01  9.88714E-01 -2.88196E-02
    9042.019     43.106   3.760  9.69248E-01  9.86728E-01 -1.74803E-02
    9043.172     44.258   3.800  9.79177E-01  9.84806E-01 -5.62919E-03
    9044.336     45.422   3.840  9.88390E-01  9.82913E-01  5.47727E-03
    9045.512     46.599   3.880  9.95990E-01  9.81113E-01  1.48770E-02
    9046.701     47.787   3.920  1.00184E+00  9.79388E-01  2.24539E-02
    9047.902     48.988   3.960  1.00655E+00  9.77719E-01  2.88353E-02
    9049.115     50.201   4.000  1.01099E+00  9.76129E-01  3.48623E-02
    9050.340     51.427   4.040  1.01569E+00  9.74643E-01  4.10512E-02
    9051.578     52.664   4.080  1.02087E+00  9.73241E-01  4.76327E-02
    9052.828     53.914   4.120  1.02681E+00  9.71923E-01  5.48824E-02
    9054.089     55.176   4.160  1.03397E+00  9.70714E-01  6.32556E-02
    9055.364     56.450   4.200  1.04277E+00  9.69592E-01  7.31733E-02
    9056.650     57.736   4.240  1.05332E+00  9.68580E-01  8.47357E-02
    9057.948     59.034   4.280  1.06493E+00  9.67655E-01  9.72706E-02
    9059.259     60.345   4.320  1.07595E+00  9.66841E-01  1.09112E-01
    9060.582     61.668   4.360  1.08405E+00  9.66116E-01  1.17938E-01
    9061.917     63.003   4.400  1.08704E+00  9.65503E-01  1.21537E-01
    9063.264     64.350   4.440  1.08348E+00  9.65000E-01  1.18478E-01
    9064.623     65.709   4.480  1.07264E+00  9.64583E-01  1.08058E-01
    9065.995     67.081   4.520  1.05468E+00  9.64254E-01  9.04265E-02
    9067.379     68.465   4.560  1.03112E+00  9.64031E-01  6.70914E-02
    9068.775     69.861   4.600  1.00487E+00  9.63894E-01  4.09785E-02
    9070.183     71.269   4.640  9.79441E-01  9.63842E-01  1.55998E-02
    9071.603     72.689   4.680  9.57587E-01  9.63894E-01 -6.30674E-03
    9073.036     74.122   4.720  9.40439E-01  9.64028E-01 -2.35889E-02
    9074.480     75.567   4.760  9.27978E-01  9.64241E-01 -3.62630E-02
    9075.937     77.024   4.800  9.19789E-01  9.64510E-01 -4.47209E-02
    9077.407     78.493   4.840  9.15539E-01  9.64876E-01 -4.93367E-02
    9078.888     79.974   4.880  9.14841E-01  9.65297E-01 -5.04558E-02
    9080.381     81.468   4.920  9.17217E-01  9.65789E-01 -4.85724E-02
    9081.887     82.973   4.960  9.22195E-01  9.66353E-01 -4.41579E-02
    9083.405     84.491   5.000  9.29384E-01  9.66963E-01 -3.75791E-02
    9084.935     86.021   5.040  9.38259E-01  9.67615E-01 -2.93565E-02
    9086.477     87.564   5.080  9.47726E-01  9.68308E-01 -2.05821E-02
    9088.032     89.118   5.120  9.56075E-01  9.69039E-01 -1.29643E-02
    9089.599     90.685   5.160  9.61607E-01  9.69808E-01 -8.20176E-03
    9091.177     92.264   5.200  9.63406E-01  9.70611E-01 -7.20511E-03
    9092.768     93.855   5.240  9.61755E-01  9.71424E-01 -9.66850E-03
    9094.372     95.458   5.280  9.58102E-01  9.72266E-01 -1.41635E-02
    9095.987     97.073   5.320  9.54192E-01  9.73112E-01 -1.89195E-02
    9097.615     98.701   5.360  9.51103E-01  9.73959E-01 -2.28555E-02
    9099.255    100.341   5.400  9.48731E-01  9.74805E-01 -2.60732E-02
    9100.907    101.993   5.440  9.46471E-01  9.75646E-01 -2.91752E-02
    9102.571    103.657   5.480  9.44149E-01  9.76459E-01 -3.23101E-02
    9104.247    105.333   5.520  9.42389E-01  9.77264E-01 -3.48748E-02
    9105.936    107.022   5.560  9.41885E-01  9.78058E-01 -3.61734E-02
    9107.636    108.723   5.600  9.42721E-01  9.78795E-01 -3.60740E-02
    9109.349    110.436   5.640  9.44313E-01  9.79516E-01 -3.52027E-02
    9111.075    112.161   5.680  9.45590E-01  9.80199E-01 -3.46087E-02
    9112.812    113.898   5.720  9.45680E-01  9.80842E-01 -3.51616E-02
    9114.562    115.648   5.760  9.44499E-01  9.81441E-01 -3.69421E-02
    9116.323    117.409   5.800  9.42795E-01  9.81971E-01 -3.91759E-02
    9118.097    119.183   5.840  9.41835E-01  9.82454E-01 -4.06191E-02
    9119.883    120.969   5.880  9.42949E-01  9.82889E-01 -3.99400E-02
    9121.682    122.768   5.920  9.47321E-01  9.83247E-01 -3.59266E-02
    9123.492    124.578   5.960  9.55848E-01  9.83542E-01 -2.76935E-02
    9125.315    126.401   6.000  9.68884E-01  9.83724E-01 -1.48402E-02
