# # comment:                                                     FEFF 9.9.1  
# # Source:
# # Structure
# # Reduced
# # space
# # abc:
# # angles:
# # sites:
# # POT  SCF 100  7.0000   0, screened core-hole, AFOLP (folp(0)= 1.150)
# # Abs   Z=29 Rmt= 1.124 Rnm= 1.267 K  shell
# # Pot 1 Z=29 Rmt= 1.143 Rnm= 1.279
# # Pot 2 Z=33 Rmt= 1.059 Rnm= 1.290
# # Pot 3 Z= 8 Rmt= 0.983 Rnm= 1.132
# # Gam_ch=1.729E+00 H-L exch Vi= 0.000E+00 Vr= 0.000E+00
# # Mu=-6.914E+00eV kf=2.187E+00 Vint=-1.410E+01eV Rs_int= 1.659
# FMS rfms= 9.0000
# # PATH  Rmax=-1.000,  Keep_limit= 0.00, Heap_limit 0.00  Pwcrit= 2.50%
#  S02=0.950  Temp=   0.00  Debye_temp=   0.00  Global_sig2= 0.00000
#  Energy zero shift, vr, vi    0.00000E+00   0.00000E+00
#  Curved wave amplitude ratio filter   4.000%
#     file         sig2 tot  cw amp ratio   deg  nlegs   reff  inp sig2
#     0/   0 paths used
#  xsedge+ 50, used to normalize mu           2.4141E-04
#  -----------------------------------------------------------------------
#  omega    e    k    mu    mu0     chi     @#
    8983.477    -10.724  -1.000  3.34343E-02  5.74625E-02 -2.40281E-02
    8983.776    -10.425  -0.960  3.49763E-02  6.16351E-02 -2.66588E-02
    8984.063    -10.139  -0.920  3.66233E-02  6.62662E-02 -2.96429E-02
    8984.337     -9.864  -0.880  3.83871E-02  7.14221E-02 -3.30350E-02
    8984.599     -9.602  -0.840  4.02814E-02  7.71800E-02 -3.68986E-02
    8984.849     -9.352  -0.800  4.23222E-02  8.36294E-02 -4.13072E-02
    8985.087     -9.114  -0.760  4.45278E-02  9.08726E-02 -4.63448E-02
    8985.312     -8.889  -0.720  4.69190E-02  9.90248E-02 -5.21059E-02
    8985.526     -8.676  -0.680  4.95187E-02  1.08213E-01 -5.86944E-02
    8985.727     -8.474  -0.640  5.23511E-02  1.18571E-01 -6.62197E-02
    8985.916     -8.285  -0.600  5.54397E-02  1.30229E-01 -7.47892E-02
    8986.093     -8.109  -0.560  5.88037E-02  1.43299E-01 -8.44949E-02
    8986.257     -7.944  -0.520  6.24522E-02  1.57845E-01 -9.53929E-02
    8986.410     -7.792  -0.480  6.63769E-02  1.73852E-01 -1.07475E-01
    8986.550     -7.651  -0.440  7.05430E-02  1.91179E-01 -1.20636E-01
    8986.678     -7.523  -0.400  7.48815E-02  2.09529E-01 -1.34647E-01
    8986.794     -7.408  -0.360  7.92873E-02  2.28432E-01 -1.49145E-01
    8986.897     -7.304  -0.320  8.36260E-02  2.47281E-01 -1.63655E-01
    8986.989     -7.212  -0.280  8.77511E-02  2.65399E-01 -1.77648E-01
    8987.068     -7.133  -0.240  9.15244E-02  2.82133E-01 -1.90609E-01
    8987.135     -7.066  -0.200  9.48342E-02  2.96934E-01 -2.02100E-01
    8987.190     -7.011  -0.160  9.76040E-02  3.09397E-01 -2.11793E-01
    8987.232     -6.969  -0.120  9.97897E-02  3.19258E-01 -2.19468E-01
    8987.263     -6.938  -0.080  1.01370E-01  3.26368E-01 -2.24998E-01
    8987.287     -6.914   0.000  1.02665E-01  3.32084E-01 -2.29419E-01
    8987.342     -6.859   0.120  1.05524E-01  3.44999E-01 -2.39475E-01
    8987.385     -6.816   0.160  1.07660E-01  3.55041E-01 -2.47381E-01
    8987.440     -6.761   0.200  1.10297E-01  3.67870E-01 -2.57573E-01
    8987.507     -6.694   0.240  1.13387E-01  3.83354E-01 -2.69967E-01
    8987.586     -6.615   0.280  1.16843E-01  4.01214E-01 -2.84371E-01
    8987.677     -6.524   0.320  1.20472E-01  4.20993E-01 -3.00521E-01
    8987.781     -6.420   0.360  1.24175E-01  4.42191E-01 -3.18017E-01
    8987.897     -6.304   0.400  1.27802E-01  4.64230E-01 -3.36427E-01
    8988.025     -6.176   0.440  1.31309E-01  4.86578E-01 -3.55269E-01
    8988.165     -6.036   0.480  1.34762E-01  5.08838E-01 -3.74075E-01
    8988.318     -5.884   0.520  1.38300E-01  5.30734E-01 -3.92434E-01
    8988.482     -5.719   0.560  1.42245E-01  5.52147E-01 -4.09902E-01
    8988.659     -5.542   0.600  1.47027E-01  5.72998E-01 -4.25971E-01
    8988.848     -5.353   0.640  1.53352E-01  5.93356E-01 -4.40004E-01
    8989.049     -5.152   0.680  1.61929E-01  6.13265E-01 -4.51336E-01
    8989.262     -4.939   0.720  1.73421E-01  6.32798E-01 -4.59377E-01
    8989.488     -4.713   0.760  1.88150E-01  6.52008E-01 -4.63858E-01
    8989.726     -4.475   0.800  2.05918E-01  6.70956E-01 -4.65039E-01
    8989.976     -4.225   0.840  2.26015E-01  6.89692E-01 -4.63677E-01
    8990.238     -3.963   0.880  2.47428E-01  7.08226E-01 -4.60798E-01
    8990.512     -3.689   0.920  2.68848E-01  7.26559E-01 -4.57711E-01
    8990.799     -3.403   0.960  2.89213E-01  7.44697E-01 -4.55484E-01
    8991.097     -3.104   1.000  3.09981E-01  7.62596E-01 -4.52615E-01
    8991.408     -2.793   1.040  3.36038E-01  7.80265E-01 -4.44227E-01
    8991.731     -2.470   1.080  3.72016E-01  7.97641E-01 -4.25626E-01
    8992.067     -2.135   1.120  4.18856E-01  8.14702E-01 -3.95846E-01
    8992.414     -1.787   1.160  4.71490E-01  8.31375E-01 -3.59886E-01
    8992.774     -1.427   1.200  5.19732E-01  8.47650E-01 -3.27919E-01
    8993.146     -1.056   1.240  5.54367E-01  8.63472E-01 -3.09104E-01
    8993.530     -0.672   1.280  5.74427E-01  8.78785E-01 -3.04357E-01
    8993.926     -0.275   1.320  5.89076E-01  8.93533E-01 -3.04458E-01
    8994.334      0.133   1.360  6.06257E-01  9.07722E-01 -3.01465E-01
    8994.755      0.554   1.400  6.20035E-01  9.21278E-01 -3.01243E-01
    8995.188      0.987   1.440  6.23208E-01  9.34167E-01 -3.10959E-01
    8995.633      1.432   1.480  6.24762E-01  9.46403E-01 -3.21640E-01
    8996.090      1.889   1.520  6.40137E-01  9.57934E-01 -3.17798E-01
    8996.559      2.358   1.560  6.74620E-01  9.68736E-01 -2.94117E-01
    8997.041      2.840   1.600  7.20952E-01  9.78826E-01 -2.57874E-01
    8997.535      3.334   1.640  7.67192E-01  9.88161E-01 -2.20969E-01
    8998.041      3.840   1.680  8.06797E-01  9.96785E-01 -1.89989E-01
    8998.559      4.358   1.720  8.42518E-01  1.00468E+00 -1.62162E-01
    8999.089      4.888   1.760  8.78862E-01  1.01183E+00 -1.32971E-01
    8999.632      5.431   1.800  9.15799E-01  1.01831E+00 -1.02512E-01
    9000.186      5.985   1.840  9.53853E-01  1.02409E+00 -7.02332E-02
    9000.753      6.552   1.880  9.97743E-01  1.02919E+00 -3.14453E-02
    9001.332      7.131   1.920  1.05534E+00  1.03367E+00  2.16723E-02
    9001.924      7.723   1.960  1.13433E+00  1.03751E+00  9.68176E-02
    9002.527      8.326   2.000  1.23311E+00  1.04078E+00  1.92335E-01
    9003.143      8.942   2.040  1.34475E+00  1.04349E+00  3.01257E-01
    9003.771      9.570   2.080  1.46659E+00  1.04567E+00  4.20921E-01
    9004.411     10.210   2.120  1.58284E+00  1.04734E+00  5.35496E-01
    9005.063     10.862   2.160  1.65530E+00  1.04855E+00  6.06746E-01
    9005.728     11.527   2.200  1.64550E+00  1.04933E+00  5.96161E-01
    9006.404     12.203   2.240  1.55149E+00  1.04973E+00  5.01757E-01
    9007.093     12.892   2.280  1.43295E+00  1.04975E+00  3.83199E-01
    9007.794     13.593   2.320  1.34489E+00  1.04944E+00  2.95450E-01
    9008.507     14.306   2.360  1.28846E+00  1.04883E+00  2.39628E-01
    9009.233     15.032   2.400  1.24736E+00  1.04796E+00  1.99404E-01
    9009.970     15.769   2.440  1.22046E+00  1.04683E+00  1.73631E-01
    9010.720     16.519   2.480  1.20376E+00  1.04547E+00  1.58282E-01
    9011.482     17.281   2.520  1.18538E+00  1.04393E+00  1.41445E-01
    9012.256     18.055   2.560  1.16214E+00  1.04225E+00  1.19887E-01
    9013.043     18.842   2.600  1.13554E+00  1.04041E+00  9.51255E-02
    9013.841     19.640   2.640  1.11311E+00  1.03845E+00  7.46573E-02
    9014.652     20.451   2.680  1.09893E+00  1.03640E+00  6.25293E-02
    9015.475     21.274   2.720  1.09149E+00  1.03427E+00  5.72240E-02
    9016.310     22.109   2.760  1.08750E+00  1.03211E+00  5.53983E-02
    9017.158     22.956   2.800  1.08367E+00  1.02988E+00  5.37847E-02
    9018.017     23.816   2.840  1.07789E+00  1.02765E+00  5.02380E-02
    9018.889     24.688   2.880  1.06894E+00  1.02539E+00  4.35535E-02
    9019.773     25.572   2.920  1.05672E+00  1.02317E+00  3.35488E-02
    9020.669     26.468   2.960  1.04170E+00  1.02095E+00  2.07538E-02
    9021.577     27.376   3.000  1.02480E+00  1.01878E+00  6.02490E-03
    9022.498     28.297   3.040  1.00665E+00  1.01663E+00 -9.97533E-03
    9023.430     29.229   3.080  9.88090E-01  1.01455E+00 -2.64569E-02
    9024.375     30.174   3.120  9.70111E-01  1.01254E+00 -4.24274E-02
    9025.332     31.131   3.160  9.53568E-01  1.01059E+00 -5.70195E-02
    9026.302     32.100   3.200  9.39155E-01  1.00874E+00 -6.95818E-02
    9027.283     33.082   3.240  9.27106E-01  1.00695E+00 -7.98430E-02
    9028.277     34.076   3.280  9.17206E-01  1.00527E+00 -8.80638E-02
    9029.283     35.081   3.320  9.09026E-01  1.00368E+00 -9.46529E-02
    9030.301     36.099   3.360  9.02140E-01  1.00220E+00 -1.00060E-01
    9031.331     37.130   3.400  8.95910E-01  1.00081E+00 -1.04904E-01
    9032.373     38.172   3.440  8.89809E-01  9.99545E-01 -1.09736E-01
    9033.428     39.227   3.480  8.83512E-01  9.98392E-01 -1.14881E-01
    9034.495     40.293   3.520  8.77050E-01  9.97336E-01 -1.20286E-01
    9035.574     41.372   3.560  8.70720E-01  9.96398E-01 -1.25678E-01
    9036.665     42.464   3.600  8.65201E-01  9.95580E-01 -1.30378E-01
    9037.768     43.567   3.640  8.61332E-01  9.94883E-01 -1.33551E-01
    9038.884     44.683   3.680  8.59788E-01  9.94308E-01 -1.34520E-01
    9040.011     45.810   3.720  8.61030E-01  9.93851E-01 -1.32821E-01
    9041.151     46.950   3.760  8.65344E-01  9.93490E-01 -1.28146E-01
    9042.304     48.102   3.800  8.72900E-01  9.93249E-01 -1.20349E-01
    9043.468     49.267   3.840  8.83455E-01  9.93126E-01 -1.09671E-01
    9044.644     50.443   3.880  8.96625E-01  9.93120E-01 -9.64947E-02
    9045.833     51.632   3.920  9.11823E-01  9.93208E-01 -8.13856E-02
    9047.034     52.833   3.960  9.28328E-01  9.93410E-01 -6.50821E-02
    9048.247     54.046   4.000  9.45354E-01  9.93704E-01 -4.83508E-02
    9049.472     55.271   4.040  9.62322E-01  9.94110E-01 -3.17875E-02
    9050.710     56.509   4.080  9.78765E-01  9.94603E-01 -1.58382E-02
    9051.960     57.758   4.120  9.94466E-01  9.95182E-01 -7.16344E-04
    9053.221     59.020   4.160  1.00945E+00  9.95846E-01  1.36058E-02
    9054.495     60.294   4.200  1.02391E+00  9.96614E-01  2.72937E-02
    9055.782     61.581   4.240  1.03786E+00  9.97442E-01  4.04162E-02
    9057.080     62.879   4.280  1.05127E+00  9.98347E-01  5.29202E-02
    9058.391     64.190   4.320  1.06373E+00  9.99329E-01  6.44058E-02
    9059.714     65.512   4.360  1.07454E+00  1.00038E+00  7.41519E-02
    9061.049     66.848   4.400  1.08289E+00  1.00147E+00  8.14271E-02
    9062.396     68.195   4.440  1.08839E+00  1.00261E+00  8.57763E-02
    9063.755     69.554   4.480  1.09093E+00  1.00383E+00  8.71021E-02
    9065.127     70.926   4.520  1.09069E+00  1.00506E+00  8.56219E-02
    9066.511     72.310   4.560  1.08813E+00  1.00633E+00  8.17952E-02
    9067.907     73.705   4.600  1.08370E+00  1.00764E+00  7.60566E-02
    9069.315     75.114   4.640  1.07779E+00  1.00895E+00  6.88434E-02
    9070.735     76.534   4.680  1.07093E+00  1.01027E+00  6.06588E-02
    9072.168     77.967   4.720  1.06374E+00  1.01162E+00  5.21217E-02
    9073.612     79.411   4.760  1.05695E+00  1.01296E+00  4.39890E-02
    9075.069     80.868   4.800  1.05147E+00  1.01431E+00  3.71580E-02
    9076.539     82.337   4.840  1.04808E+00  1.01566E+00  3.24290E-02
    9078.020     83.819   4.880  1.04733E+00  1.01697E+00  3.03586E-02
    9079.513     85.312   4.920  1.04928E+00  1.01827E+00  3.10084E-02
    9081.019     86.818   4.960  1.05341E+00  1.01954E+00  3.38698E-02
    9082.537     88.336   5.000  1.05884E+00  1.02079E+00  3.80473E-02
    9084.067     89.866   5.040  1.06450E+00  1.02198E+00  4.25180E-02
    9085.609     91.408   5.080  1.06942E+00  1.02315E+00  4.62736E-02
    9087.164     92.963   5.120  1.07271E+00  1.02425E+00  4.84582E-02
    9088.730     94.529   5.160  1.07373E+00  1.02530E+00  4.84239E-02
    9090.309     96.108   5.200  1.07210E+00  1.02631E+00  4.57892E-02
    9091.900     97.699   5.240  1.06766E+00  1.02724E+00  4.04262E-02
    9093.504     99.302   5.280  1.06053E+00  1.02809E+00  3.24419E-02
    9095.119    100.918   5.320  1.05112E+00  1.02889E+00  2.22310E-02
    9096.747    102.546   5.360  1.04009E+00  1.02961E+00  1.04850E-02
    9098.386    104.185   5.400  1.02835E+00  1.03025E+00 -1.89696E-03
    9100.038    105.837   5.440  1.01686E+00  1.03081E+00 -1.39420E-02
    9101.703    107.502   5.480  1.00652E+00  1.03130E+00 -2.47857E-02
    9103.379    109.178   5.520  9.97916E-01  1.03170E+00 -3.37808E-02
    9105.068    110.867   5.560  9.91501E-01  1.03201E+00 -4.05036E-02
    9106.768    112.567   5.600  9.87483E-01  1.03223E+00 -4.47463E-02
    9108.481    114.280   5.640  9.85720E-01  1.03237E+00 -4.66491E-02
    9110.207    116.005   5.680  9.85689E-01  1.03243E+00 -4.67377E-02
    9111.944    117.743   5.720  9.86575E-01  1.03240E+00 -4.58261E-02
    9113.693    119.492   5.760  9.87497E-01  1.03229E+00 -4.47968E-02
    9115.455    121.254   5.800  9.87668E-01  1.03210E+00 -4.44358E-02
    9117.229    123.028   5.840  9.86639E-01  1.03183E+00 -4.51929E-02
    9119.015    124.814   5.880  9.84420E-01  1.03146E+00 -4.70354E-02
    9120.814    126.612   5.920  9.81579E-01  1.03102E+00 -4.94441E-02
    9122.624    128.423   5.960  9.78950E-01  1.03051E+00 -5.15554E-02
    9124.447    130.246   6.000  9.77549E-01  1.02987E+00 -5.23235E-02
