# # comment:                                                     FEFF 9.9.1  
# # Source:
# # Structure
# # Reduced
# # space
# # abc:
# # angles:
# # sites:
# # POT  SCF 100  7.0000   0, screened core-hole, AFOLP (folp(0)= 1.150)
# # Abs   Z=29 Rmt= 1.275 Rnm= 1.345 K  shell
# # Pot 1 Z=13 Rmt= 1.223 Rnm= 1.327
# # Pot 2 Z=29 Rmt= 1.236 Rnm= 1.294
# # Pot 3 Z= 8 Rmt= 0.991 Rnm= 1.067
# # Gam_ch=1.729E+00 H-L exch Vi= 0.000E+00 Vr= 0.000E+00
# # Mu=-7.439E+00eV kf=2.281E+00 Vint=-1.847E+01eV Rs_int= 1.590
# FMS rfms= 9.0000
# # PATH  Rmax=-1.000,  Keep_limit= 0.00, Heap_limit 0.00  Pwcrit= 2.50%
#  S02=0.950  Temp=   0.00  Debye_temp=   0.00  Global_sig2= 0.00000
#  Energy zero shift, vr, vi    0.00000E+00   0.00000E+00
#  Curved wave amplitude ratio filter   4.000%
#     file         sig2 tot  cw amp ratio   deg  nlegs   reff  inp sig2
#     0/   0 paths used
#  xsedge+ 50, used to normalize mu           2.4993E-04
#  -----------------------------------------------------------------------
#  omega    e    k    mu    mu0     chi     @#
    8983.562    -11.249  -1.000  3.97998E-02  5.15311E-02 -1.17313E-02
    8983.860    -10.950  -0.960  4.19527E-02  5.52493E-02 -1.32966E-02
    8984.147    -10.664  -0.920  4.42627E-02  5.93820E-02 -1.51193E-02
    8984.421    -10.390  -0.880  4.67433E-02  6.39906E-02 -1.72472E-02
    8984.683    -10.127  -0.840  4.94088E-02  6.91465E-02 -1.97377E-02
    8984.933     -9.878  -0.800  5.22744E-02  7.49329E-02 -2.26585E-02
    8985.171     -9.640  -0.760  5.53558E-02  8.14450E-02 -2.60892E-02
    8985.397     -9.414  -0.720  5.86688E-02  8.87906E-02 -3.01218E-02
    8985.610     -9.201  -0.680  6.22286E-02  9.70885E-02 -3.48600E-02
    8985.811     -9.000  -0.640  6.60484E-02  1.06464E-01 -4.04160E-02
    8986.000     -8.811  -0.600  7.01381E-02  1.17042E-01 -4.69035E-02
    8986.177     -8.634  -0.560  7.45011E-02  1.28926E-01 -5.44246E-02
    8986.341     -8.469  -0.520  7.91310E-02  1.42180E-01 -6.30487E-02
    8986.494     -8.317  -0.480  8.40067E-02  1.56790E-01 -7.27837E-02
    8986.634     -8.177  -0.440  8.90872E-02  1.72629E-01 -8.35419E-02
    8986.762     -8.049  -0.400  9.43072E-02  1.89419E-01 -9.51116E-02
    8986.878     -7.933  -0.360  9.95751E-02  2.06724E-01 -1.07149E-01
    8986.982     -7.829  -0.320  1.04776E-01  2.23978E-01 -1.19202E-01
    8987.073     -7.738  -0.280  1.09778E-01  2.40553E-01 -1.30776E-01
    8987.152     -7.659  -0.240  1.14444E-01  2.55847E-01 -1.41403E-01
    8987.219     -7.592  -0.200  1.18643E-01  2.69356E-01 -1.50713E-01
    8987.274     -7.537  -0.160  1.22257E-01  2.80714E-01 -1.58457E-01
    8987.317     -7.494  -0.120  1.25186E-01  2.89688E-01 -1.64501E-01
    8987.347     -7.464  -0.080  1.27352E-01  2.96150E-01 -1.68798E-01
    8987.372     -7.439   0.000  1.29162E-01  3.01340E-01 -1.72179E-01
    8987.427     -7.384   0.120  1.33259E-01  3.13039E-01 -1.79779E-01
    8987.469     -7.342   0.160  1.36472E-01  3.22112E-01 -1.85640E-01
    8987.524     -7.287   0.200  1.40694E-01  3.33700E-01 -1.93006E-01
    8987.591     -7.220   0.240  1.45999E-01  3.47614E-01 -2.01615E-01
    8987.670     -7.140   0.280  1.52484E-01  3.63561E-01 -2.11078E-01
    8987.762     -7.049   0.320  1.60286E-01  3.81138E-01 -2.20852E-01
    8987.865     -6.945   0.360  1.69509E-01  3.99779E-01 -2.30270E-01
    8987.981     -6.830   0.400  1.80369E-01  4.18948E-01 -2.38580E-01
    8988.109     -6.702   0.440  1.93088E-01  4.38118E-01 -2.45030E-01
    8988.250     -6.561   0.480  2.08095E-01  4.56918E-01 -2.48823E-01
    8988.402     -6.409   0.520  2.25949E-01  4.75082E-01 -2.49132E-01
    8988.567     -6.244   0.560  2.47567E-01  4.92476E-01 -2.44909E-01
    8988.743     -6.068   0.600  2.74177E-01  5.09115E-01 -2.34938E-01
    8988.932     -5.879   0.640  3.07195E-01  5.25038E-01 -2.17844E-01
    8989.133     -5.677   0.680  3.47899E-01  5.40321E-01 -1.92422E-01
    8989.347     -5.464   0.720  3.96616E-01  5.55077E-01 -1.58461E-01
    8989.572     -5.238   0.760  4.51167E-01  5.69414E-01 -1.18247E-01
    8989.810     -5.001   0.800  5.05352E-01  5.83416E-01 -7.80637E-02
    8990.060     -4.751   0.840  5.50141E-01  5.97170E-01 -4.70298E-02
    8990.322     -4.489   0.880  5.77506E-01  6.10734E-01 -3.32278E-02
    8990.596     -4.214   0.920  5.83038E-01  6.24172E-01 -4.11340E-02
    8990.883     -3.928   0.960  5.68538E-01  6.37495E-01 -6.89574E-02
    8991.182     -3.629   1.000  5.44876E-01  6.50744E-01 -1.05867E-01
    8991.493     -3.318   1.040  5.24538E-01  6.63971E-01 -1.39433E-01
    8991.816     -2.995   1.080  5.12337E-01  6.77141E-01 -1.64804E-01
    8992.151     -2.660   1.120  5.10318E-01  6.90274E-01 -1.79956E-01
    8992.498     -2.312   1.160  5.22733E-01  7.03362E-01 -1.80629E-01
    8992.858     -1.953   1.200  5.48552E-01  7.16412E-01 -1.67860E-01
    8993.230     -1.581   1.240  5.76866E-01  7.29412E-01 -1.52546E-01
    8993.614     -1.197   1.280  5.97125E-01  7.42338E-01 -1.45213E-01
    8994.010     -0.801   1.320  6.08827E-01  7.55193E-01 -1.46366E-01
    8994.419     -0.392   1.360  6.14485E-01  7.67912E-01 -1.53427E-01
    8994.839      0.028   1.400  6.13991E-01  7.80531E-01 -1.66540E-01
    8995.272      0.461   1.440  6.10192E-01  7.92982E-01 -1.82790E-01
    8995.717      0.906   1.480  6.13308E-01  8.05278E-01 -1.91970E-01
    8996.174      1.363   1.520  6.36102E-01  8.17372E-01 -1.81269E-01
    8996.644      1.833   1.560  6.87977E-01  8.29232E-01 -1.41255E-01
    8997.125      2.314   1.600  7.77062E-01  8.40873E-01 -6.38114E-02
    8997.619      2.808   1.640  9.04267E-01  8.52245E-01  5.20222E-02
    8998.125      3.314   1.680  1.05598E+00  8.63337E-01  1.92644E-01
    8998.643      3.832   1.720  1.20776E+00  8.74101E-01  3.33655E-01
    8999.174      4.363   1.760  1.31772E+00  8.84569E-01  4.33153E-01
    8999.716      4.905   1.800  1.35206E+00  8.94673E-01  4.57386E-01
    9000.271      5.460   1.840  1.33387E+00  9.04407E-01  4.29467E-01
    9000.838      6.027   1.880  1.30613E+00  9.13783E-01  3.92351E-01
    9001.417      6.606   1.920  1.27078E+00  9.22754E-01  3.48022E-01
    9002.008      7.197   1.960  1.21471E+00  9.31337E-01  2.83377E-01
    9002.612      7.801   2.000  1.15735E+00  9.39507E-01  2.17847E-01
    9003.227      8.417   2.040  1.11198E+00  9.47262E-01  1.64713E-01
    9003.855      9.044   2.080  1.07846E+00  9.54578E-01  1.23884E-01
    9004.495      9.684   2.120  1.06172E+00  9.61472E-01  1.00244E-01
    9005.148     10.337   2.160  1.06699E+00  9.67925E-01  9.90653E-02
    9005.812     11.001   2.200  1.09441E+00  9.73958E-01  1.20455E-01
    9006.489     11.678   2.240  1.13336E+00  9.79551E-01  1.53809E-01
    9007.178     12.367   2.280  1.16362E+00  9.84725E-01  1.78895E-01
    9007.879     13.068   2.320  1.17182E+00  9.89465E-01  1.82358E-01
    9008.592     13.781   2.360  1.16603E+00  9.93794E-01  1.72236E-01
    9009.317     14.506   2.400  1.17259E+00  9.97737E-01  1.74856E-01
    9010.055     15.244   2.440  1.20902E+00  1.00126E+00  2.07767E-01
    9010.805     15.994   2.480  1.24796E+00  1.00440E+00  2.43561E-01
    9011.567     16.756   2.520  1.24174E+00  1.00715E+00  2.34589E-01
    9012.341     17.530   2.560  1.17229E+00  1.00956E+00  1.62731E-01
    9013.127     18.316   2.600  1.05987E+00  1.01161E+00  4.82631E-02
    9013.926     19.115   2.640  9.48695E-01  1.01333E+00 -6.46321E-02
    9014.737     19.926   2.680  8.80131E-01  1.01472E+00 -1.34593E-01
    9015.559     20.749   2.720  8.55754E-01  1.01581E+00 -1.60053E-01
    9016.395     21.584   2.760  8.47478E-01  1.01660E+00 -1.69125E-01
    9017.242     22.431   2.800  8.44617E-01  1.01714E+00 -1.72523E-01
    9018.102     23.291   2.840  8.45843E-01  1.01741E+00 -1.71564E-01
    9018.973     24.162   2.880  8.51378E-01  1.01743E+00 -1.66054E-01
    9019.857     25.046   2.920  8.60660E-01  1.01725E+00 -1.56585E-01
    9020.753     25.942   2.960  8.72553E-01  1.01685E+00 -1.44301E-01
    9021.662     26.851   3.000  8.85666E-01  1.01627E+00 -1.30601E-01
    9022.582     27.771   3.040  8.98256E-01  1.01551E+00 -1.17254E-01
    9023.515     28.704   3.080  9.09181E-01  1.01459E+00 -1.05411E-01
    9024.460     29.649   3.120  9.18047E-01  1.01352E+00 -9.54760E-02
    9025.417     30.606   3.160  9.25128E-01  1.01235E+00 -8.72200E-02
    9026.386     31.575   3.200  9.30800E-01  1.01104E+00 -8.02372E-02
    9027.367     32.557   3.240  9.35342E-01  1.00966E+00 -7.43151E-02
    9028.361     33.550   3.280  9.38445E-01  1.00817E+00 -6.97277E-02
    9029.367     34.556   3.320  9.39543E-01  1.00663E+00 -6.70906E-02
    9030.385     35.574   3.360  9.38475E-01  1.00502E+00 -6.65487E-02
    9031.415     36.604   3.400  9.35762E-01  1.00337E+00 -6.76083E-02
    9032.458     37.647   3.440  9.32445E-01  1.00170E+00 -6.92556E-02
    9033.512     38.701   3.480  9.29822E-01  9.99998E-01 -7.01766E-02
    9034.579     39.768   3.520  9.29183E-01  9.98269E-01 -6.90860E-02
    9035.658     40.847   3.560  9.31483E-01  9.96557E-01 -6.50741E-02
    9036.749     41.938   3.600  9.36688E-01  9.94851E-01 -5.81632E-02
    9037.852     43.042   3.640  9.44231E-01  9.93173E-01 -4.89417E-02
    9038.968     44.157   3.680  9.53291E-01  9.91505E-01 -3.82134E-02
    9040.096     45.285   3.720  9.63125E-01  9.89871E-01 -2.67456E-02
    9041.236     46.425   3.760  9.73246E-01  9.88275E-01 -1.50291E-02
    9042.388     47.577   3.800  9.83680E-01  9.86721E-01 -3.04058E-03
    9043.552     48.741   3.840  9.94833E-01  9.85211E-01  9.62206E-03
    9044.729     49.918   3.880  1.00733E+00  9.83771E-01  2.35603E-02
    9045.917     51.107   3.920  1.02175E+00  9.82403E-01  3.93472E-02
    9047.118     52.308   3.960  1.03807E+00  9.81085E-01  5.69889E-02
    9048.331     53.521   4.000  1.05527E+00  9.79843E-01  7.54252E-02
    9049.557     54.746   4.040  1.07144E+00  9.78677E-01  9.27670E-02
    9050.794     55.983   4.080  1.08419E+00  9.77589E-01  1.06598E-01
    9052.044     57.233   4.120  1.09130E+00  9.76581E-01  1.14721E-01
    9053.306     58.495   4.160  1.09175E+00  9.75652E-01  1.16101E-01
    9054.580     59.769   4.200  1.08599E+00  9.74803E-01  1.11186E-01
    9055.866     61.055   4.240  1.07557E+00  9.74034E-01  1.01536E-01
    9057.165     62.354   4.280  1.06263E+00  9.73347E-01  8.92804E-02
    9058.475     63.664   4.320  1.04953E+00  9.72762E-01  7.67683E-02
    9059.798     64.987   4.360  1.03816E+00  9.72240E-01  6.59204E-02
    9061.133     66.322   4.400  1.02964E+00  9.71818E-01  5.78223E-02
    9062.480     67.669   4.440  1.02376E+00  9.71478E-01  5.22819E-02
    9063.840     69.029   4.480  1.01910E+00  9.71196E-01  4.79066E-02
    9065.211     70.400   4.520  1.01384E+00  9.71014E-01  4.28267E-02
    9066.595     71.784   4.560  1.00655E+00  9.70913E-01  3.56391E-02
    9067.991     73.180   4.600  9.96905E-01  9.70891E-01  2.60131E-02
    9069.399     74.588   4.640  9.85697E-01  9.70945E-01  1.47524E-02
    9070.820     76.009   4.680  9.74402E-01  9.71052E-01  3.34996E-03
    9072.252     77.441   4.720  9.64431E-01  9.71233E-01 -6.80165E-03
    9073.697     78.886   4.760  9.56469E-01  9.71486E-01 -1.50165E-02
    9075.154     80.343   4.800  9.50233E-01  9.71788E-01 -2.15545E-02
    9076.623     81.812   4.840  9.44706E-01  9.72159E-01 -2.74533E-02
    9078.104     83.293   4.880  9.38780E-01  9.72577E-01 -3.37961E-02
    9079.598     84.787   4.920  9.32087E-01  9.73039E-01 -4.09518E-02
    9081.103     86.293   4.960  9.25183E-01  9.73565E-01 -4.83822E-02
    9082.621     87.810   5.000  9.19283E-01  9.74132E-01 -5.48487E-02
    9084.151     89.341   5.040  9.15886E-01  9.74713E-01 -5.88270E-02
    9085.694     90.883   5.080  9.16399E-01  9.75330E-01 -5.89305E-02
    9087.248     92.437   5.120  9.21542E-01  9.75981E-01 -5.44391E-02
    9088.815     94.004   5.160  9.30979E-01  9.76666E-01 -4.56867E-02
    9090.394     95.583   5.200  9.43430E-01  9.77356E-01 -3.39260E-02
    9091.985     97.174   5.240  9.57022E-01  9.78050E-01 -2.10272E-02
    9093.588     98.777   5.280  9.69732E-01  9.78747E-01 -9.01475E-03
    9095.203    100.393   5.320  9.79731E-01  9.79466E-01  2.65141E-04
    9096.831    102.020   5.360  9.85711E-01  9.80162E-01  5.54901E-03
    9098.471    103.660   5.400  9.87334E-01  9.80854E-01  6.47981E-03
    9100.123    105.312   5.440  9.85105E-01  9.81542E-01  3.56269E-03
    9101.787    106.976   5.480  9.80001E-01  9.82222E-01 -2.22170E-03
    9103.463    108.653   5.520  9.72993E-01  9.82869E-01 -9.87589E-03
    9105.152    110.341   5.560  9.64862E-01  9.83481E-01 -1.86193E-02
    9106.853    112.042   5.600  9.56177E-01  9.84056E-01 -2.78796E-02
    9108.566    113.755   5.640  9.47512E-01  9.84617E-01 -3.71048E-02
    9110.291    115.480   5.680  9.39665E-01  9.85139E-01 -4.54738E-02
    9112.028    117.217   5.720  9.33836E-01  9.85596E-01 -5.17601E-02
    9113.778    118.967   5.760  9.31396E-01  9.86034E-01 -5.46384E-02
    9115.540    120.729   5.800  9.33206E-01  9.86405E-01 -5.31990E-02
    9117.313    122.503   5.840  9.39575E-01  9.86731E-01 -4.71565E-02
    9119.100    124.289   5.880  9.50182E-01  9.87010E-01 -3.68288E-02
    9120.898    126.087   5.920  9.64011E-01  9.87216E-01 -2.32052E-02
    9122.708    127.898   5.960  9.79457E-01  9.87363E-01 -7.90649E-03
    9124.531    129.720   6.000  9.94586E-01  9.87400E-01  7.18584E-03
