# # comment:                                                     FEFF 9.9.1  
# # Source:
# # Structure
# # Reduced
# # space
# # abc:
# # angles:158.160614
# # sites:
# # POT  SCF 100  7.0000   0, screened core-hole, AFOLP (folp(0)= 1.150)
# # Abs   Z=29 Rmt= 1.279 Rnm= 1.326 K  shell
# # Pot 1 Z=12 Rmt= 1.354 Rnm= 1.421
# # Pot 2 Z=29 Rmt= 1.279 Rnm= 1.326
# # Pot 3 Z= 8 Rmt= 1.052 Rnm= 1.103
# # Gam_ch=1.729E+00 H-L exch Vi= 0.000E+00 Vr= 0.000E+00
# # Mu=-1.082E+01eV kf=2.083E+00 Vint=-2.010E+01eV Rs_int= 1.741
# FMS rfms= 9.0000
# # PATH  Rmax=-1.000,  Keep_limit= 0.00, Heap_limit 0.00  Pwcrit= 2.50%
#  S02=0.950  Temp=   0.00  Debye_temp=   0.00  Global_sig2= 0.00000
#  Energy zero shift, vr, vi    0.00000E+00   0.00000E+00
#  Curved wave amplitude ratio filter   4.000%
#     file         sig2 tot  cw amp ratio   deg  nlegs   reff  inp sig2
#     0/   0 paths used
#  xsedge+ 50, used to normalize mu           2.4872E-04
#  -----------------------------------------------------------------------
#  omega    e    k    mu    mu0     chi     @#
    8985.518    -14.625  -1.000  3.26194E-02  4.86548E-02 -1.60353E-02
    8985.817    -14.327  -0.960  3.39827E-02  5.20844E-02 -1.81017E-02
    8986.103    -14.040  -0.920  3.54085E-02  5.58893E-02 -2.04809E-02
    8986.378    -13.766  -0.880  3.68994E-02  6.01244E-02 -2.32250E-02
    8986.640    -13.504  -0.840  3.84582E-02  6.48535E-02 -2.63953E-02
    8986.890    -13.254  -0.800  4.00877E-02  7.01508E-02 -3.00631E-02
    8987.128    -13.016  -0.760  4.17907E-02  7.61013E-02 -3.43106E-02
    8987.353    -12.791  -0.720  4.35700E-02  8.28009E-02 -3.92309E-02
    8987.566    -12.577  -0.680  4.54282E-02  9.03554E-02 -4.49272E-02
    8987.768    -12.376  -0.640  4.73670E-02  9.88763E-02 -5.15094E-02
    8987.957    -12.187  -0.600  4.93870E-02  1.08473E-01 -5.90862E-02
    8988.133    -12.010  -0.560  5.14866E-02  1.19239E-01 -6.77526E-02
    8988.298    -11.846  -0.520  5.36603E-02  1.31230E-01 -7.75694E-02
    8988.450    -11.693  -0.480  5.58967E-02  1.44432E-01 -8.85350E-02
    8988.591    -11.553  -0.440  5.81765E-02  1.58729E-01 -1.00553E-01
    8988.719    -11.425  -0.400  6.04702E-02  1.73875E-01 -1.13404E-01
    8988.834    -11.309  -0.360  6.27383E-02  1.89478E-01 -1.26739E-01
    8988.938    -11.206  -0.320  6.49326E-02  2.05032E-01 -1.40100E-01
    8989.030    -11.114  -0.280  6.70011E-02  2.19976E-01 -1.52975E-01
    8989.109    -11.035  -0.240  6.88936E-02  2.33769E-01 -1.64876E-01
    8989.176    -10.968  -0.200  7.05658E-02  2.45959E-01 -1.75393E-01
    8989.231    -10.913  -0.160  7.19818E-02  2.56212E-01 -1.84230E-01
    8989.273    -10.870  -0.120  7.31131E-02  2.64318E-01 -1.91205E-01
    8989.304    -10.840  -0.080  7.39383E-02  2.70158E-01 -1.96220E-01
    8989.328    -10.816   0.000  7.46157E-02  2.74850E-01 -2.00235E-01
    8989.383    -10.761   0.120  7.62379E-02  2.85432E-01 -2.09194E-01
    8989.426    -10.718   0.160  7.74706E-02  2.93650E-01 -2.16179E-01
    8989.481    -10.663   0.200  7.90570E-02  3.04156E-01 -2.25099E-01
    8989.548    -10.596   0.240  8.09936E-02  3.16807E-01 -2.35813E-01
    8989.627    -10.517   0.280  8.32557E-02  3.31313E-01 -2.48057E-01
    8989.718    -10.425   0.320  8.58862E-02  3.47350E-01 -2.61464E-01
    8989.822    -10.322   0.360  8.88698E-02  3.64442E-01 -2.75572E-01
    8989.938    -10.206   0.400  9.22268E-02  3.82104E-01 -2.89877E-01
    8990.066    -10.078   0.440  9.59828E-02  3.99876E-01 -3.03893E-01
    8990.206     -9.938   0.480  1.00245E-01  4.17417E-01 -3.17172E-01
    8990.358     -9.785   0.520  1.05121E-01  4.34532E-01 -3.29411E-01
    8990.523     -9.621   0.560  1.10766E-01  4.51083E-01 -3.40317E-01
    8990.700     -9.444   0.600  1.17430E-01  4.67082E-01 -3.49651E-01
    8990.889     -9.255   0.640  1.25414E-01  4.82561E-01 -3.57147E-01
    8991.090     -9.054   0.680  1.35087E-01  4.97584E-01 -3.62498E-01
    8991.303     -8.840   0.720  1.46979E-01  5.12247E-01 -3.65269E-01
    8991.529     -8.615   0.760  1.61653E-01  5.26644E-01 -3.64991E-01
    8991.767     -8.377   0.800  1.79651E-01  5.40838E-01 -3.61187E-01
    8992.017     -8.127   0.840  2.01561E-01  5.54888E-01 -3.53327E-01
    8992.279     -7.865   0.880  2.28343E-01  5.68835E-01 -3.40492E-01
    8992.553     -7.591   0.920  2.62073E-01  5.82752E-01 -3.20679E-01
    8992.839     -7.304   0.960  3.05601E-01  5.96660E-01 -2.91058E-01
    8993.138     -7.006   1.000  3.59725E-01  6.10531E-01 -2.50806E-01
    8993.449     -6.695   1.040  4.16867E-01  6.24430E-01 -2.07563E-01
    8993.772     -6.372   1.080  4.59505E-01  6.38333E-01 -1.78828E-01
    8994.107     -6.036   1.120  4.78954E-01  6.52233E-01 -1.73279E-01
    8994.455     -5.689   1.160  4.91535E-01  6.66116E-01 -1.74581E-01
    8994.815     -5.329   1.200  5.16827E-01  6.79985E-01 -1.63157E-01
    8995.186     -4.957   1.240  5.50665E-01  6.93798E-01 -1.43133E-01
    8995.570     -4.573   1.280  5.69272E-01  7.07554E-01 -1.38281E-01
    8995.967     -4.177   1.320  5.65750E-01  7.21247E-01 -1.55497E-01
    8996.375     -3.769   1.360  5.65484E-01  7.34810E-01 -1.69326E-01
    8996.796     -3.348   1.400  5.94163E-01  7.48233E-01 -1.54070E-01
    8997.229     -2.915   1.440  6.54546E-01  7.61509E-01 -1.06963E-01
    8997.674     -2.470   1.480  7.28832E-01  7.74586E-01 -4.57542E-02
    8998.131     -2.013   1.520  7.93886E-01  7.87456E-01  6.42998E-03
    8998.600     -1.544   1.560  8.35544E-01  8.00087E-01  3.54573E-02
    8999.082     -1.062   1.600  8.71339E-01  8.12447E-01  5.88920E-02
    8999.576     -0.568   1.640  9.33429E-01  8.24507E-01  1.08922E-01
    9000.082     -0.062   1.680  1.04011E+00  8.36279E-01  2.03830E-01
    9000.600      0.456   1.720  1.20797E+00  8.47711E-01  3.60258E-01
    9001.130      0.986   1.760  1.45280E+00  8.58776E-01  5.94027E-01
    9001.673      1.529   1.800  1.74798E+00  8.69486E-01  8.78498E-01
    9002.227      2.084   1.840  1.95005E+00  8.79812E-01  1.07024E+00
    9002.794      2.650   1.880  1.91150E+00  8.89730E-01  1.02177E+00
    9003.373      3.230   1.920  1.71912E+00  8.99232E-01  8.19884E-01
    9003.965      3.821   1.960  1.49723E+00  9.08317E-01  5.88913E-01
    9004.568      4.424   2.000  1.29913E+00  9.16960E-01  3.82170E-01
    9005.184      5.040   2.040  1.14903E+00  9.25178E-01  2.23856E-01
    9005.812      5.668   2.080  1.04969E+00  9.32973E-01  1.16715E-01
    9006.452      6.308   2.120  9.95711E-01  9.40301E-01  5.54098E-02
    9007.104      6.960   2.160  9.68618E-01  9.47204E-01  2.14141E-02
    9007.769      7.625   2.200  9.53129E-01  9.53663E-01 -5.33888E-04
    9008.445      8.301   2.240  9.43384E-01  9.59701E-01 -1.63171E-02
    9009.134      8.990   2.280  9.39008E-01  9.65301E-01 -2.62933E-02
    9009.835      9.691   2.320  9.38294E-01  9.70487E-01 -3.21922E-02
    9010.548     10.405   2.360  9.38825E-01  9.75241E-01 -3.64165E-02
    9011.274     11.130   2.400  9.40458E-01  9.79611E-01 -3.91532E-02
    9012.011     11.868   2.440  9.43023E-01  9.83604E-01 -4.05810E-02
    9012.761     12.617   2.480  9.43824E-01  9.87204E-01 -4.33803E-02
    9013.523     13.379   2.520  9.36840E-01  9.90437E-01 -5.35967E-02
    9014.297     14.154   2.560  9.14918E-01  9.93310E-01 -7.83918E-02
    9015.084     14.940   2.600  8.86387E-01  9.95852E-01 -1.09465E-01
    9015.882     15.739   2.640  8.59457E-01  9.98092E-01 -1.38634E-01
    9016.693     16.549   2.680  8.35372E-01  9.99994E-01 -1.64623E-01
    9017.516     17.372   2.720  8.13350E-01  1.00163E+00 -1.88281E-01
    9018.351     18.207   2.760  7.93484E-01  1.00299E+00 -2.09502E-01
    9019.198     19.055   2.800  7.76799E-01  1.00407E+00 -2.27269E-01
    9020.058     19.914   2.840  7.65079E-01  1.00493E+00 -2.39849E-01
    9020.930     20.786   2.880  7.59178E-01  1.00555E+00 -2.46374E-01
    9021.814     21.670   2.920  7.58960E-01  1.00597E+00 -2.47009E-01
    9022.710     22.566   2.960  7.64203E-01  1.00618E+00 -2.41981E-01
    9023.618     23.474   3.000  7.74554E-01  1.00621E+00 -2.31655E-01
    9024.539     24.395   3.040  7.89159E-01  1.00609E+00 -2.16930E-01
    9025.471     25.328   3.080  8.07282E-01  1.00581E+00 -1.98531E-01
    9026.416     26.272   3.120  8.28467E-01  1.00541E+00 -1.76941E-01
    9027.373     27.229   3.160  8.51519E-01  1.00486E+00 -1.53340E-01
    9028.342     28.199   3.200  8.76126E-01  1.00422E+00 -1.28090E-01
    9029.324     29.180   3.240  9.02485E-01  1.00348E+00 -1.00999E-01
    9030.318     30.174   3.280  9.31025E-01  1.00267E+00 -7.16443E-02
    9031.323     31.180   3.320  9.61976E-01  1.00178E+00 -3.98022E-02
    9032.341     32.198   3.360  9.95336E-01  1.00084E+00 -5.49994E-03
    9033.372     33.228   3.400  1.03081E+00  9.99827E-01  3.09877E-02
    9034.414     34.270   3.440  1.06864E+00  9.98798E-01  6.98398E-02
    9035.469     35.325   3.480  1.10959E+00  9.97734E-01  1.11859E-01
    9036.535     36.392   3.520  1.15343E+00  9.96636E-01  1.56791E-01
    9037.614     37.471   3.560  1.19694E+00  9.95532E-01  2.01406E-01
    9038.706     38.562   3.600  1.23311E+00  9.94427E-01  2.38679E-01
    9039.809     39.665   3.640  1.25323E+00  9.93344E-01  2.59886E-01
    9040.925     40.781   3.680  1.25140E+00  9.92245E-01  2.59157E-01
    9042.052     41.909   3.720  1.22854E+00  9.91195E-01  2.37349E-01
    9043.192     43.049   3.760  1.19078E+00  9.90135E-01  2.00645E-01
    9044.344     44.201   3.800  1.14521E+00  9.89129E-01  1.56083E-01
    9045.509     45.365   3.840  1.09713E+00  9.88139E-01  1.08989E-01
    9046.685     46.542   3.880  1.05045E+00  9.87208E-01  6.32446E-02
    9047.874     47.730   3.920  1.00865E+00  9.86297E-01  2.23538E-02
    9049.075     48.931   3.960  9.75482E-01  9.85449E-01 -9.96660E-03
    9050.288     50.144   4.000  9.54046E-01  9.84645E-01 -3.05989E-02
    9051.513     51.370   4.040  9.45065E-01  9.83886E-01 -3.88201E-02
    9052.751     52.607   4.080  9.46625E-01  9.83192E-01 -3.65676E-02
    9054.000     53.857   4.120  9.54875E-01  9.82546E-01 -2.76716E-02
    9055.262     55.119   4.160  9.65550E-01  9.81947E-01 -1.63964E-02
    9056.536     56.393   4.200  9.75367E-01  9.81414E-01 -6.04718E-03
    9057.823     57.679   4.240  9.82717E-01  9.80932E-01  1.78458E-03
    9059.121     58.977   4.280  9.87083E-01  9.80521E-01  6.56170E-03
    9060.432     60.288   4.320  9.87965E-01  9.80181E-01  7.78342E-03
    9061.754     61.611   4.360  9.85142E-01  9.79889E-01  5.25289E-03
    9063.089     62.946   4.400  9.79617E-01  9.79644E-01 -2.71903E-05
    9064.437     64.293   4.440  9.73284E-01  9.79470E-01 -6.18591E-03
    9065.796     65.652   4.480  9.67634E-01  9.79364E-01 -1.17293E-02
    9067.168     67.024   4.520  9.63235E-01  9.79281E-01 -1.60462E-02
    9068.551     68.408   4.560  9.60303E-01  9.79267E-01 -1.89640E-02
    9069.947     69.804   4.600  9.58731E-01  9.79320E-01 -2.05888E-02
    9071.356     71.212   4.640  9.57580E-01  9.79395E-01 -2.18144E-02
    9072.776     72.632   4.680  9.54923E-01  9.79535E-01 -2.46122E-02
    9074.209     74.065   4.720  9.48546E-01  9.79719E-01 -3.11731E-02
    9075.653     75.510   4.760  9.37891E-01  9.79966E-01 -4.20755E-02
    9077.110     76.967   4.800  9.25040E-01  9.80230E-01 -5.51904E-02
    9078.579     78.436   4.840  9.14008E-01  9.80528E-01 -6.65199E-02
    9080.061     79.917   4.880  9.08736E-01  9.80842E-01 -7.21056E-02
    9081.554     81.410   4.920  9.11885E-01  9.81212E-01 -6.93267E-02
    9083.060     82.916   4.960  9.24365E-01  9.81596E-01 -5.72309E-02
    9084.578     84.434   5.000  9.45227E-01  9.82013E-01 -3.67863E-02
    9086.108     85.964   5.040  9.71124E-01  9.82461E-01 -1.13380E-02
    9087.650     87.506   5.080  9.96419E-01  9.82917E-01  1.35021E-02
    9089.205     89.061   5.120  1.01436E+00  9.83375E-01  3.09815E-02
    9090.771     90.628   5.160  1.01981E+00  9.83837E-01  3.59689E-02
    9092.350     92.206   5.200  1.01211E+00  9.84322E-01  2.77875E-02
    9093.941     93.798   5.240  9.95138E-01  9.84788E-01  1.03505E-02
    9095.544     95.401   5.280  9.74455E-01  9.85273E-01 -1.08178E-02
    9097.160     97.016   5.320  9.54307E-01  9.85735E-01 -3.14282E-02
    9098.788     98.644   5.360  9.37019E-01  9.86215E-01 -4.91958E-02
    9100.427    100.284   5.400  9.23403E-01  9.86667E-01 -6.32638E-02
    9102.079    101.936   5.440  9.13827E-01  9.87087E-01 -7.32595E-02
    9103.744    103.600   5.480  9.08984E-01  9.87499E-01 -7.85147E-02
    9105.420    105.276   5.520  9.10140E-01  9.87903E-01 -7.77627E-02
    9107.109    106.965   5.560  9.18737E-01  9.88273E-01 -6.95354E-02
    9108.809    108.666   5.600  9.35594E-01  9.88607E-01 -5.30137E-02
    9110.522    110.379   5.640  9.60132E-01  9.88928E-01 -2.87955E-02
    9112.247    112.104   5.680  9.90130E-01  9.89188E-01  9.41438E-04
    9113.985    113.841   5.720  1.02249E+00  9.89433E-01  3.30595E-02
    9115.734    115.591   5.760  1.05392E+00  9.89642E-01  6.42775E-02
    9117.496    117.352   5.800  1.08108E+00  9.89810E-01  9.12655E-02
    9119.270    119.126   5.840  1.10050E+00  9.89939E-01  1.10564E-01
    9121.056    120.912   5.880  1.10974E+00  9.90028E-01  1.19715E-01
    9122.854    122.711   5.920  1.10891E+00  9.90075E-01  1.18836E-01
    9124.665    124.521   5.960  1.10053E+00  9.90077E-01  1.10450E-01
    9126.488    126.344   6.000  1.08725E+00  9.90014E-01  9.72373E-02
