# # comment:                                                     FEFF 9.9.1  
# # Source:
# # Structure
# # Reduced
# # space
# # abc:
# # angles:
# # sites:
# # POT  SCF 100  7.0000   0, screened core-hole, AFOLP (folp(0)= 1.150)
# # Abs   Z=29 Rmt= 1.230 Rnm= 1.312 K  shell
# # Pot 1 Z= 3 Rmt= 1.248 Rnm= 1.303
# # Pot 2 Z=26 Rmt= 1.288 Rnm= 1.394
# # Pot 3 Z=29 Rmt= 1.191 Rnm= 1.282
# # Pot 4 Z= 8 Rmt= 1.033 Rnm= 1.111
# # Gam_ch=1.729E+00 H-L exch Vi= 0.000E+00 Vr= 0.000E+00
# # Mu=-9.961E+00eV kf=2.094E+00 Vint=-1.745E+01eV Rs_int= 1.732
# FMS rfms= 9.0000
# # PATH  Rmax=-1.000,  Keep_limit= 0.00, Heap_limit 0.00  Pwcrit= 2.50%
#  S02=0.950  Temp=   0.00  Debye_temp=   0.00  Global_sig2= 0.00000
#  Energy zero shift, vr, vi    0.00000E+00   0.00000E+00
#  Curved wave amplitude ratio filter   4.000%
#     file         sig2 tot  cw amp ratio   deg  nlegs   reff  inp sig2
#     0/   0 paths used
#  xsedge+ 50, used to normalize mu           2.4616E-04
#  -----------------------------------------------------------------------
#  omega    e    k    mu    mu0     chi     @#
    8984.615    -13.771  -1.000  3.42937E-02  5.09723E-02 -1.66785E-02
    8984.914    -13.472  -0.960  3.59284E-02  5.45625E-02 -1.86341E-02
    8985.200    -13.186  -0.920  3.76776E-02  5.85412E-02 -2.08636E-02
    8985.474    -12.912  -0.880  3.95549E-02  6.29643E-02 -2.34095E-02
    8985.736    -12.649  -0.840  4.15760E-02  6.78972E-02 -2.63211E-02
    8985.986    -12.399  -0.800  4.37596E-02  7.34151E-02 -2.96554E-02
    8986.224    -12.162  -0.760  4.61274E-02  7.96044E-02 -3.34770E-02
    8986.450    -11.936  -0.720  4.87043E-02  8.65626E-02 -3.78582E-02
    8986.663    -11.723  -0.680  5.15182E-02  9.43966E-02 -4.28784E-02
    8986.864    -11.522  -0.640  5.45989E-02  1.03219E-01 -4.86204E-02
    8987.053    -11.333  -0.600  5.79756E-02  1.13141E-01 -5.51654E-02
    8987.230    -11.156  -0.560  6.16723E-02  1.24255E-01 -6.25831E-02
    8987.395    -10.991  -0.520  6.57011E-02  1.36618E-01 -7.09166E-02
    8987.547    -10.839  -0.480  7.00514E-02  1.50213E-01 -8.01619E-02
    8987.687    -10.699  -0.440  7.46791E-02  1.64923E-01 -9.02443E-02
    8987.815    -10.571  -0.400  7.94975E-02  1.80495E-01 -1.00998E-01
    8987.931    -10.455  -0.360  8.43762E-02  1.96532E-01 -1.12156E-01
    8988.035    -10.351  -0.320  8.91524E-02  2.12519E-01 -1.23366E-01
    8988.126    -10.260  -0.280  9.36542E-02  2.27882E-01 -1.34228E-01
    8988.205    -10.181  -0.240  9.77279E-02  2.42070E-01 -1.44342E-01
    8988.272    -10.113  -0.200  1.01258E-01  2.54618E-01 -1.53360E-01
    8988.327    -10.059  -0.160  1.04173E-01  2.65181E-01 -1.61009E-01
    8988.370    -10.016  -0.120  1.06441E-01  2.73539E-01 -1.67098E-01
    8988.400     -9.985  -0.080  1.08054E-01  2.79565E-01 -1.71511E-01
    8988.425     -9.961   0.000  1.09328E-01  2.84409E-01 -1.75081E-01
    8988.480     -9.906   0.120  1.12165E-01  2.95347E-01 -1.83182E-01
    8988.522     -9.864   0.160  1.14320E-01  3.03857E-01 -1.89537E-01
    8988.577     -9.809   0.200  1.17018E-01  3.14754E-01 -1.97736E-01
    8988.644     -9.742   0.240  1.20120E-01  3.27865E-01 -2.07745E-01
    8988.723     -9.662   0.280  1.23526E-01  3.42994E-01 -2.19468E-01
    8988.815     -9.571   0.320  1.27051E-01  3.59767E-01 -2.32716E-01
    8988.919     -9.467   0.360  1.30477E-01  3.77722E-01 -2.47245E-01
    8989.034     -9.351   0.400  1.33706E-01  3.96408E-01 -2.62702E-01
    8989.162     -9.223   0.440  1.36739E-01  4.15369E-01 -2.78630E-01
    8989.303     -9.083   0.480  1.39735E-01  4.34253E-01 -2.94518E-01
    8989.455     -8.931   0.520  1.42979E-01  4.52865E-01 -3.09886E-01
    8989.620     -8.766   0.560  1.46634E-01  4.71067E-01 -3.24432E-01
    8989.796     -8.589   0.600  1.50647E-01  4.88848E-01 -3.38201E-01
    8989.985     -8.401   0.640  1.54712E-01  5.06255E-01 -3.51543E-01
    8990.187     -8.199   0.680  1.58596E-01  5.23324E-01 -3.64728E-01
    8990.400     -7.986   0.720  1.62543E-01  5.40143E-01 -3.77599E-01
    8990.625     -7.760   0.760  1.67440E-01  5.56775E-01 -3.89335E-01
    8990.863     -7.523   0.800  1.74576E-01  5.73276E-01 -3.98700E-01
    8991.113     -7.273   0.840  1.85500E-01  5.89713E-01 -4.04212E-01
    8991.375     -7.011   0.880  2.01773E-01  6.06075E-01 -4.04302E-01
    8991.650     -6.736   0.920  2.25359E-01  6.22404E-01 -3.97045E-01
    8991.936     -6.450   0.960  2.58880E-01  6.38689E-01 -3.79809E-01
    8992.235     -6.151   1.000  3.06102E-01  6.54950E-01 -3.48849E-01
    8992.546     -5.840   1.040  3.72311E-01  6.71160E-01 -2.98849E-01
    8992.869     -5.517   1.080  4.63884E-01  6.87303E-01 -2.23419E-01
    8993.204     -5.182   1.120  5.81978E-01  7.03361E-01 -1.21383E-01
    8993.552     -4.834   1.160  7.04295E-01  7.19268E-01 -1.49734E-02
    8993.911     -4.475   1.200  7.83247E-01  7.35038E-01  4.82092E-02
    8994.283     -4.103   1.240  7.94991E-01  7.50598E-01  4.43924E-02
    8994.667     -3.719   1.280  7.58773E-01  7.65937E-01 -7.16459E-03
    8995.063     -3.323   1.320  7.00510E-01  7.81002E-01 -8.04921E-02
    8995.472     -2.914   1.360  6.38750E-01  7.95737E-01 -1.56987E-01
    8995.892     -2.494   1.400  5.88637E-01  8.10148E-01 -2.21511E-01
    8996.325     -2.061   1.440  5.62824E-01  8.24162E-01 -2.61338E-01
    8996.770     -1.616   1.480  5.66058E-01  8.37763E-01 -2.71705E-01
    8997.227     -1.158   1.520  5.93962E-01  8.50940E-01 -2.56978E-01
    8997.697     -0.689   1.560  6.40576E-01  8.63621E-01 -2.23046E-01
    8998.178     -0.208   1.600  6.96130E-01  8.75815E-01 -1.79685E-01
    8998.672      0.286   1.640  7.46151E-01  8.87494E-01 -1.41343E-01
    8999.178      0.792   1.680  7.88460E-01  8.98629E-01 -1.10168E-01
    8999.696      1.310   1.720  8.48547E-01  9.09215E-01 -6.06682E-02
    9000.227      1.841   1.760  9.52760E-01  9.19249E-01  3.35108E-02
    9000.769      2.383   1.800  1.08481E+00  9.28728E-01  1.56078E-01
    9001.324      2.938   1.840  1.22009E+00  9.37611E-01  2.82477E-01
    9001.891      3.505   1.880  1.34586E+00  9.45960E-01  3.99898E-01
    9002.470      4.084   1.920  1.45966E+00  9.53716E-01  5.05947E-01
    9003.061      4.675   1.960  1.55197E+00  9.60944E-01  5.91031E-01
    9003.665      5.279   2.000  1.59008E+00  9.67607E-01  6.22472E-01
    9004.280      5.895   2.040  1.55511E+00  9.73733E-01  5.81382E-01
    9004.908      6.522   2.080  1.47459E+00  9.79329E-01  4.95264E-01
    9005.548      7.163   2.120  1.38594E+00  9.84424E-01  4.01514E-01
    9006.201      7.815   2.160  1.30003E+00  9.89026E-01  3.11008E-01
    9006.865      8.479   2.200  1.20541E+00  9.93166E-01  2.12241E-01
    9007.542      9.156   2.240  1.10144E+00  9.96853E-01  1.04587E-01
    9008.231      9.845   2.280  1.00740E+00  1.00010E+00  7.30388E-03
    9008.932     10.546   2.320  9.37400E-01  1.00296E+00 -6.55558E-02
    9009.645     11.259   2.360  8.93358E-01  1.00541E+00 -1.12054E-01
    9010.370     11.984   2.400  8.71412E-01  1.00750E+00 -1.36088E-01
    9011.108     12.722   2.440  8.63944E-01  1.00925E+00 -1.45309E-01
    9011.858     13.472   2.480  8.68735E-01  1.01068E+00 -1.41946E-01
    9012.620     14.234   2.520  8.97823E-01  1.01182E+00 -1.13992E-01
    9013.394     15.008   2.560  9.38854E-01  1.01267E+00 -7.38139E-02
    9014.180     15.794   2.600  9.81488E-01  1.01327E+00 -3.17816E-02
    9014.979     16.593   2.640  1.01987E+00  1.01363E+00  6.23544E-03
    9015.790     17.404   2.680  1.05100E+00  1.01381E+00  3.71899E-02
    9016.613     18.227   2.720  1.07296E+00  1.01376E+00  5.92016E-02
    9017.448     19.062   2.760  1.08615E+00  1.01357E+00  7.25861E-02
    9018.295     19.909   2.800  1.09210E+00  1.01321E+00  7.88889E-02
    9019.155     20.769   2.840  1.09227E+00  1.01271E+00  7.95614E-02
    9020.026     21.640   2.880  1.08826E+00  1.01210E+00  7.61615E-02
    9020.910     22.524   2.920  1.08008E+00  1.01138E+00  6.86983E-02
    9021.806     23.420   2.960  1.06667E+00  1.01057E+00  5.61046E-02
    9022.715     24.329   3.000  1.04673E+00  1.00968E+00  3.70527E-02
    9023.635     25.249   3.040  1.02031E+00  1.00872E+00  1.15948E-02
    9024.568     26.182   3.080  9.89521E-01  1.00773E+00 -1.82071E-02
    9025.513     27.127   3.120  9.57831E-01  1.00670E+00 -4.88712E-02
    9026.470     28.084   3.160  9.28177E-01  1.00564E+00 -7.74636E-02
    9027.439     29.053   3.200  9.02494E-01  1.00455E+00 -1.02055E-01
    9028.420     30.035   3.240  8.82084E-01  1.00347E+00 -1.21389E-01
    9029.414     31.028   3.280  8.67346E-01  1.00240E+00 -1.35053E-01
    9030.420     32.034   3.320  8.58071E-01  1.00133E+00 -1.43256E-01
    9031.438     33.052   3.360  8.53766E-01  1.00026E+00 -1.46498E-01
    9032.468     34.082   3.400  8.53807E-01  9.99231E-01 -1.45424E-01
    9033.511     35.125   3.440  8.57303E-01  9.98235E-01 -1.40932E-01
    9034.565     36.179   3.480  8.63545E-01  9.97277E-01 -1.33732E-01
    9035.632     37.246   3.520  8.71713E-01  9.96359E-01 -1.24646E-01
    9036.711     38.325   3.560  8.80777E-01  9.95483E-01 -1.14706E-01
    9037.802     39.416   3.600  8.89868E-01  9.94672E-01 -1.04804E-01
    9038.906     40.520   3.640  8.98587E-01  9.93884E-01 -9.52971E-02
    9040.021     41.635   3.680  9.07308E-01  9.93165E-01 -8.58572E-02
    9041.149     42.763   3.720  9.16867E-01  9.92514E-01 -7.56476E-02
    9042.289     43.903   3.760  9.28408E-01  9.91912E-01 -6.35046E-02
    9043.441     45.055   3.800  9.42953E-01  9.91359E-01 -4.84059E-02
    9044.605     46.219   3.840  9.61024E-01  9.90876E-01 -2.98517E-02
    9045.782     47.396   3.880  9.82374E-01  9.90464E-01 -8.09017E-03
    9046.971     48.585   3.920  1.00592E+00  9.90103E-01  1.58144E-02
    9048.171     49.786   3.960  1.02989E+00  9.89791E-01  4.01028E-02
    9049.385     50.999   4.000  1.05236E+00  9.89571E-01  6.27884E-02
    9050.610     52.224   4.040  1.07170E+00  9.89380E-01  8.23210E-02
    9051.847     53.461   4.080  1.08725E+00  9.89259E-01  9.79951E-02
    9053.097     54.711   4.120  1.09904E+00  9.89208E-01  1.09830E-01
    9054.359     55.973   4.160  1.10753E+00  9.89204E-01  1.18327E-01
    9055.633     57.247   4.200  1.11297E+00  9.89269E-01  1.23703E-01
    9056.919     58.533   4.240  1.11491E+00  9.89358E-01  1.25549E-01
    9058.218     59.832   4.280  1.11254E+00  9.89513E-01  1.23032E-01
    9059.528     61.142   4.320  1.10528E+00  9.89733E-01  1.15543E-01
    9060.851     62.465   4.360  1.09336E+00  9.89974E-01  1.03385E-01
    9062.186     63.800   4.400  1.07816E+00  9.90254E-01  8.79070E-02
    9063.533     65.147   4.440  1.06178E+00  9.90595E-01  7.11853E-02
    9064.893     66.507   4.480  1.04595E+00  9.90954E-01  5.49919E-02
    9066.264     67.878   4.520  1.03172E+00  9.91349E-01  4.03724E-02
    9067.648     69.262   4.560  1.01940E+00  9.91779E-01  2.76195E-02
    9069.044     70.658   4.600  1.00881E+00  9.92243E-01  1.65634E-02
    9070.452     72.066   4.640  9.99641E-01  9.92715E-01  6.92681E-03
    9071.873     73.487   4.680  9.91840E-01  9.93195E-01 -1.35519E-03
    9073.305     74.919   4.720  9.85649E-01  9.93705E-01 -8.05600E-03
    9074.750     76.364   4.760  9.81523E-01  9.94242E-01 -1.27189E-02
    9076.207     77.821   4.800  9.79828E-01  9.94762E-01 -1.49339E-02
    9077.676     79.290   4.840  9.80585E-01  9.95304E-01 -1.47194E-02
    9079.157     80.771   4.880  9.83126E-01  9.95849E-01 -1.27232E-02
    9080.651     82.265   4.920  9.86249E-01  9.96391E-01 -1.01420E-02
    9082.156     83.771   4.960  9.88619E-01  9.96907E-01 -8.28769E-03
    9083.674     85.289   5.000  9.89418E-01  9.97440E-01 -8.02192E-03
    9085.204     86.819   5.040  9.88553E-01  9.97945E-01 -9.39166E-03
    9086.747     88.361   5.080  9.86593E-01  9.98422E-01 -1.18284E-02
    9088.301     89.915   5.120  9.84155E-01  9.98911E-01 -1.47555E-02
    9089.868     91.482   5.160  9.81245E-01  9.99368E-01 -1.81230E-02
    9091.447     93.061   5.200  9.77515E-01  9.99791E-01 -2.22756E-02
    9093.038     94.652   5.240  9.72807E-01  1.00018E+00 -2.73720E-02
    9094.641     96.255   5.280  9.67483E-01  1.00055E+00 -3.30697E-02
    9096.256     97.871   5.320  9.62116E-01  1.00089E+00 -3.87765E-02
    9097.884     99.498   5.360  9.57189E-01  1.00122E+00 -4.40288E-02
    9099.524    101.138   5.400  9.52853E-01  1.00148E+00 -4.86299E-02
    9101.176    102.790   5.440  9.49319E-01  1.00173E+00 -5.24112E-02
    9102.840    104.454   5.480  9.46964E-01  1.00194E+00 -5.49737E-02
    9104.517    106.131   5.520  9.46365E-01  1.00208E+00 -5.57166E-02
    9106.205    107.819   5.560  9.48033E-01  1.00221E+00 -5.41746E-02
    9107.906    109.520   5.600  9.52026E-01  1.00229E+00 -5.02675E-02
    9109.619    111.233   5.640  9.57950E-01  1.00232E+00 -4.43650E-02
    9111.344    112.958   5.680  9.65421E-01  1.00232E+00 -3.68970E-02
    9113.081    114.696   5.720  9.74356E-01  1.00228E+00 -2.79251E-02
    9114.831    116.445   5.760  9.84968E-01  1.00218E+00 -1.72117E-02
    9116.593    118.207   5.800  9.97156E-01  1.00206E+00 -4.90430E-03
    9118.367    119.981   5.840  1.00974E+00  1.00188E+00  7.86597E-03
    9120.153    121.767   5.880  1.02085E+00  1.00168E+00  1.91645E-02
    9121.951    123.565   5.920  1.02853E+00  1.00142E+00  2.71065E-02
    9123.762    125.376   5.960  1.03181E+00  1.00115E+00  3.06565E-02
    9125.584    127.198   6.000  1.03068E+00  1.00079E+00  2.98985E-02
