# # comment:                                                     FEFF 9.9.1  
# # Source:
# # Structure
# # Reduced
# # space
# # abc:
# # angles:
# # sites:
# # POT  SCF 100  7.0000   0, screened core-hole, AFOLP (folp(0)= 1.150)
# # Abs   Z=29 Rmt= 1.269 Rnm= 1.389 K  shell
# # Pot 1 Z=19 Rmt= 1.990 Rnm= 2.067
# # Pot 2 Z=29 Rmt= 1.269 Rnm= 1.389
# # Pot 3 Z=17 Rmt= 1.508 Rnm= 1.591
# # Pot 4 Z= 8 Rmt= 1.001 Rnm= 1.110
# # Gam_ch=1.729E+00 H-L exch Vi= 0.000E+00 Vr= 0.000E+00
# # Mu=-6.302E+00eV kf=1.597E+00 Vint=-1.060E+01eV Rs_int= 2.272
# FMS rfms= 9.0000
# # PATH  Rmax=-1.000,  Keep_limit= 0.00, Heap_limit 0.00  Pwcrit= 2.50%
#  S02=0.950  Temp=   0.00  Debye_temp=   0.00  Global_sig2= 0.00000
#  Energy zero shift, vr, vi    0.00000E+00   0.00000E+00
#  Curved wave amplitude ratio filter   4.000%
#     file         sig2 tot  cw amp ratio   deg  nlegs   reff  inp sig2
#     0/   0 paths used
#  xsedge+ 50, used to normalize mu           2.3771E-04
#  -----------------------------------------------------------------------
#  omega    e    k    mu    mu0     chi     @#
    8983.499    -10.112  -1.000  3.88264E-02  5.86971E-02 -1.98707E-02
    8983.798     -9.814  -0.960  4.06141E-02  6.28886E-02 -2.22746E-02
    8984.084     -9.527  -0.920  4.24929E-02  6.75231E-02 -2.50301E-02
    8984.359     -9.253  -0.880  4.44667E-02  7.26618E-02 -2.81950E-02
    8984.621     -8.991  -0.840  4.65389E-02  7.83755E-02 -3.18365E-02
    8984.871     -8.741  -0.800  4.87128E-02  8.47456E-02 -3.60328E-02
    8985.108     -8.503  -0.760  5.09913E-02  9.18648E-02 -4.08735E-02
    8985.334     -8.277  -0.720  5.33765E-02  9.98368E-02 -4.64603E-02
    8985.547     -8.064  -0.680  5.58697E-02  1.08775E-01 -5.29051E-02
    8985.749     -7.863  -0.640  5.84708E-02  1.18797E-01 -6.03264E-02
    8985.938     -7.674  -0.600  6.11773E-02  1.30019E-01 -6.88415E-02
    8986.114     -7.497  -0.560  6.39834E-02  1.42536E-01 -7.85526E-02
    8986.279     -7.333  -0.520  6.68780E-02  1.56403E-01 -8.95246E-02
    8986.431     -7.180  -0.480  6.98432E-02  1.71599E-01 -1.01756E-01
    8986.572     -7.040  -0.440  7.28511E-02  1.87995E-01 -1.15144E-01
    8986.700     -6.912  -0.400  7.58632E-02  2.05318E-01 -1.29455E-01
    8986.815     -6.796  -0.360  7.88296E-02  2.23143E-01 -1.44313E-01
    8986.919     -6.693  -0.320  8.16918E-02  2.40916E-01 -1.59224E-01
    8987.010     -6.601  -0.280  8.43882E-02  2.58020E-01 -1.73632E-01
    8987.090     -6.522  -0.240  8.68586E-02  2.73853E-01 -1.86994E-01
    8987.157     -6.455  -0.200  8.90496E-02  2.87896E-01 -1.98847E-01
    8987.212     -6.400  -0.160  9.09151E-02  2.99760E-01 -2.08845E-01
    8987.254     -6.357  -0.120  9.24168E-02  3.09178E-01 -2.16761E-01
    8987.285     -6.327  -0.080  9.35239E-02  3.15989E-01 -2.22465E-01
    8987.309     -6.302   0.000  9.44550E-02  3.21482E-01 -2.27028E-01
    8987.364     -6.248   0.120  9.66386E-02  3.33910E-01 -2.37271E-01
    8987.407     -6.205   0.160  9.82877E-02  3.43628E-01 -2.45340E-01
    8987.462     -6.150   0.200  1.00392E-01  3.56120E-01 -2.55727E-01
    8987.529     -6.083   0.240  1.03006E-01  3.71301E-01 -2.68295E-01
    8987.608     -6.004   0.280  1.06173E-01  3.88983E-01 -2.82810E-01
    8987.699     -5.912   0.320  1.09969E-01  4.08866E-01 -2.98898E-01
    8987.803     -5.809   0.360  1.14462E-01  4.30540E-01 -3.16079E-01
    8987.919     -5.693   0.400  1.19789E-01  4.53578E-01 -3.33789E-01
    8988.047     -5.565   0.440  1.26159E-01  4.77559E-01 -3.51400E-01
    8988.187     -5.425   0.480  1.33776E-01  5.02127E-01 -3.68351E-01
    8988.339     -5.272   0.520  1.43021E-01  5.27070E-01 -3.84049E-01
    8988.504     -5.108   0.560  1.54289E-01  5.52234E-01 -3.97944E-01
    8988.681     -4.931   0.600  1.68100E-01  5.77542E-01 -4.09442E-01
    8988.870     -4.742   0.640  1.85060E-01  6.02943E-01 -4.17882E-01
    8989.071     -4.541   0.680  2.05764E-01  6.28423E-01 -4.22659E-01
    8989.284     -4.327   0.720  2.30679E-01  6.53975E-01 -4.23295E-01
    8989.510     -4.102   0.760  2.59993E-01  6.79539E-01 -4.19546E-01
    8989.748     -3.864   0.800  2.93428E-01  7.05045E-01 -4.11617E-01
    8989.997     -3.614   0.840  3.29683E-01  7.30405E-01 -4.00722E-01
    8990.260     -3.352   0.880  3.66001E-01  7.55539E-01 -3.89538E-01
    8990.534     -3.078   0.920  3.99827E-01  7.80333E-01 -3.80507E-01
    8990.820     -2.791   0.960  4.31815E-01  8.04665E-01 -3.72850E-01
    8991.119     -2.492   1.000  4.65910E-01  8.28384E-01 -3.62474E-01
    8991.430     -2.181   1.040  5.06554E-01  8.51379E-01 -3.44825E-01
    8991.753     -1.858   1.080  5.56761E-01  8.73515E-01 -3.16754E-01
    8992.088     -1.523   1.120  6.17778E-01  8.94658E-01 -2.76880E-01
    8992.436     -1.176   1.160  6.88434E-01  9.14722E-01 -2.26288E-01
    8992.795     -0.816   1.200  7.64738E-01  9.33626E-01 -1.68889E-01
    8993.167     -0.444   1.240  8.40924E-01  9.51253E-01 -1.10329E-01
    8993.551     -0.060   1.280  9.10436E-01  9.67557E-01 -5.71211E-02
    8993.948      0.336   1.320  9.65926E-01  9.82500E-01 -1.65747E-02
    8994.356      0.745   1.360  1.00451E+00  9.96076E-01  8.43727E-03
    8994.777      1.165   1.400  1.03305E+00  1.00824E+00  2.48018E-02
    8995.210      1.598   1.440  1.05736E+00  1.01905E+00  3.83126E-02
    8995.655      2.043   1.480  1.07793E+00  1.02850E+00  4.94391E-02
    8996.112      2.500   1.520  1.10020E+00  1.03664E+00  6.35628E-02
    8996.581      2.970   1.560  1.13240E+00  1.04354E+00  8.88580E-02
    8997.063      3.451   1.600  1.18176E+00  1.04924E+00  1.32523E-01
    8997.556      3.945   1.640  1.24526E+00  1.05380E+00  1.91468E-01
    8998.062      4.451   1.680  1.29970E+00  1.05732E+00  2.42378E-01
    8998.581      4.969   1.720  1.31231E+00  1.05988E+00  2.52432E-01
    8999.111      5.499   1.760  1.27547E+00  1.06153E+00  2.13935E-01
    8999.653      6.042   1.800  1.21479E+00  1.06240E+00  1.52391E-01
    9000.208      6.597   1.840  1.16068E+00  1.06251E+00  9.81691E-02
    9000.775      7.164   1.880  1.12660E+00  1.06200E+00  6.46010E-02
    9001.354      7.743   1.920  1.11229E+00  1.06090E+00  5.13823E-02
    9001.946      8.334   1.960  1.11280E+00  1.05930E+00  5.34958E-02
    9002.549      8.938   2.000  1.11975E+00  1.05727E+00  6.24765E-02
    9003.165      9.553   2.040  1.11730E+00  1.05486E+00  6.24420E-02
    9003.793     10.181   2.080  1.11078E+00  1.05217E+00  5.86124E-02
    9004.433     10.821   2.120  1.10584E+00  1.04923E+00  5.66116E-02
    9005.085     11.473   2.160  1.10391E+00  1.04608E+00  5.78245E-02
    9005.749     12.138   2.200  1.10408E+00  1.04279E+00  6.12914E-02
    9006.426     12.815   2.240  1.10480E+00  1.03939E+00  6.54135E-02
    9007.115     13.503   2.280  1.10493E+00  1.03593E+00  6.90030E-02
    9007.816     14.204   2.320  1.10389E+00  1.03243E+00  7.14631E-02
    9008.529     14.918   2.360  1.10145E+00  1.02895E+00  7.24994E-02
    9009.255     15.643   2.400  1.09753E+00  1.02549E+00  7.20392E-02
    9009.992     16.381   2.440  1.09195E+00  1.02210E+00  6.98494E-02
    9010.742     17.131   2.480  1.08445E+00  1.01879E+00  6.56638E-02
    9011.504     17.893   2.520  1.07517E+00  1.01557E+00  5.95940E-02
    9012.278     18.667   2.560  1.06445E+00  1.01248E+00  5.19771E-02
    9013.065     19.453   2.600  1.05287E+00  1.00953E+00  4.33390E-02
    9013.863     20.252   2.640  1.04095E+00  1.00672E+00  3.42296E-02
    9014.674     21.062   2.680  1.02893E+00  1.00408E+00  2.48430E-02
    9015.497     21.885   2.720  1.01658E+00  1.00161E+00  1.49705E-02
    9016.332     22.721   2.760  1.00358E+00  9.99328E-01  4.25119E-03
    9017.179     23.568   2.800  9.89501E-01  9.97223E-01 -7.72262E-03
    9018.039     24.427   2.840  9.74223E-01  9.95297E-01 -2.10744E-02
    9018.911     25.299   2.880  9.58153E-01  9.93572E-01 -3.54189E-02
    9019.795     26.183   2.920  9.42167E-01  9.92053E-01 -4.98855E-02
    9020.691     27.079   2.960  9.27282E-01  9.90736E-01 -6.34541E-02
    9021.599     27.987   3.000  9.14327E-01  9.89604E-01 -7.52773E-02
    9022.519     28.908   3.040  9.03877E-01  9.88698E-01 -8.48207E-02
    9023.452     29.841   3.080  8.96045E-01  9.87974E-01 -9.19291E-02
    9024.397     30.786   3.120  8.90813E-01  9.87432E-01 -9.66192E-02
    9025.354     31.743   3.160  8.88137E-01  9.87115E-01 -9.89783E-02
    9026.323     32.712   3.200  8.87755E-01  9.86979E-01 -9.92239E-02
    9027.305     33.693   3.240  8.89518E-01  9.87042E-01 -9.75236E-02
    9028.298     34.687   3.280  8.93263E-01  9.87281E-01 -9.40180E-02
    9029.304     35.693   3.320  8.98729E-01  9.87692E-01 -8.89627E-02
    9030.322     36.711   3.360  9.05808E-01  9.88294E-01 -8.24861E-02
    9031.353     37.741   3.400  9.14435E-01  9.89045E-01 -7.46100E-02
    9032.395     38.783   3.440  9.24523E-01  9.89982E-01 -6.54592E-02
    9033.450     39.838   3.480  9.35901E-01  9.91058E-01 -5.51572E-02
    9034.516     40.905   3.520  9.48544E-01  9.92294E-01 -4.37493E-02
    9035.595     41.984   3.560  9.62507E-01  9.93661E-01 -3.11539E-02
    9036.687     43.075   3.600  9.78115E-01  9.95157E-01 -1.70426E-02
    9037.790     44.178   3.640  9.95606E-01  9.96800E-01 -1.19428E-03
    9038.905     45.294   3.680  1.01466E+00  9.98541E-01  1.61223E-02
    9040.033     46.422   3.720  1.03431E+00  1.00038E+00  3.39338E-02
    9041.173     47.562   3.760  1.05299E+00  1.00232E+00  5.06722E-02
    9042.325     48.714   3.800  1.06917E+00  1.00435E+00  6.48178E-02
    9043.490     49.878   3.840  1.08195E+00  1.00647E+00  7.54870E-02
    9044.666     51.055   3.880  1.09130E+00  1.00865E+00  8.26438E-02
    9045.855     52.243   3.920  1.09768E+00  1.01086E+00  8.68139E-02
    9047.056     53.444   3.960  1.10161E+00  1.01314E+00  8.84711E-02
    9048.269     54.657   4.000  1.10321E+00  1.01546E+00  8.77576E-02
    9049.494     55.883   4.040  1.10235E+00  1.01778E+00  8.45718E-02
    9050.732     57.120   4.080  1.09901E+00  1.02014E+00  7.88710E-02
    9051.981     58.370   4.120  1.09345E+00  1.02249E+00  7.09532E-02
    9053.243     59.632   4.160  1.08622E+00  1.02482E+00  6.14044E-02
    9054.517     60.906   4.200  1.07808E+00  1.02714E+00  5.09430E-02
    9055.803     62.192   4.240  1.06973E+00  1.02944E+00  4.02902E-02
    9057.102     63.490   4.280  1.06177E+00  1.03167E+00  3.00958E-02
    9058.413     64.801   4.320  1.05480E+00  1.03386E+00  2.09390E-02
    9059.735     66.124   4.360  1.04924E+00  1.03600E+00  1.32398E-02
    9061.070     67.459   4.400  1.04526E+00  1.03806E+00  7.19751E-03
    9062.418     68.806   4.440  1.04282E+00  1.04004E+00  2.78353E-03
    9063.777     70.166   4.480  1.04161E+00  1.04195E+00 -3.46524E-04
    9065.149     71.537   4.520  1.04087E+00  1.04373E+00 -2.85584E-03
    9066.532     72.921   4.560  1.03988E+00  1.04544E+00 -5.55924E-03
    9067.928     74.317   4.600  1.03789E+00  1.04702E+00 -9.13444E-03
    9069.337     75.725   4.640  1.03448E+00  1.04849E+00 -1.40032E-02
    9070.757     77.145   4.680  1.02969E+00  1.04983E+00 -2.01353E-02
    9072.189     78.578   4.720  1.02400E+00  1.05104E+00 -2.70348E-02
    9073.634     80.023   4.760  1.01823E+00  1.05212E+00 -3.38865E-02
    9075.091     81.480   4.800  1.01315E+00  1.05307E+00 -3.99205E-02
    9076.560     82.949   4.840  1.00921E+00  1.05389E+00 -4.46854E-02
    9078.042     84.430   4.880  1.00659E+00  1.05458E+00 -4.79973E-02
    9079.535     85.924   4.920  1.00549E+00  1.05512E+00 -4.96344E-02
    9081.041     87.429   4.960  1.00629E+00  1.05552E+00 -4.92285E-02
    9082.559     88.947   5.000  1.00921E+00  1.05576E+00 -4.65534E-02
    9084.089     90.477   5.040  1.01408E+00  1.05590E+00 -4.18202E-02
    9085.631     92.020   5.080  1.02036E+00  1.05588E+00 -3.55201E-02
    9087.186     93.574   5.120  1.02771E+00  1.05573E+00 -2.80222E-02
    9088.752     95.141   5.160  1.03606E+00  1.05546E+00 -1.93967E-02
    9090.331     96.720   5.200  1.04537E+00  1.05506E+00 -9.68810E-03
    9091.922     98.311   5.240  1.05506E+00  1.05456E+00  5.03935E-04
    9093.525     99.914   5.280  1.06371E+00  1.05391E+00  9.79922E-03
    9095.141    101.529   5.320  1.06976E+00  1.05320E+00  1.65605E-02
    9096.768    103.157   5.360  1.07209E+00  1.05234E+00  1.97436E-02
    9098.408    104.797   5.400  1.07060E+00  1.05142E+00  1.91793E-02
    9100.060    106.449   5.440  1.06568E+00  1.05039E+00  1.52890E-02
    9101.724    108.113   5.480  1.05814E+00  1.04930E+00  8.83950E-03
    9103.401    109.789   5.520  1.04929E+00  1.04813E+00  1.15540E-03
    9105.089    111.478   5.560  1.04077E+00  1.04689E+00 -6.12090E-03
    9106.790    113.179   5.600  1.03415E+00  1.04560E+00 -1.14431E-02
    9108.503    114.892   5.640  1.03048E+00  1.04426E+00 -1.37805E-02
    9110.228    116.617   5.680  1.03008E+00  1.04289E+00 -1.28077E-02
    9111.966    118.354   5.720  1.03280E+00  1.04151E+00 -8.70689E-03
    9113.715    120.104   5.760  1.03785E+00  1.04007E+00 -2.21788E-03
    9115.477    121.865   5.800  1.04439E+00  1.03865E+00  5.73800E-03
    9117.251    123.639   5.840  1.05129E+00  1.03721E+00  1.40773E-02
    9119.037    125.426   5.880  1.05761E+00  1.03578E+00  2.18342E-02
    9120.835    127.224   5.920  1.06289E+00  1.03437E+00  2.85223E-02
    9122.646    129.034   5.960  1.06708E+00  1.03302E+00  3.40585E-02
    9124.469    130.857   6.000  1.06989E+00  1.03169E+00  3.81908E-02
