# # comment:                                                     FEFF 9.9.1  
# # Source:
# # Structure
# # Reduced
# # space
# # abc:
# # angles:125.981499
# # sites:
# # POT  SCF 100  7.0000   0, screened core-hole, AFOLP (folp(0)= 1.150)
# # Abs   Z=29 Rmt= 1.178 Rnm= 1.284 K  shell
# # Pot 1 Z=64 Rmt= 1.655 Rnm= 1.732
# # Pot 2 Z=29 Rmt= 1.178 Rnm= 1.284
# # Pot 3 Z= 8 Rmt= 1.049 Rnm= 1.108
# # Gam_ch=1.729E+00 H-L exch Vi= 0.000E+00 Vr= 0.000E+00
# # Mu=-8.021E+00eV kf=2.128E+00 Vint=-1.648E+01eV Rs_int= 1.704
# FMS rfms= 9.0000
# # PATH  Rmax=-1.000,  Keep_limit= 0.00, Heap_limit 0.00  Pwcrit= 2.50%
#  S02=0.950  Temp=   0.00  Debye_temp=   0.00  Global_sig2= 0.00000
#  Energy zero shift, vr, vi    0.00000E+00   0.00000E+00
#  Curved wave amplitude ratio filter   4.000%
#     file         sig2 tot  cw amp ratio   deg  nlegs   reff  inp sig2
#     0/   0 paths used
#  xsedge+ 50, used to normalize mu           2.4558E-04
#  -----------------------------------------------------------------------
#  omega    e    k    mu    mu0     chi     @#
    8983.994    -11.831  -1.000  3.60383E-02  5.41547E-02 -1.81164E-02
    8984.293    -11.532  -0.960  3.78391E-02  5.80816E-02 -2.02425E-02
    8984.580    -11.245  -0.920  3.97620E-02  6.24438E-02 -2.26819E-02
    8984.854    -10.971  -0.880  4.18172E-02  6.73051E-02 -2.54879E-02
    8985.116    -10.709  -0.840  4.40160E-02  7.27397E-02 -2.87237E-02
    8985.366    -10.459  -0.800  4.63706E-02  7.88338E-02 -3.24633E-02
    8985.604    -10.221  -0.760  4.88939E-02  8.56861E-02 -3.67922E-02
    8985.829     -9.996  -0.720  5.15996E-02  9.34079E-02 -4.18084E-02
    8986.043     -9.782  -0.680  5.45014E-02  1.02122E-01 -4.76207E-02
    8986.244     -9.581  -0.640  5.76125E-02  1.11958E-01 -5.43457E-02
    8986.433     -9.392  -0.600  6.09434E-02  1.23043E-01 -6.20998E-02
    8986.610     -9.216  -0.560  6.44993E-02  1.35485E-01 -7.09861E-02
    8986.774     -9.051  -0.520  6.82761E-02  1.49349E-01 -8.10731E-02
    8986.927     -8.899  -0.480  7.22545E-02  1.64620E-01 -9.23651E-02
    8987.067     -8.758  -0.440  7.63941E-02  1.81163E-01 -1.04769E-01
    8987.195     -8.630  -0.400  8.06279E-02  1.98692E-01 -1.18064E-01
    8987.311     -8.514  -0.360  8.48626E-02  2.16755E-01 -1.31892E-01
    8987.414     -8.411  -0.320  8.89850E-02  2.34766E-01 -1.45781E-01
    8987.506     -8.319  -0.280  9.28751E-02  2.52074E-01 -1.59199E-01
    8987.585     -8.240  -0.240  9.64220E-02  2.68052E-01 -1.71630E-01
    8987.652     -8.173  -0.200  9.95354E-02  2.82175E-01 -1.82640E-01
    8987.707     -8.118  -0.160  1.02151E-01  2.94058E-01 -1.91907E-01
    8987.750     -8.076  -0.120  1.04225E-01  3.03453E-01 -1.99228E-01
    8987.780     -8.045  -0.080  1.05731E-01  3.10223E-01 -2.04492E-01
    8987.804     -8.021   0.000  1.06965E-01  3.15664E-01 -2.08699E-01
    8987.859     -7.966   0.120  1.09760E-01  3.27931E-01 -2.18171E-01
    8987.902     -7.923   0.160  1.11906E-01  3.37466E-01 -2.25560E-01
    8987.957     -7.868   0.200  1.14647E-01  3.49654E-01 -2.35007E-01
    8988.024     -7.801   0.240  1.17967E-01  3.64316E-01 -2.46349E-01
    8988.103     -7.722   0.280  1.21881E-01  3.81164E-01 -2.59283E-01
    8988.195     -7.631   0.320  1.26411E-01  3.99778E-01 -2.73367E-01
    8988.298     -7.527   0.360  1.31603E-01  4.19616E-01 -2.88013E-01
    8988.414     -7.411   0.400  1.37620E-01  4.40141E-01 -3.02521E-01
    8988.542     -7.283   0.440  1.44705E-01  4.60802E-01 -3.16096E-01
    8988.682     -7.143   0.480  1.53265E-01  4.81205E-01 -3.27940E-01
    8988.835     -6.990   0.520  1.63887E-01  5.01119E-01 -3.37233E-01
    8988.999     -6.826   0.560  1.77299E-01  5.20368E-01 -3.43070E-01
    8989.176     -6.649   0.600  1.94579E-01  5.38959E-01 -3.44381E-01
    8989.365     -6.460   0.640  2.17100E-01  5.56906E-01 -3.39807E-01
    8989.566     -6.259   0.680  2.46605E-01  5.74320E-01 -3.27715E-01
    8989.779     -6.046   0.720  2.84854E-01  5.91244E-01 -3.06390E-01
    8990.005     -5.820   0.760  3.32742E-01  6.07798E-01 -2.75057E-01
    8990.243     -5.582   0.800  3.88539E-01  6.24036E-01 -2.35497E-01
    8990.493     -5.332   0.840  4.47474E-01  6.40016E-01 -1.92542E-01
    8990.755     -5.070   0.880  5.03903E-01  6.55782E-01 -1.51879E-01
    8991.029     -4.796   0.920  5.51750E-01  6.71368E-01 -1.19618E-01
    8991.316     -4.509   0.960  5.80951E-01  6.86795E-01 -1.05844E-01
    8991.614     -4.211   1.000  5.81853E-01  7.02071E-01 -1.20218E-01
    8991.925     -3.900   1.040  5.58366E-01  7.17178E-01 -1.58812E-01
    8992.248     -3.577   1.080  5.26172E-01  7.32128E-01 -2.05956E-01
    8992.584     -3.241   1.120  4.97356E-01  7.46890E-01 -2.49535E-01
    8992.931     -2.894   1.160  4.74659E-01  7.61426E-01 -2.86768E-01
    8993.291     -2.534   1.200  4.55473E-01  7.75754E-01 -3.20281E-01
    8993.663     -2.162   1.240  4.39265E-01  7.89811E-01 -3.50545E-01
    8994.047     -1.778   1.280  4.30233E-01  8.03570E-01 -3.73337E-01
    8994.443     -1.382   1.320  4.32402E-01  8.17045E-01 -3.84644E-01
    8994.851     -0.974   1.360  4.47010E-01  8.30146E-01 -3.83136E-01
    8995.272     -0.553   1.400  4.72342E-01  8.42904E-01 -3.70562E-01
    8995.705     -0.120   1.440  5.01689E-01  8.55249E-01 -3.53561E-01
    8996.150      0.325   1.480  5.29473E-01  8.67175E-01 -3.37702E-01
    8996.607      0.782   1.520  5.56180E-01  8.78651E-01 -3.22471E-01
    8997.076      1.251   1.560  5.85757E-01  8.89671E-01 -3.03914E-01
    8997.558      1.733   1.600  6.26947E-01  9.00209E-01 -2.73262E-01
    8998.052      2.227   1.640  6.88574E-01  9.10262E-01 -2.21688E-01
    8998.558      2.733   1.680  7.66780E-01  9.19803E-01 -1.53023E-01
    8999.076      3.251   1.720  8.48462E-01  9.28832E-01 -8.03701E-02
    8999.606      3.781   1.760  9.22816E-01  9.37368E-01 -1.45520E-02
    9000.149      4.324   1.800  9.88746E-01  9.45370E-01  4.33757E-02
    9000.703      4.878   1.840  1.06645E+00  9.52840E-01  1.13609E-01
    9001.270      5.445   1.880  1.18567E+00  9.59821E-01  2.25851E-01
    9001.849      6.024   1.920  1.35394E+00  9.66296E-01  3.87639E-01
    9002.441      6.616   1.960  1.52789E+00  9.72252E-01  5.55634E-01
    9003.044      7.219   2.000  1.63131E+00  9.77734E-01  6.53579E-01
    9003.660      7.835   2.040  1.62276E+00  9.82749E-01  6.40008E-01
    9004.288      8.463   2.080  1.52766E+00  9.87306E-01  5.40357E-01
    9004.928      9.103   2.120  1.41354E+00  9.91413E-01  4.22129E-01
    9005.580      9.755   2.160  1.31177E+00  9.95098E-01  3.16670E-01
    9006.245     10.420   2.200  1.21262E+00  9.98372E-01  2.14253E-01
    9006.921     11.096   2.240  1.12666E+00  1.00126E+00  1.25399E-01
    9007.610     11.785   2.280  1.08200E+00  1.00376E+00  7.82405E-02
    9008.311     12.486   2.320  1.08563E+00  1.00594E+00  7.96893E-02
    9009.024     13.199   2.360  1.11705E+00  1.00777E+00  1.09279E-01
    9009.750     13.925   2.400  1.14840E+00  1.00930E+00  1.39108E-01
    9010.487     14.662   2.440  1.16693E+00  1.01054E+00  1.56393E-01
    9011.237     15.412   2.480  1.17717E+00  1.01152E+00  1.65655E-01
    9011.999     16.174   2.520  1.18415E+00  1.01225E+00  1.71902E-01
    9012.773     16.948   2.560  1.17818E+00  1.01274E+00  1.65434E-01
    9013.560     17.735   2.600  1.16062E+00  1.01303E+00  1.47593E-01
    9014.358     18.533   2.640  1.13623E+00  1.01311E+00  1.23123E-01
    9015.169     19.344   2.680  1.10762E+00  1.01305E+00  9.45767E-02
    9015.992     20.167   2.720  1.07653E+00  1.01280E+00  6.37265E-02
    9016.827     21.002   2.760  1.04523E+00  1.01244E+00  3.27903E-02
    9017.675     21.850   2.800  1.01590E+00  1.01194E+00  3.96109E-03
    9018.534     22.709   2.840  9.90504E-01  1.01135E+00 -2.08410E-02
    9019.406     23.581   2.880  9.69591E-01  1.01066E+00 -4.10699E-02
    9020.290     24.465   2.920  9.52002E-01  1.00990E+00 -5.78930E-02
    9021.186     25.361   2.960  9.36490E-01  1.00905E+00 -7.25635E-02
    9022.094     26.269   3.000  9.21979E-01  1.00816E+00 -8.61842E-02
    9023.015     27.190   3.040  9.07848E-01  1.00723E+00 -9.93841E-02
    9023.947     28.122   3.080  8.94193E-01  1.00628E+00 -1.12091E-01
    9024.892     29.067   3.120  8.81742E-01  1.00530E+00 -1.23561E-01
    9025.849     30.024   3.160  8.71353E-01  1.00429E+00 -1.32941E-01
    9026.819     30.994   3.200  8.63873E-01  1.00330E+00 -1.39432E-01
    9027.800     31.975   3.240  8.59810E-01  1.00232E+00 -1.42509E-01
    9028.794     32.969   3.280  8.58973E-01  1.00136E+00 -1.42386E-01
    9029.800     33.974   3.320  8.60604E-01  1.00039E+00 -1.39782E-01
    9030.818     34.992   3.360  8.63872E-01  9.99467E-01 -1.35595E-01
    9031.848     36.023   3.400  8.68034E-01  9.98584E-01 -1.30550E-01
    9032.890     37.065   3.440  8.72444E-01  9.97717E-01 -1.25272E-01
    9033.945     38.120   3.480  8.77261E-01  9.96890E-01 -1.19630E-01
    9035.012     39.187   3.520  8.83172E-01  9.96127E-01 -1.12955E-01
    9036.091     40.265   3.560  8.90860E-01  9.95406E-01 -1.04546E-01
    9037.182     41.357   3.600  9.00755E-01  9.94730E-01 -9.39755E-02
    9038.285     42.460   3.640  9.12851E-01  9.94101E-01 -8.12491E-02
    9039.401     43.576   3.680  9.26656E-01  9.93540E-01 -6.68846E-02
    9040.528     44.703   3.720  9.41204E-01  9.93049E-01 -5.18450E-02
    9041.668     45.843   3.760  9.55550E-01  9.92586E-01 -3.70366E-02
    9042.821     46.995   3.800  9.68930E-01  9.92214E-01 -2.32838E-02
    9043.985     48.160   3.840  9.80492E-01  9.91890E-01 -1.13984E-02
    9045.161     49.336   3.880  9.89661E-01  9.91616E-01 -1.95465E-03
    9046.350     50.525   3.920  9.96283E-01  9.91409E-01  4.87363E-03
    9047.551     51.726   3.960  1.00066E+00  9.91251E-01  9.40481E-03
    9048.764     52.939   4.000  1.00356E+00  9.91142E-01  1.24183E-02
    9049.989     54.164   4.040  1.00604E+00  9.91123E-01  1.49130E-02
    9051.227     55.402   4.080  1.00894E+00  9.91130E-01  1.78135E-02
    9052.477     56.651   4.120  1.01292E+00  9.91204E-01  2.17195E-02
    9053.738     57.913   4.160  1.01832E+00  9.91323E-01  2.69941E-02
    9055.012     59.187   4.200  1.02503E+00  9.91486E-01  3.35482E-02
    9056.299     60.474   4.240  1.03257E+00  9.91713E-01  4.08522E-02
    9057.597     61.772   4.280  1.04013E+00  9.91961E-01  4.81676E-02
    9058.908     63.083   4.320  1.04715E+00  9.92272E-01  5.48742E-02
    9060.231     64.406   4.360  1.05335E+00  9.92622E-01  6.07289E-02
    9061.566     65.741   4.400  1.05876E+00  9.92988E-01  6.57743E-02
    9062.913     67.088   4.440  1.06363E+00  9.93412E-01  7.02207E-02
    9064.272     68.447   4.480  1.06784E+00  9.93847E-01  7.39914E-02
    9065.644     69.819   4.520  1.07101E+00  9.94295E-01  7.67124E-02
    9067.028     71.203   4.560  1.07275E+00  9.94795E-01  7.79504E-02
    9068.424     72.599   4.600  1.07279E+00  9.95284E-01  7.75061E-02
    9069.832     74.007   4.640  1.07132E+00  9.95821E-01  7.55017E-02
    9071.252     75.427   4.680  1.06864E+00  9.96343E-01  7.22984E-02
    9072.685     76.860   4.720  1.06509E+00  9.96890E-01  6.82027E-02
    9074.129     78.304   4.760  1.06067E+00  9.97439E-01  6.32356E-02
    9075.586     79.761   4.800  1.05522E+00  9.97987E-01  5.72375E-02
    9077.056     81.230   4.840  1.04857E+00  9.98533E-01  5.00345E-02
    9078.537     82.712   4.880  1.04069E+00  9.99055E-01  4.16332E-02
    9080.030     84.205   4.920  1.03192E+00  9.99593E-01  3.23231E-02
    9081.536     85.711   4.960  1.02275E+00  1.00010E+00  2.26453E-02
    9083.054     87.229   5.000  1.01391E+00  1.00061E+00  1.32992E-02
    9084.584     88.759   5.040  1.00606E+00  1.00111E+00  4.95276E-03
    9086.126     90.301   5.080  9.99555E-01  1.00157E+00 -2.01852E-03
    9087.681     91.856   5.120  9.94350E-01  1.00203E+00 -7.67638E-03
    9089.247     93.422   5.160  9.89914E-01  1.00243E+00 -1.25110E-02
    9090.826     95.001   5.200  9.85751E-01  1.00283E+00 -1.70789E-02
    9092.417     96.592   5.240  9.81561E-01  1.00318E+00 -2.16169E-02
    9094.021     98.196   5.280  9.77627E-01  1.00351E+00 -2.58832E-02
    9095.636     99.811   5.320  9.74385E-01  1.00380E+00 -2.94183E-02
    9097.264    101.439   5.360  9.72037E-01  1.00403E+00 -3.19980E-02
    9098.904    103.078   5.400  9.70374E-01  1.00427E+00 -3.38980E-02
    9100.556    104.730   5.440  9.68816E-01  1.00445E+00 -3.56321E-02
    9102.220    106.395   5.480  9.67113E-01  1.00458E+00 -3.74688E-02
    9103.896    108.071   5.520  9.65351E-01  1.00467E+00 -3.93235E-02
    9105.585    109.760   5.560  9.63686E-01  1.00473E+00 -4.10390E-02
    9107.285    111.460   5.600  9.62226E-01  1.00474E+00 -4.25097E-02
    9108.998    113.173   5.640  9.61179E-01  1.00470E+00 -4.35258E-02
    9110.724    114.899   5.680  9.61001E-01  1.00463E+00 -4.36334E-02
    9112.461    116.636   5.720  9.62214E-01  1.00453E+00 -4.23110E-02
    9114.210    118.385   5.760  9.65098E-01  1.00440E+00 -3.93017E-02
    9115.972    120.147   5.800  9.69369E-01  1.00421E+00 -3.48416E-02
    9117.746    121.921   5.840  9.74406E-01  1.00398E+00 -2.95752E-02
    9119.532    123.707   5.880  9.79309E-01  1.00371E+00 -2.44043E-02
    9121.331    125.506   5.920  9.83023E-01  1.00341E+00 -2.03847E-02
    9123.141    127.316   5.960  9.84688E-01  1.00306E+00 -1.83769E-02
    9124.964    129.139   6.000  9.84177E-01  1.00266E+00 -1.84817E-02
