# # comment:                                                     FEFF 9.9.1  
# # Source:
# # Structure
# # Reduced
# # space
# # abc:
# # angles:
# # sites:
# # POT  SCF 100  7.0000   0, screened core-hole, AFOLP (folp(0)= 1.150)
# # Abs   Z=29 Rmt= 1.123 Rnm= 1.317 K  shell
# # Pot 1 Z=63 Rmt= 1.668 Rnm= 1.754
# # Pot 2 Z=29 Rmt= 1.123 Rnm= 1.317
# # Pot 3 Z= 8 Rmt= 1.020 Rnm= 1.103
# # Gam_ch=1.729E+00 H-L exch Vi= 0.000E+00 Vr= 0.000E+00
# # Mu=-7.268E+00eV kf=2.082E+00 Vint=-1.647E+01eV Rs_int= 1.742
# FMS rfms= 9.0000
# # PATH  Rmax=-1.000,  Keep_limit= 0.00, Heap_limit 0.00  Pwcrit= 2.50%
#  S02=0.950  Temp=   0.00  Debye_temp=   0.00  Global_sig2= 0.00000
#  Energy zero shift, vr, vi    0.00000E+00   0.00000E+00
#  Curved wave amplitude ratio filter   4.000%
#     file         sig2 tot  cw amp ratio   deg  nlegs   reff  inp sig2
#     0/   0 paths used
#  xsedge+ 50, used to normalize mu           2.4734E-04
#  -----------------------------------------------------------------------
#  omega    e    k    mu    mu0     chi     @#
    8983.826    -11.078  -1.000  4.15888E-02  5.41070E-02 -1.25183E-02
    8984.124    -10.779  -0.960  4.40162E-02  5.80415E-02 -1.40252E-02
    8984.411    -10.493  -0.920  4.66554E-02  6.24139E-02 -1.57585E-02
    8984.685    -10.219  -0.880  4.95323E-02  6.72888E-02 -1.77565E-02
    8984.947     -9.956  -0.840  5.26766E-02  7.27414E-02 -2.00648E-02
    8985.197     -9.707  -0.800  5.61226E-02  7.88587E-02 -2.27361E-02
    8985.435     -9.469  -0.760  5.99091E-02  8.57406E-02 -2.58315E-02
    8985.661     -9.243  -0.720  6.40800E-02  9.35001E-02 -2.94201E-02
    8985.874     -9.030  -0.680  6.86827E-02  1.02261E-01 -3.35788E-02
    8986.075     -8.829  -0.640  7.37671E-02  1.12156E-01 -3.83890E-02
    8986.264     -8.640  -0.600  7.93809E-02  1.23313E-01 -4.39319E-02
    8986.441     -8.463  -0.560  8.55628E-02  1.35842E-01 -5.02790E-02
    8986.605     -8.298  -0.520  9.23312E-02  1.49808E-01 -5.74773E-02
    8986.758     -8.146  -0.480  9.96689E-02  1.65198E-01 -6.55295E-02
    8986.898     -8.006  -0.440  1.07505E-01  1.81876E-01 -7.43708E-02
    8987.026     -7.878  -0.400  1.15703E-01  1.99552E-01 -8.38489E-02
    8987.142     -7.762  -0.360  1.24051E-01  2.17768E-01 -9.37167E-02
    8987.246     -7.658  -0.320  1.32285E-01  2.35932E-01 -1.03647E-01
    8987.337     -7.567  -0.280  1.40116E-01  2.53385E-01 -1.13269E-01
    8987.416     -7.488  -0.240  1.47273E-01  2.69494E-01 -1.22221E-01
    8987.483     -7.421  -0.200  1.53540E-01  2.83729E-01 -1.30189E-01
    8987.538     -7.366  -0.160  1.58768E-01  2.95702E-01 -1.36934E-01
    8987.581     -7.323  -0.120  1.62870E-01  3.05166E-01 -1.42297E-01
    8987.611     -7.293  -0.080  1.65806E-01  3.11984E-01 -1.46177E-01
    8987.636     -7.268   0.000  1.68158E-01  3.17460E-01 -1.49302E-01
    8987.691     -7.213   0.120  1.73598E-01  3.29812E-01 -1.56215E-01
    8987.733     -7.171   0.160  1.77721E-01  3.39406E-01 -1.61685E-01
    8987.788     -7.116   0.200  1.82924E-01  3.51667E-01 -1.68742E-01
    8987.855     -7.049   0.240  1.89068E-01  3.66407E-01 -1.77339E-01
    8987.934     -6.969   0.280  1.95971E-01  3.83309E-01 -1.87338E-01
    8988.026     -6.878   0.320  2.03475E-01  4.01982E-01 -1.98506E-01
    8988.129     -6.774   0.360  2.11360E-01  4.21848E-01 -2.10488E-01
    8988.245     -6.659   0.400  2.19567E-01  4.42336E-01 -2.22769E-01
    8988.373     -6.531   0.440  2.28236E-01  4.62924E-01 -2.34688E-01
    8988.513     -6.390   0.480  2.37757E-01  4.83188E-01 -2.45431E-01
    8988.666     -6.238   0.520  2.48760E-01  5.02874E-01 -2.54114E-01
    8988.830     -6.073   0.560  2.61979E-01  5.21862E-01 -2.59884E-01
    8989.007     -5.897   0.600  2.78043E-01  5.40102E-01 -2.62058E-01
    8989.196     -5.708   0.640  2.97406E-01  5.57670E-01 -2.60264E-01
    8989.397     -5.506   0.680  3.20098E-01  5.74622E-01 -2.54524E-01
    8989.611     -5.293   0.720  3.45626E-01  5.91045E-01 -2.45419E-01
    8989.836     -5.067   0.760  3.73084E-01  6.07068E-01 -2.33984E-01
    8990.074     -4.830   0.800  4.01634E-01  6.22747E-01 -2.21113E-01
    8990.324     -4.580   0.840  4.31981E-01  6.38147E-01 -2.06166E-01
    8990.586     -4.318   0.880  4.67115E-01  6.53320E-01 -1.86205E-01
    8990.860     -4.043   0.920  5.11214E-01  6.68321E-01 -1.57107E-01
    8991.147     -3.757   0.960  5.66705E-01  6.83157E-01 -1.16452E-01
    8991.446     -3.458   1.000  6.30862E-01  6.97842E-01 -6.69801E-02
    8991.757     -3.147   1.040  6.93305E-01  7.12403E-01 -1.90977E-02
    8992.080     -2.824   1.080  7.38282E-01  7.26795E-01  1.14872E-02
    8992.415     -2.489   1.120  7.54439E-01  7.41051E-01  1.33879E-02
    8992.762     -2.141   1.160  7.43412E-01  7.55137E-01 -1.17247E-02
    8993.122     -1.782   1.200  7.17836E-01  7.69036E-01 -5.12006E-02
    8993.494     -1.410   1.240  6.93779E-01  7.82748E-01 -8.89685E-02
    8993.878     -1.026   1.280  6.85148E-01  7.96206E-01 -1.11058E-01
    8994.274     -0.630   1.320  6.97565E-01  8.09405E-01 -1.11841E-01
    8994.683     -0.221   1.360  7.25430E-01  8.22321E-01 -9.68905E-02
    8995.103      0.199   1.400  7.59134E-01  8.34923E-01 -7.57880E-02
    8995.536      0.632   1.440  7.92678E-01  8.47183E-01 -5.45050E-02
    8995.981      1.077   1.480  8.21614E-01  8.59095E-01 -3.74804E-02
    8996.438      1.534   1.520  8.34160E-01  8.70630E-01 -3.64705E-02
    8996.908      2.004   1.560  8.17387E-01  8.81761E-01 -6.43742E-02
    8997.389      2.485   1.600  7.79227E-01  8.92480E-01 -1.13253E-01
    8997.883      2.979   1.640  7.41936E-01  9.02762E-01 -1.60826E-01
    8998.389      3.485   1.680  7.18476E-01  9.12580E-01 -1.94104E-01
    8998.907      4.003   1.720  7.09280E-01  9.21952E-01 -2.12672E-01
    8999.437      4.534   1.760  7.09850E-01  9.30834E-01 -2.20984E-01
    8999.980      5.076   1.800  7.16362E-01  9.39242E-01 -2.22880E-01
    9000.535      5.631   1.840  7.30216E-01  9.47178E-01 -2.16962E-01
    9001.102      6.198   1.880  7.58972E-01  9.54643E-01 -1.95671E-01
    9001.681      6.777   1.920  8.08500E-01  9.61616E-01 -1.53116E-01
    9002.272      7.368   1.960  8.74448E-01  9.68100E-01 -9.36523E-02
    9002.876      7.972   2.000  9.44470E-01  9.74120E-01 -2.96495E-02
    9003.491      8.588   2.040  1.01177E+00  9.79678E-01  3.20958E-02
    9004.119      9.215   2.080  1.08064E+00  9.84802E-01  9.58394E-02
    9004.759      9.855   2.120  1.15887E+00  9.89457E-01  1.69412E-01
    9005.412     10.508   2.160  1.24193E+00  9.93690E-01  2.48243E-01
    9006.076     11.172   2.200  1.30114E+00  9.97505E-01  3.03634E-01
    9006.753     11.849   2.240  1.31092E+00  1.00091E+00  3.10012E-01
    9007.441     12.538   2.280  1.28915E+00  1.00392E+00  2.85228E-01
    9008.143     13.239   2.320  1.27322E+00  1.00658E+00  2.66640E-01
    9008.856     13.952   2.360  1.27561E+00  1.00888E+00  2.66734E-01
    9009.581     14.677   2.400  1.28325E+00  1.01084E+00  2.72401E-01
    9010.319     15.415   2.440  1.28286E+00  1.01251E+00  2.70350E-01
    9011.069     16.165   2.480  1.27059E+00  1.01386E+00  2.56736E-01
    9011.831     16.927   2.520  1.22322E+00  1.01492E+00  2.08300E-01
    9012.605     17.701   2.560  1.15111E+00  1.01573E+00  1.35373E-01
    9013.391     18.487   2.600  1.08147E+00  1.01630E+00  6.51726E-02
    9014.190     19.286   2.640  1.03155E+00  1.01665E+00  1.49046E-02
    9015.000     20.097   2.680  9.99401E-01  1.01679E+00 -1.73922E-02
    9015.823     20.920   2.720  9.79571E-01  1.01672E+00 -3.71467E-02
    9016.659     21.755   2.760  9.68136E-01  1.01649E+00 -4.83561E-02
    9017.506     22.602   2.800  9.62426E-01  1.01611E+00 -5.36793E-02
    9018.365     23.462   2.840  9.61196E-01  1.01559E+00 -5.43895E-02
    9019.237     24.333   2.880  9.63677E-01  1.01492E+00 -5.12431E-02
    9020.121     25.217   2.920  9.69276E-01  1.01416E+00 -4.48814E-02
    9021.017     26.113   2.960  9.77720E-01  1.01328E+00 -3.55611E-02
    9021.926     27.022   3.000  9.88677E-01  1.01234E+00 -2.36648E-02
    9022.846     27.942   3.040  1.00120E+00  1.01130E+00 -1.01006E-02
    9023.779     28.875   3.080  1.01425E+00  1.01021E+00  4.03641E-03
    9024.724     29.820   3.120  1.02677E+00  1.00908E+00  1.76972E-02
    9025.681     30.777   3.160  1.03770E+00  1.00792E+00  2.97782E-02
    9026.650     31.746   3.200  1.04519E+00  1.00671E+00  3.84796E-02
    9027.631     32.728   3.240  1.04706E+00  1.00549E+00  4.15652E-02
    9028.625     33.721   3.280  1.04147E+00  1.00426E+00  3.72101E-02
    9029.631     34.727   3.320  1.02826E+00  1.00303E+00  2.52234E-02
    9030.649     35.745   3.360  1.00910E+00  1.00181E+00  7.29589E-03
    9031.679     36.775   3.400  9.86780E-01  1.00061E+00 -1.38286E-02
    9032.721     37.818   3.440  9.63826E-01  9.99416E-01 -3.55902E-02
    9033.776     38.872   3.480  9.42091E-01  9.98256E-01 -5.61653E-02
    9034.843     39.939   3.520  9.22803E-01  9.97111E-01 -7.43084E-02
    9035.922     41.018   3.560  9.06819E-01  9.96023E-01 -8.92034E-02
    9037.013     42.109   3.600  8.94432E-01  9.94954E-01 -1.00522E-01
    9038.116     43.213   3.640  8.85736E-01  9.93948E-01 -1.08212E-01
    9039.232     44.328   3.680  8.80618E-01  9.92986E-01 -1.12368E-01
    9040.360     45.456   3.720  8.78803E-01  9.92068E-01 -1.13266E-01
    9041.500     46.596   3.760  8.80081E-01  9.91217E-01 -1.11136E-01
    9042.652     47.748   3.800  8.84323E-01  9.90414E-01 -1.06091E-01
    9043.816     48.912   3.840  8.91494E-01  9.89658E-01 -9.81636E-02
    9044.993     50.089   3.880  9.01440E-01  9.88972E-01 -8.75317E-02
    9046.181     51.278   3.920  9.14026E-01  9.88358E-01 -7.43317E-02
    9047.382     52.479   3.960  9.29031E-01  9.87794E-01 -5.87630E-02
    9048.595     53.692   4.000  9.45966E-01  9.87301E-01 -4.13353E-02
    9049.821     54.917   4.040  9.63863E-01  9.86857E-01 -2.29946E-02
    9051.058     56.154   4.080  9.81358E-01  9.86483E-01 -5.12544E-03
    9052.308     57.404   4.120  9.96970E-01  9.86160E-01  1.08105E-02
    9053.570     58.666   4.160  1.00973E+00  9.85906E-01  2.38242E-02
    9054.844     59.940   4.200  1.01927E+00  9.85701E-01  3.35673E-02
    9056.130     61.226   4.240  1.02564E+00  9.85564E-01  4.00721E-02
    9057.428     62.525   4.280  1.02891E+00  9.85476E-01  4.34389E-02
    9058.739     63.835   4.320  1.02923E+00  9.85433E-01  4.37957E-02
    9060.062     65.158   4.360  1.02683E+00  9.85459E-01  4.13661E-02
    9061.397     66.493   4.400  1.02207E+00  9.85553E-01  3.65125E-02
    9062.744     67.840   4.440  1.01534E+00  9.85669E-01  2.96739E-02
    9064.104     69.200   4.480  1.00718E+00  9.85848E-01  2.13294E-02
    9065.475     70.571   4.520  9.98118E-01  9.86046E-01  1.20724E-02
    9066.859     71.955   4.560  9.89048E-01  9.86306E-01  2.74130E-03
    9068.255     73.351   4.600  9.81039E-01  9.86605E-01 -5.56560E-03
    9069.663     74.759   4.640  9.75283E-01  9.86918E-01 -1.16356E-02
    9071.083     76.180   4.680  9.72865E-01  9.87269E-01 -1.44034E-02
    9072.516     77.612   4.720  9.74487E-01  9.87675E-01 -1.31880E-02
    9073.961     79.057   4.760  9.80264E-01  9.88074E-01 -7.80923E-03
    9075.418     80.514   4.800  9.89940E-01  9.88522E-01  1.41828E-03
    9076.887     81.983   4.840  1.00261E+00  9.88956E-01  1.36501E-02
    9078.368     83.464   4.880  1.01686E+00  9.89420E-01  2.74358E-02
    9079.862     84.958   4.920  1.03069E+00  9.89912E-01  4.07787E-02
    9081.367     86.464   4.960  1.04198E+00  9.90408E-01  5.15767E-02
    9082.885     87.981   5.000  1.04915E+00  9.90882E-01  5.82728E-02
    9084.415     89.512   5.040  1.05187E+00  9.91378E-01  6.04893E-02
    9085.958     91.054   5.080  1.05101E+00  9.91876E-01  5.91323E-02
    9087.512     92.608   5.120  1.04823E+00  9.92371E-01  5.58572E-02
    9089.079     94.175   5.160  1.04518E+00  9.92862E-01  5.23216E-02
    9090.658     95.754   5.200  1.04284E+00  9.93323E-01  4.95205E-02
    9092.249     97.345   5.240  1.04132E+00  9.93777E-01  4.75411E-02
    9093.852     98.948   5.280  1.03974E+00  9.94201E-01  4.55376E-02
    9095.467    100.564   5.320  1.03667E+00  9.94616E-01  4.20581E-02
    9097.095    102.191   5.360  1.03072E+00  9.95023E-01  3.56925E-02
    9098.735    103.831   5.400  1.02121E+00  9.95394E-01  2.58128E-02
    9100.387    105.483   5.440  1.00864E+00  9.95731E-01  1.29089E-02
    9102.051    107.147   5.480  9.94339E-01  9.96054E-01 -1.71468E-03
    9103.727    108.824   5.520  9.79902E-01  9.96317E-01 -1.64147E-02
    9105.416    110.512   5.560  9.67025E-01  9.96564E-01 -2.95384E-02
    9107.117    112.213   5.600  9.57133E-01  9.96772E-01 -3.96397E-02
    9108.830    113.926   5.640  9.51255E-01  9.96942E-01 -4.56875E-02
    9110.555    115.651   5.680  9.49855E-01  9.97073E-01 -4.72179E-02
    9112.292    117.388   5.720  9.52728E-01  9.97163E-01 -4.44347E-02
    9114.042    119.138   5.760  9.59019E-01  9.97215E-01 -3.81962E-02
    9115.804    120.900   5.800  9.67438E-01  9.97250E-01 -2.98121E-02
    9117.577    122.674   5.840  9.76548E-01  9.97221E-01 -2.06727E-02
    9119.364    124.460   5.880  9.85224E-01  9.97124E-01 -1.18997E-02
    9121.162    126.258   5.920  9.92718E-01  9.97010E-01 -4.29234E-03
    9122.972    128.069   5.960  9.98383E-01  9.96856E-01  1.52684E-03
    9124.795    129.891   6.000  1.00164E+00  9.96633E-01  5.00633E-03
