# # comment:                                                     FEFF 9.9.1  
# # Source:
# # Structure
# # Reduced
# # space
# # abc:
# # angles:
# # sites:
# # POT  SCF 100  7.0000   0, screened core-hole, AFOLP (folp(0)= 1.150)
# # Abs   Z=29 Rmt= 1.205 Rnm= 1.363 K  shell
# # Pot 1 Z=29 Rmt= 1.286 Rnm= 1.367
# # Pot 2 Z=34 Rmt= 1.121 Rnm= 1.343
# # Pot 3 Z=17 Rmt= 1.371 Rnm= 1.594
# # Pot 4 Z= 8 Rmt= 0.927 Rnm= 1.079
# # Gam_ch=1.729E+00 H-L exch Vi= 0.000E+00 Vr= 0.000E+00
# # Mu=-5.544E+00eV kf=2.051E+00 Vint=-1.352E+01eV Rs_int= 1.768
# FMS rfms= 9.0000
# # PATH  Rmax=-1.000,  Keep_limit= 0.00, Heap_limit 0.00  Pwcrit= 2.50%
#  S02=0.950  Temp=   0.00  Debye_temp=   0.00  Global_sig2= 0.00000
#  Energy zero shift, vr, vi    0.00000E+00   0.00000E+00
#  Curved wave amplitude ratio filter   4.000%
#     file         sig2 tot  cw amp ratio   deg  nlegs   reff  inp sig2
#     0/   0 paths used
#  xsedge+ 50, used to normalize mu           2.4118E-04
#  -----------------------------------------------------------------------
#  omega    e    k    mu    mu0     chi     @#
    8983.287     -9.354  -1.000  4.94589E-02  6.18331E-02 -1.23742E-02
    8983.586     -9.055  -0.960  5.26569E-02  6.64935E-02 -1.38366E-02
    8983.872     -8.769  -0.920  5.61699E-02  7.16820E-02 -1.55121E-02
    8984.146     -8.495  -0.880  6.00399E-02  7.74767E-02 -1.74368E-02
    8984.409     -8.232  -0.840  6.43153E-02  8.39685E-02 -1.96533E-02
    8984.658     -7.983  -0.800  6.90513E-02  9.12629E-02 -2.22116E-02
    8984.896     -7.745  -0.760  7.43105E-02  9.94808E-02 -2.51703E-02
    8985.122     -7.519  -0.720  8.01622E-02  1.08759E-01 -2.85965E-02
    8985.335     -7.306  -0.680  8.66818E-02  1.19247E-01 -3.25653E-02
    8985.536     -7.105  -0.640  9.39472E-02  1.31105E-01 -3.71576E-02
    8985.725     -6.916  -0.600  1.02034E-01  1.44488E-01 -4.24541E-02
    8985.902     -6.739  -0.560  1.11003E-01  1.59529E-01 -4.85256E-02
    8986.067     -6.574  -0.520  1.20892E-01  1.76308E-01 -5.54167E-02
    8986.219     -6.422  -0.480  1.31686E-01  1.94809E-01 -6.31227E-02
    8986.359     -6.282  -0.440  1.43303E-01  2.14868E-01 -7.15646E-02
    8986.487     -6.154  -0.400  1.55569E-01  2.36136E-01 -8.05674E-02
    8986.603     -6.038  -0.360  1.68207E-01  2.58063E-01 -8.98564E-02
    8986.707     -5.934  -0.320  1.80854E-01  2.79934E-01 -9.90808E-02
    8986.798     -5.843  -0.280  1.93092E-01  3.00956E-01 -1.07864E-01
    8986.877     -5.764  -0.240  2.04499E-01  3.20364E-01 -1.15865E-01
    8986.944     -5.697  -0.200  2.14696E-01  3.37518E-01 -1.22821E-01
    8986.999     -5.642  -0.160  2.23380E-01  3.51949E-01 -1.28570E-01
    8987.042     -5.599  -0.120  2.30329E-01  3.63359E-01 -1.33030E-01
    8987.072     -5.569  -0.080  2.35399E-01  3.71579E-01 -1.36180E-01
    8987.097     -5.544   0.000  2.39550E-01  3.78183E-01 -1.38633E-01
    8987.152     -5.489   0.120  2.48663E-01  3.93065E-01 -1.44403E-01
    8987.194     -5.447   0.160  2.55823E-01  4.04642E-01 -1.48819E-01
    8987.249     -5.392   0.200  2.65060E-01  4.19409E-01 -1.54349E-01
    8987.316     -5.325   0.240  2.76373E-01  4.37190E-01 -1.60818E-01
    8987.396     -5.245   0.280  2.89649E-01  4.57614E-01 -1.67965E-01
    8987.487     -5.154   0.320  3.04711E-01  4.80146E-01 -1.75435E-01
    8987.591     -5.050   0.360  3.21354E-01  5.04143E-01 -1.82789E-01
    8987.706     -4.935   0.400  3.39336E-01  5.28899E-01 -1.89563E-01
    8987.834     -4.807   0.440  3.58573E-01  5.53789E-01 -1.95216E-01
    8987.975     -4.666   0.480  3.79086E-01  5.78264E-01 -1.99178E-01
    8988.127     -4.514   0.520  4.01141E-01  6.02053E-01 -2.00911E-01
    8988.292     -4.349   0.560  4.24901E-01  6.24923E-01 -2.00022E-01
    8988.468     -4.173   0.600  4.50344E-01  6.46896E-01 -1.96552E-01
    8988.657     -3.984   0.640  4.76794E-01  6.67946E-01 -1.91152E-01
    8988.859     -3.782   0.680  5.02866E-01  6.88156E-01 -1.85290E-01
    8989.072     -3.569   0.720  5.26348E-01  7.07645E-01 -1.81297E-01
    8989.298     -3.344   0.760  5.44508E-01  7.26487E-01 -1.81979E-01
    8989.535     -3.106   0.800  5.55025E-01  7.44746E-01 -1.89721E-01
    8989.785     -2.856   0.840  5.57135E-01  7.62490E-01 -2.05355E-01
    8990.047     -2.594   0.880  5.52118E-01  7.79751E-01 -2.27632E-01
    8990.322     -2.319   0.920  5.43023E-01  7.96545E-01 -2.53522E-01
    8990.608     -2.033   0.960  5.33793E-01  8.12895E-01 -2.79102E-01
    8990.907     -1.734   1.000  5.27986E-01  8.28793E-01 -3.00806E-01
    8991.218     -1.423   1.040  5.27986E-01  8.44239E-01 -3.16253E-01
    8991.541     -1.100   1.080  5.34987E-01  8.59187E-01 -3.24200E-01
    8991.876     -0.765   1.120  5.49316E-01  8.73665E-01 -3.24349E-01
    8992.224     -0.417   1.160  5.69951E-01  8.87596E-01 -3.17645E-01
    8992.583     -0.058   1.200  5.94819E-01  9.01002E-01 -3.06183E-01
    8992.955      0.314   1.240  6.23041E-01  9.13820E-01 -2.90779E-01
    8993.339      0.698   1.280  6.56716E-01  9.26046E-01 -2.69331E-01
    8993.735      1.094   1.320  6.98302E-01  9.37638E-01 -2.39336E-01
    8994.144      1.503   1.360  7.49854E-01  9.48614E-01 -1.98759E-01
    8994.564      1.923   1.400  8.13199E-01  9.58932E-01 -1.45733E-01
    8994.997      2.356   1.440  8.87811E-01  9.68572E-01 -8.07607E-02
    8995.442      2.801   1.480  9.68001E-01  9.77574E-01 -9.57355E-03
    8995.899      3.258   1.520  1.04633E+00  9.85879E-01  6.04469E-02
    8996.369      3.728   1.560  1.12054E+00  9.93515E-01  1.27024E-01
    8996.850      4.209   1.600  1.18953E+00  1.00050E+00  1.89029E-01
    8997.344      4.703   1.640  1.25001E+00  1.00682E+00  2.43190E-01
    8997.850      5.209   1.680  1.29638E+00  1.01250E+00  2.83878E-01
    8998.368      5.727   1.720  1.31993E+00  1.01757E+00  3.02363E-01
    8998.899      6.258   1.760  1.31697E+00  1.02203E+00  2.94944E-01
    8999.441      6.800   1.800  1.29361E+00  1.02589E+00  2.67718E-01
    8999.996      7.355   1.840  1.26474E+00  1.02922E+00  2.35516E-01
    9000.563      7.922   1.880  1.24189E+00  1.03201E+00  2.09875E-01
    9001.142      8.501   1.920  1.22612E+00  1.03431E+00  1.91808E-01
    9001.733      9.092   1.960  1.21624E+00  1.03613E+00  1.80105E-01
    9002.337      9.696   2.000  1.21165E+00  1.03750E+00  1.74145E-01
    9002.953     10.311   2.040  1.21020E+00  1.03847E+00  1.71728E-01
    9003.580     10.939   2.080  1.21038E+00  1.03906E+00  1.71327E-01
    9004.220     11.579   2.120  1.21169E+00  1.03930E+00  1.72396E-01
    9004.873     12.232   2.160  1.20949E+00  1.03920E+00  1.70289E-01
    9005.537     12.896   2.200  1.19670E+00  1.03884E+00  1.57861E-01
    9006.214     13.573   2.240  1.17023E+00  1.03819E+00  1.32038E-01
    9006.903     14.262   2.280  1.13361E+00  1.03732E+00  9.62974E-02
    9007.604     14.963   2.320  1.09553E+00  1.03623E+00  5.92996E-02
    9008.317     15.676   2.360  1.06705E+00  1.03497E+00  3.20794E-02
    9009.042     16.401   2.400  1.05399E+00  1.03355E+00  2.04436E-02
    9009.780     17.139   2.440  1.05558E+00  1.03201E+00  2.35678E-02
    9010.530     17.889   2.480  1.06855E+00  1.03033E+00  3.82144E-02
    9011.292     18.651   2.520  1.08286E+00  1.02859E+00  5.42709E-02
    9012.066     19.425   2.560  1.09321E+00  1.02677E+00  6.64476E-02
    9012.852     20.211   2.600  1.09734E+00  1.02490E+00  7.24479E-02
    9013.651     21.010   2.640  1.09497E+00  1.02301E+00  7.19590E-02
    9014.462     21.821   2.680  1.08647E+00  1.02109E+00  6.53884E-02
    9015.285     22.644   2.720  1.07280E+00  1.01916E+00  5.36419E-02
    9016.120     23.479   2.760  1.05538E+00  1.01724E+00  3.81437E-02
    9016.967     24.326   2.800  1.03579E+00  1.01535E+00  2.04419E-02
    9017.827     25.186   2.840  1.01552E+00  1.01350E+00  2.01681E-03
    9018.698     26.057   2.880  9.95854E-01  1.01171E+00 -1.58600E-02
    9019.582     26.941   2.920  9.77540E-01  1.00995E+00 -3.24140E-02
    9020.478     27.837   2.960  9.61147E-01  1.00829E+00 -4.71416E-02
    9021.387     28.746   3.000  9.46846E-01  1.00668E+00 -5.98330E-02
    9022.307     29.666   3.040  9.34557E-01  1.00515E+00 -7.05927E-02
    9023.240     30.599   3.080  9.24140E-01  1.00373E+00 -7.95855E-02
    9024.185     31.544   3.120  9.15452E-01  1.00239E+00 -8.69369E-02
    9025.142     32.501   3.160  9.08249E-01  1.00114E+00 -9.28894E-02
    9026.111     33.470   3.200  9.02421E-01  9.99980E-01 -9.75588E-02
    9027.093     34.452   3.240  8.98065E-01  9.98934E-01 -1.00869E-01
    9028.086     35.445   3.280  8.95214E-01  9.98005E-01 -1.02791E-01
    9029.092     36.451   3.320  8.93907E-01  9.97192E-01 -1.03286E-01
    9030.110     37.469   3.360  8.94171E-01  9.96474E-01 -1.02303E-01
    9031.140     38.499   3.400  8.95896E-01  9.95870E-01 -9.99747E-02
    9032.183     39.542   3.440  8.98821E-01  9.95363E-01 -9.65423E-02
    9033.237     40.596   3.480  9.02956E-01  9.94974E-01 -9.20184E-02
    9034.304     41.663   3.520  9.08406E-01  9.94724E-01 -8.63185E-02
    9035.383     42.742   3.560  9.15186E-01  9.94549E-01 -7.93628E-02
    9036.474     43.833   3.600  9.23478E-01  9.94509E-01 -7.10309E-02
    9037.578     44.937   3.640  9.33280E-01  9.94563E-01 -6.12826E-02
    9038.693     46.052   3.680  9.44587E-01  9.94709E-01 -5.01212E-02
    9039.821     47.180   3.720  9.57251E-01  9.94966E-01 -3.77148E-02
    9040.961     48.320   3.760  9.70949E-01  9.95313E-01 -2.43634E-02
    9042.113     49.472   3.800  9.85243E-01  9.95771E-01 -1.05278E-02
    9043.277     50.636   3.840  9.99575E-01  9.96315E-01  3.25977E-03
    9044.454     51.813   3.880  1.01356E+00  9.96943E-01  1.66175E-02
    9045.643     53.002   3.920  1.02700E+00  9.97652E-01  2.93435E-02
    9046.844     54.202   3.960  1.03984E+00  9.98443E-01  4.13922E-02
    9048.057     55.416   4.000  1.05207E+00  9.99310E-01  5.27589E-02
    9049.282     56.641   4.040  1.06354E+00  1.00023E+00  6.33091E-02
    9050.519     57.878   4.080  1.07385E+00  1.00122E+00  7.26288E-02
    9051.769     59.128   4.120  1.08234E+00  1.00226E+00  8.00790E-02
    9053.031     60.390   4.160  1.08854E+00  1.00337E+00  8.51722E-02
    9054.305     61.664   4.200  1.09219E+00  1.00450E+00  8.76942E-02
    9055.591     62.950   4.240  1.09351E+00  1.00569E+00  8.78214E-02
    9056.890     64.249   4.280  1.09281E+00  1.00689E+00  8.59172E-02
    9058.200     65.559   4.320  1.09050E+00  1.00813E+00  8.23767E-02
    9059.523     66.882   4.360  1.08685E+00  1.00940E+00  7.74569E-02
    9060.858     68.217   4.400  1.08195E+00  1.01067E+00  7.12808E-02
    9062.205     69.564   4.440  1.07596E+00  1.01195E+00  6.40122E-02
    9063.565     70.924   4.480  1.06910E+00  1.01323E+00  5.58682E-02
    9064.936     72.295   4.520  1.06178E+00  1.01450E+00  4.72762E-02
    9066.320     73.679   4.560  1.05463E+00  1.01577E+00  3.88556E-02
    9067.716     75.075   4.600  1.04818E+00  1.01701E+00  3.11738E-02
    9069.124     76.483   4.640  1.04267E+00  1.01824E+00  2.44350E-02
    9070.545     77.904   4.680  1.03779E+00  1.01943E+00  1.83651E-02
    9071.977     79.336   4.720  1.03295E+00  1.02061E+00  1.23438E-02
    9073.422     80.781   4.760  1.02745E+00  1.02172E+00  5.73297E-03
    9074.879     82.238   4.800  1.02098E+00  1.02281E+00 -1.83258E-03
    9076.348     83.707   4.840  1.01340E+00  1.02383E+00 -1.04360E-02
    9077.829     85.188   4.880  1.00495E+00  1.02480E+00 -1.98538E-02
    9079.323     86.682   4.920  9.96138E-01  1.02570E+00 -2.95652E-02
    9080.829     88.188   4.960  9.87763E-01  1.02655E+00 -3.87876E-02
    9082.346     89.705   5.000  9.80728E-01  1.02732E+00 -4.65961E-02
    9083.877     91.236   5.040  9.75867E-01  1.02804E+00 -5.21743E-02
    9085.419     92.778   5.080  9.73662E-01  1.02868E+00 -5.50186E-02
    9086.973     94.332   5.120  9.74191E-01  1.02924E+00 -5.50503E-02
    9088.540     95.899   5.160  9.77099E-01  1.02972E+00 -5.26208E-02
    9090.119     97.478   5.200  9.81733E-01  1.03014E+00 -4.84064E-02
    9091.710     99.069   5.240  9.87152E-01  1.03046E+00 -4.33040E-02
    9093.313    100.672   5.280  9.92435E-01  1.03071E+00 -3.82762E-02
    9094.929    102.288   5.320  9.96626E-01  1.03086E+00 -3.42361E-02
    9096.556    103.915   5.360  9.99117E-01  1.03095E+00 -3.18359E-02
    9098.196    105.555   5.400  9.99726E-01  1.03096E+00 -3.12352E-02
    9099.848    107.207   5.440  9.98832E-01  1.03086E+00 -3.20312E-02
    9101.512    108.871   5.480  9.97223E-01  1.03071E+00 -3.34848E-02
    9103.189    110.548   5.520  9.95611E-01  1.03048E+00 -3.48641E-02
    9104.877    112.236   5.560  9.94552E-01  1.03018E+00 -3.56328E-02
    9106.578    113.937   5.600  9.94325E-01  1.02979E+00 -3.54698E-02
    9108.291    115.650   5.640  9.95117E-01  1.02935E+00 -3.42325E-02
    9110.016    117.375   5.680  9.96980E-01  1.02883E+00 -3.18482E-02
    9111.753    119.112   5.720  1.00007E+00  1.02826E+00 -2.81825E-02
    9113.503    120.862   5.760  1.00473E+00  1.02761E+00 -2.28809E-02
    9115.265    122.624   5.800  1.01143E+00  1.02690E+00 -1.54707E-02
    9117.039    124.398   5.840  1.02042E+00  1.02617E+00 -5.75058E-03
    9118.825    126.184   5.880  1.03118E+00  1.02537E+00  5.80269E-03
    9120.623    127.982   5.920  1.04256E+00  1.02454E+00  1.80187E-02
    9122.434    129.793   5.960  1.05301E+00  1.02369E+00  2.93194E-02
    9124.256    131.615   6.000  1.06098E+00  1.02279E+00  3.81908E-02
