# # comment:                                                     FEFF 9.9.1  
# # Source:
# # Structure
# # Reduced
# # space
# # abc:
# # angles:
# # sites:
# # POT  SCF 100  7.0000   0, screened core-hole, AFOLP (folp(0)= 1.150)
# # Abs   Z=29 Rmt= 1.310 Rnm= 1.382 K  shell
# # Pot 1 Z= 3 Rmt= 1.288 Rnm= 1.345
# # Pot 2 Z=73 Rmt= 1.320 Rnm= 1.463
# # Pot 3 Z=29 Rmt= 1.310 Rnm= 1.382
# # Pot 4 Z= 8 Rmt= 0.993 Rnm= 1.075
# # Gam_ch=1.729E+00 H-L exch Vi= 0.000E+00 Vr= 0.000E+00
# # Mu=-5.693E+00eV kf=2.223E+00 Vint=-1.681E+01eV Rs_int= 1.632
# FMS rfms= 9.0000
# # PATH  Rmax=-1.000,  Keep_limit= 0.00, Heap_limit 0.00  Pwcrit= 2.50%
#  S02=0.950  Temp=   0.00  Debye_temp=   0.00  Global_sig2= 0.00000
#  Energy zero shift, vr, vi    0.00000E+00   0.00000E+00
#  Curved wave amplitude ratio filter   4.000%
#     file         sig2 tot  cw amp ratio   deg  nlegs   reff  inp sig2
#     0/   0 paths used
#  xsedge+ 50, used to normalize mu           2.4560E-04
#  -----------------------------------------------------------------------
#  omega    e    k    mu    mu0     chi     @#
    8983.692     -9.503  -1.000  6.24933E-02  5.90879E-02  3.40541E-03
    8983.991     -9.204  -0.960  6.70341E-02  6.35361E-02  3.49805E-03
    8984.278     -8.918  -0.920  7.20384E-02  6.84931E-02  3.54531E-03
    8984.552     -8.643  -0.880  7.75645E-02  7.40351E-02  3.52938E-03
    8984.814     -8.381  -0.840  8.36787E-02  8.02511E-02  3.42758E-03
    8985.064     -8.131  -0.800  9.04557E-02  8.72443E-02  3.21142E-03
    8985.302     -7.893  -0.760  9.79787E-02  9.51331E-02  2.84556E-03
    8985.527     -7.668  -0.720  1.06339E-01  1.04052E-01  2.28721E-03
    8985.741     -7.454  -0.680  1.15635E-01  1.14149E-01  1.48588E-03
    8985.942     -7.253  -0.640  1.25965E-01  1.25580E-01  3.84536E-04
    8986.131     -7.064  -0.600  1.37423E-01  1.38501E-01 -1.07730E-03
    8986.308     -6.888  -0.560  1.50085E-01  1.53042E-01 -2.95713E-03
    8986.472     -6.723  -0.520  1.63986E-01  1.69284E-01 -5.29868E-03
    8986.625     -6.571  -0.480  1.79095E-01  1.87212E-01 -8.11664E-03
    8986.765     -6.430  -0.440  1.95288E-01  2.06667E-01 -1.13788E-02
    8986.893     -6.302  -0.400  2.12315E-01  2.27306E-01 -1.49916E-02
    8987.009     -6.187  -0.360  2.29793E-01  2.48591E-01 -1.87977E-02
    8987.112     -6.083  -0.320  2.47227E-01  2.69820E-01 -2.25933E-02
    8987.204     -5.991  -0.280  2.64052E-01  2.90216E-01 -2.61643E-02
    8987.283     -5.912  -0.240  2.79704E-01  3.09034E-01 -2.93297E-02
    8987.350     -5.845  -0.200  2.93679E-01  3.25651E-01 -3.19720E-02
    8987.405     -5.790  -0.160  3.05572E-01  3.39618E-01 -3.40460E-02
    8987.447     -5.748  -0.120  3.15083E-01  3.50649E-01 -3.55658E-02
    8987.478     -5.717  -0.080  3.22008E-01  3.58589E-01 -3.65812E-02
    8987.502     -5.693   0.000  3.27629E-01  3.64964E-01 -3.73348E-02
    8987.557     -5.638   0.120  3.40189E-01  3.79322E-01 -3.91334E-02
    8987.600     -5.595   0.160  3.50113E-01  3.90458E-01 -4.03453E-02
    8987.655     -5.540   0.200  3.63023E-01  4.04667E-01 -4.16434E-02
    8987.722     -5.473   0.240  3.78941E-01  4.21712E-01 -4.27712E-02
    8987.801     -5.394   0.280  3.97820E-01  4.41223E-01 -4.34027E-02
    8987.892     -5.303   0.320  4.19529E-01  4.62663E-01 -4.31339E-02
    8987.996     -5.199   0.360  4.43874E-01  4.85350E-01 -4.14762E-02
    8988.112     -5.083   0.400  4.70676E-01  5.08603E-01 -3.79275E-02
    8988.240     -4.955   0.440  4.99843E-01  5.31743E-01 -3.18997E-02
    8988.380     -4.815   0.480  5.31519E-01  5.54275E-01 -2.27550E-02
    8988.533     -4.663   0.520  5.66125E-01  5.75886E-01 -9.76077E-03
    8988.697     -4.498   0.560  6.04380E-01  5.96411E-01  7.96916E-03
    8988.874     -4.321   0.600  6.47490E-01  6.15818E-01  3.16716E-02
    8989.063     -4.132   0.640  6.97394E-01  6.34199E-01  6.31951E-02
    8989.264     -3.931   0.680  7.56014E-01  6.51629E-01  1.04384E-01
    8989.477     -3.718   0.720  8.23184E-01  6.68225E-01  1.54959E-01
    8989.703     -3.492   0.760  8.93968E-01  6.84120E-01  2.09848E-01
    8989.941     -3.254   0.800  9.58398E-01  6.99438E-01  2.58960E-01
    8990.191     -3.004   0.840  1.00678E+00  7.14228E-01  2.92557E-01
    8990.453     -2.742   0.880  1.03807E+00  7.28602E-01  3.09469E-01
    8990.727     -2.468   0.920  1.06057E+00  7.42596E-01  3.17972E-01
    8991.014     -2.181   0.960  1.08282E+00  7.56275E-01  3.26549E-01
    8991.312     -1.883   1.000  1.10339E+00  7.69645E-01  3.33746E-01
    8991.623     -1.572   1.040  1.11188E+00  7.82767E-01  3.29118E-01
    8991.946     -1.249   1.080  1.10310E+00  7.95611E-01  3.07489E-01
    8992.282     -0.914   1.120  1.08533E+00  8.08199E-01  2.77132E-01
    8992.629     -0.566   1.160  1.06847E+00  8.20527E-01  2.47945E-01
    8992.989     -0.206   1.200  1.05393E+00  8.32586E-01  2.21341E-01
    8993.361      0.165   1.240  1.04214E+00  8.44385E-01  1.97753E-01
    8993.745      0.550   1.280  1.03562E+00  8.55867E-01  1.79751E-01
    8994.141      0.946   1.320  1.02069E+00  8.67074E-01  1.53614E-01
    8994.549      1.354   1.360  9.68803E-01  8.77945E-01  9.08585E-02
    8994.970      1.775   1.400  8.76656E-01  8.88499E-01 -1.18432E-02
    8995.403      2.208   1.440  7.78852E-01  8.98695E-01 -1.19843E-01
    8995.848      2.653   1.480  7.10547E-01  9.08528E-01 -1.97981E-01
    8996.305      3.110   1.520  6.79648E-01  9.17976E-01 -2.38327E-01
    8996.774      3.579   1.560  6.76735E-01  9.27036E-01 -2.50301E-01
    8997.256      4.061   1.600  6.94164E-01  9.35706E-01 -2.41542E-01
    8997.750      4.555   1.640  7.29660E-01  9.43942E-01 -2.14282E-01
    8998.256      5.061   1.680  7.77670E-01  9.51763E-01 -1.74093E-01
    8998.774      5.579   1.720  8.32935E-01  9.59170E-01 -1.26235E-01
    8999.304      6.109   1.760  8.99527E-01  9.66121E-01 -6.65942E-02
    8999.847      6.652   1.800  9.78798E-01  9.72656E-01  6.14222E-03
    9000.401      7.206   1.840  1.05590E+00  9.78758E-01  7.71400E-02
    9000.968      7.773   1.880  1.10967E+00  9.84428E-01  1.25241E-01
    9001.547      8.352   1.920  1.13523E+00  9.89647E-01  1.45582E-01
    9002.139      8.944   1.960  1.14432E+00  9.94463E-01  1.49855E-01
    9002.742      9.547   2.000  1.14784E+00  9.98860E-01  1.48982E-01
    9003.358     10.163   2.040  1.14783E+00  1.00286E+00  1.44971E-01
    9003.986     10.791   2.080  1.14395E+00  1.00646E+00  1.37494E-01
    9004.626     11.431   2.120  1.14269E+00  1.00967E+00  1.33025E-01
    9005.278     12.083   2.160  1.16028E+00  1.01253E+00  1.47752E-01
    9005.943     12.748   2.200  1.21235E+00  1.01502E+00  1.97334E-01
    9006.619     13.424   2.240  1.29545E+00  1.01715E+00  2.78305E-01
    9007.308     14.113   2.280  1.37660E+00  1.01897E+00  3.57638E-01
    9008.009     14.814   2.320  1.41550E+00  1.02048E+00  3.95014E-01
    9008.722     15.527   2.360  1.40111E+00  1.02171E+00  3.79400E-01
    9009.448     16.253   2.400  1.34007E+00  1.02265E+00  3.17423E-01
    9010.185     16.990   2.440  1.23772E+00  1.02331E+00  2.14417E-01
    9010.935     17.740   2.480  1.10971E+00  1.02376E+00  8.59481E-02
    9011.697     18.502   2.520  9.86937E-01  1.02396E+00 -3.70247E-02
    9012.471     19.276   2.560  8.93862E-01  1.02397E+00 -1.30109E-01
    9013.258     20.063   2.600  8.38754E-01  1.02378E+00 -1.85028E-01
    9014.056     20.861   2.640  8.27504E-01  1.02342E+00 -1.95914E-01
    9014.867     21.672   2.680  8.33924E-01  1.02289E+00 -1.88969E-01
    9015.690     22.495   2.720  8.41160E-01  1.02223E+00 -1.81074E-01
    9016.525     23.330   2.760  8.45069E-01  1.02145E+00 -1.76378E-01
    9017.373     24.178   2.800  8.46725E-01  1.02054E+00 -1.73818E-01
    9018.232     25.037   2.840  8.48877E-01  1.01955E+00 -1.70670E-01
    9019.104     25.909   2.880  8.53262E-01  1.01847E+00 -1.65206E-01
    9019.988     26.793   2.920  8.60231E-01  1.01733E+00 -1.57102E-01
    9020.884     27.689   2.960  8.69642E-01  1.01613E+00 -1.46484E-01
    9021.792     28.597   3.000  8.80948E-01  1.01487E+00 -1.33925E-01
    9022.713     29.518   3.040  8.93542E-01  1.01358E+00 -1.20039E-01
    9023.645     30.450   3.080  9.07363E-01  1.01228E+00 -1.04912E-01
    9024.590     31.395   3.120  9.22574E-01  1.01094E+00 -8.83695E-02
    9025.547     32.352   3.160  9.38881E-01  1.00963E+00 -7.07489E-02
    9026.517     33.321   3.200  9.55391E-01  1.00832E+00 -5.29268E-02
    9027.498     34.303   3.240  9.70946E-01  1.00701E+00 -3.60655E-02
    9028.492     35.297   3.280  9.84524E-01  1.00574E+00 -2.12125E-02
    9029.497     36.302   3.320  9.95772E-01  1.00450E+00 -8.72288E-03
    9030.516     37.320   3.360  1.00485E+00  1.00327E+00  1.57791E-03
    9031.546     38.351   3.400  1.01224E+00  1.00211E+00  1.01333E-02
    9032.588     39.393   3.440  1.01844E+00  1.00098E+00  1.74524E-02
    9033.643     40.448   3.480  1.02383E+00  9.99908E-01  2.39215E-02
    9034.710     41.514   3.520  1.02848E+00  9.98879E-01  2.96005E-02
    9035.789     42.593   3.560  1.03204E+00  9.97941E-01  3.40957E-02
    9036.880     43.685   3.600  1.03386E+00  9.97033E-01  3.68276E-02
    9037.983     44.788   3.640  1.03359E+00  9.96221E-01  3.73660E-02
    9039.099     45.904   3.680  1.03121E+00  9.95461E-01  3.57499E-02
    9040.226     47.031   3.720  1.02744E+00  9.94778E-01  3.26611E-02
    9041.366     48.171   3.760  1.02325E+00  9.94169E-01  2.90798E-02
    9042.518     49.323   3.800  1.01938E+00  9.93616E-01  2.57611E-02
    9043.683     50.488   3.840  1.01612E+00  9.93161E-01  2.29568E-02
    9044.859     51.664   3.880  1.01332E+00  9.92762E-01  2.05603E-02
    9046.048     52.853   3.920  1.01103E+00  9.92440E-01  1.85900E-02
    9047.249     54.054   3.960  1.00958E+00  9.92195E-01  1.73900E-02
    9048.462     55.267   4.000  1.00949E+00  9.92025E-01  1.74679E-02
    9049.687     56.492   4.040  1.01118E+00  9.91910E-01  1.92703E-02
    9050.925     57.730   4.080  1.01479E+00  9.91869E-01  2.29194E-02
    9052.175     58.979   4.120  1.02007E+00  9.91903E-01  2.81648E-02
    9053.436     60.241   4.160  1.02648E+00  9.92012E-01  3.44656E-02
    9054.710     61.515   4.200  1.03318E+00  9.92172E-01  4.10071E-02
    9055.997     62.802   4.240  1.03926E+00  9.92402E-01  4.68562E-02
    9057.295     64.100   4.280  1.04396E+00  9.92680E-01  5.12795E-02
    9058.606     65.411   4.320  1.04700E+00  9.93004E-01  5.39931E-02
    9059.929     66.734   4.360  1.04833E+00  9.93393E-01  5.49360E-02
    9061.264     68.069   4.400  1.04796E+00  9.93826E-01  5.41331E-02
    9062.611     69.416   4.440  1.04590E+00  9.94299E-01  5.15982E-02
    9063.970     70.775   4.480  1.04221E+00  9.94790E-01  4.74217E-02
    9065.342     72.147   4.520  1.03723E+00  9.95340E-01  4.18872E-02
    9066.726     73.531   4.560  1.03131E+00  9.95927E-01  3.53846E-02
    9068.122     74.927   4.600  1.02463E+00  9.96525E-01  2.81078E-02
    9069.530     76.335   4.640  1.01715E+00  9.97154E-01  1.99943E-02
    9070.950     77.755   4.680  1.00872E+00  9.97790E-01  1.09339E-02
    9072.383     79.188   4.720  9.99503E-01  9.98431E-01  1.07167E-03
    9073.827     80.632   4.760  9.90052E-01  9.99098E-01 -9.04655E-03
    9075.284     82.089   4.800  9.81154E-01  9.99769E-01 -1.86152E-02
    9076.753     83.558   4.840  9.73516E-01  1.00044E+00 -2.69216E-02
    9078.235     85.040   4.880  9.67563E-01  1.00110E+00 -3.35404E-02
    9079.728     86.533   4.920  9.63407E-01  1.00174E+00 -3.83339E-02
    9081.234     88.039   4.960  9.60996E-01  1.00237E+00 -4.13755E-02
    9082.752     89.557   5.000  9.60077E-01  1.00299E+00 -4.29173E-02
    9084.282     91.087   5.040  9.60122E-01  1.00358E+00 -4.34625E-02
    9085.824     92.629   5.080  9.60494E-01  1.00416E+00 -4.36704E-02
    9087.379     94.184   5.120  9.60581E-01  1.00471E+00 -4.41258E-02
    9088.945     95.750   5.160  9.60031E-01  1.00521E+00 -4.51802E-02
    9090.524     97.329   5.200  9.58752E-01  1.00568E+00 -4.69238E-02
    9092.115     98.920   5.240  9.56838E-01  1.00610E+00 -4.92638E-02
    9093.719    100.524   5.280  9.54610E-01  1.00651E+00 -5.18979E-02
    9095.334    102.139   5.320  9.52618E-01  1.00685E+00 -5.42311E-02
    9096.962    103.767   5.360  9.51748E-01  1.00714E+00 -5.53952E-02
    9098.601    105.406   5.400  9.52961E-01  1.00737E+00 -5.44095E-02
    9100.253    107.058   5.440  9.57087E-01  1.00758E+00 -5.04878E-02
    9101.918    108.723   5.480  9.64431E-01  1.00771E+00 -4.32813E-02
    9103.594    110.399   5.520  9.74822E-01  1.00780E+00 -3.29788E-02
    9105.283    112.088   5.560  9.87579E-01  1.00782E+00 -2.02412E-02
    9106.983    113.788   5.600  1.00178E+00  1.00782E+00 -6.03356E-03
    9108.696    115.501   5.640  1.01630E+00  1.00772E+00  8.57473E-03
    9110.422    117.226   5.680  1.03014E+00  1.00760E+00  2.25404E-02
    9112.159    118.964   5.720  1.04237E+00  1.00741E+00  3.49594E-02
    9113.908    120.713   5.760  1.05236E+00  1.00718E+00  4.51843E-02
    9115.670    122.475   5.800  1.05967E+00  1.00687E+00  5.28039E-02
    9117.444    124.249   5.840  1.06401E+00  1.00652E+00  5.74856E-02
    9119.230    126.035   5.880  1.06502E+00  1.00614E+00  5.88866E-02
    9121.029    127.833   5.920  1.06256E+00  1.00571E+00  5.68535E-02
    9122.839    129.644   5.960  1.05688E+00  1.00525E+00  5.16384E-02
    9124.662    131.467   6.000  1.04833E+00  1.00468E+00  4.36540E-02
