# # comment:                                                     FEFF 9.9.1  
# # Source:
# # Structure
# # Reduced
# # space
# # abc:
# # angles:
# # sites:
# # POT  SCF 100  7.0000   0, screened core-hole, AFOLP (folp(0)= 1.150)
# # Abs   Z=29 Rmt= 1.236 Rnm= 1.313 K  shell
# # Pot 1 Z= 3 Rmt= 1.283 Rnm= 1.335
# # Pot 2 Z=23 Rmt= 1.094 Rnm= 1.308
# # Pot 3 Z=29 Rmt= 1.233 Rnm= 1.314
# # Pot 4 Z= 8 Rmt= 1.012 Rnm= 1.098
# # Gam_ch=1.729E+00 H-L exch Vi= 0.000E+00 Vr= 0.000E+00
# # Mu=-8.985E+00eV kf=2.208E+00 Vint=-1.756E+01eV Rs_int= 1.643
# FMS rfms= 9.0000
# # PATH  Rmax=-1.000,  Keep_limit= 0.00, Heap_limit 0.00  Pwcrit= 2.50%
#  S02=0.950  Temp=   0.00  Debye_temp=   0.00  Global_sig2= 0.00000
#  Energy zero shift, vr, vi    0.00000E+00   0.00000E+00
#  Curved wave amplitude ratio filter   4.000%
#     file         sig2 tot  cw amp ratio   deg  nlegs   reff  inp sig2
#     0/   0 paths used
#  xsedge+ 50, used to normalize mu           2.4683E-04
#  -----------------------------------------------------------------------
#  omega    e    k    mu    mu0     chi     @#
    8984.397    -12.795  -1.000  3.67255E-02  5.20566E-02 -1.53311E-02
    8984.696    -12.497  -0.960  3.86111E-02  5.57873E-02 -1.71761E-02
    8984.982    -12.210  -0.920  4.06411E-02  5.99287E-02 -1.92876E-02
    8985.257    -11.936  -0.880  4.28321E-02  6.45410E-02 -2.17088E-02
    8985.519    -11.674  -0.840  4.52034E-02  6.96940E-02 -2.44906E-02
    8985.769    -11.424  -0.800  4.77770E-02  7.54689E-02 -2.76918E-02
    8986.006    -11.186  -0.760  5.05777E-02  8.19585E-02 -3.13807E-02
    8986.232    -10.960  -0.720  5.36331E-02  8.92677E-02 -3.56346E-02
    8986.445    -10.747  -0.680  5.69728E-02  9.75120E-02 -4.05392E-02
    8986.647    -10.546  -0.640  6.06280E-02  1.06813E-01 -4.61854E-02
    8986.836    -10.357  -0.600  6.46280E-02  1.17291E-01 -5.26631E-02
    8987.012    -10.180  -0.560  6.89974E-02  1.29047E-01 -6.00499E-02
    8987.177    -10.016  -0.520  7.37498E-02  1.42142E-01 -6.83923E-02
    8987.329     -9.863  -0.480  7.88798E-02  1.56561E-01 -7.76816E-02
    8987.469     -9.723  -0.440  8.43540E-02  1.72179E-01 -8.78247E-02
    8987.597     -9.595  -0.400  9.01024E-02  1.88723E-01 -9.86210E-02
    8987.713     -9.479  -0.360  9.60126E-02  2.05770E-01 -1.09757E-01
    8987.817     -9.375  -0.320  1.01933E-01  2.22765E-01 -1.20832E-01
    8987.908     -9.284  -0.280  1.07685E-01  2.39096E-01 -1.31412E-01
    8987.988     -9.205  -0.240  1.13078E-01  2.54172E-01 -1.41094E-01
    8988.055     -9.138  -0.200  1.17933E-01  2.67497E-01 -1.49564E-01
    8988.110     -9.083  -0.160  1.22098E-01  2.78709E-01 -1.56611E-01
    8988.152     -9.040  -0.120  1.25457E-01  2.87573E-01 -1.62116E-01
    8988.183     -9.010  -0.080  1.27926E-01  2.93960E-01 -1.66034E-01
    8988.207     -8.985   0.000  1.29977E-01  2.99093E-01 -1.69116E-01
    8988.262     -8.930   0.120  1.34456E-01  3.10688E-01 -1.76231E-01
    8988.305     -8.888   0.160  1.37950E-01  3.19686E-01 -1.81736E-01
    8988.359     -8.833   0.200  1.42436E-01  3.31166E-01 -1.88730E-01
    8988.427     -8.766   0.240  1.47960E-01  3.45019E-01 -1.97059E-01
    8988.506     -8.687   0.280  1.54420E-01  3.60914E-01 -2.06494E-01
    8988.597     -8.595   0.320  1.61732E-01  3.78498E-01 -2.16766E-01
    8988.701     -8.492   0.360  1.69713E-01  3.97255E-01 -2.27543E-01
    8988.817     -8.376   0.400  1.78159E-01  4.16644E-01 -2.38484E-01
    8988.945     -8.248   0.440  1.86898E-01  4.36206E-01 -2.49308E-01
    8989.085     -8.107   0.480  1.95724E-01  4.55529E-01 -2.59804E-01
    8989.237     -7.955   0.520  2.04381E-01  4.74398E-01 -2.70017E-01
    8989.402     -7.791   0.560  2.12212E-01  4.92665E-01 -2.80453E-01
    8989.579     -7.614   0.600  2.18300E-01  5.10341E-01 -2.92041E-01
    8989.768     -7.425   0.640  2.21818E-01  5.27457E-01 -3.05639E-01
    8989.969     -7.224   0.680  2.22779E-01  5.44080E-01 -3.21301E-01
    8990.182     -7.010   0.720  2.22538E-01  5.60289E-01 -3.37751E-01
    8990.408     -6.785   0.760  2.23243E-01  5.76160E-01 -3.52917E-01
    8990.645     -6.547   0.800  2.26923E-01  5.91804E-01 -3.64882E-01
    8990.895     -6.297   0.840  2.34878E-01  6.07237E-01 -3.72358E-01
    8991.158     -6.035   0.880  2.48114E-01  6.22520E-01 -3.74407E-01
    8991.432     -5.761   0.920  2.68005E-01  6.37686E-01 -3.69680E-01
    8991.718     -5.474   0.960  2.96395E-01  6.52753E-01 -3.56357E-01
    8992.017     -5.175   1.000  3.35295E-01  6.67732E-01 -3.32437E-01
    8992.328     -4.864   1.040  3.87271E-01  6.82602E-01 -2.95331E-01
    8992.651     -4.541   1.080  4.54687E-01  6.97398E-01 -2.42711E-01
    8992.986     -4.206   1.120  5.33202E-01  7.12069E-01 -1.78867E-01
    8993.334     -3.859   1.160  6.07134E-01  7.26617E-01 -1.19482E-01
    8993.693     -3.499   1.200  6.62241E-01  7.41001E-01 -7.87593E-02
    8994.065     -3.127   1.240  6.98946E-01  7.55196E-01 -5.62499E-02
    8994.449     -2.743   1.280  7.17747E-01  7.69198E-01 -5.14509E-02
    8994.846     -2.347   1.320  7.10897E-01  7.82978E-01 -7.20809E-02
    8995.254     -1.938   1.360  6.85703E-01  7.96468E-01 -1.10765E-01
    8995.675     -1.518   1.400  6.69538E-01  8.09678E-01 -1.40141E-01
    8996.107     -1.085   1.440  6.80022E-01  8.22577E-01 -1.42555E-01
    8996.552     -0.640   1.480  7.14124E-01  8.35114E-01 -1.20990E-01
    8997.010     -0.183   1.520  7.53227E-01  8.47281E-01 -9.40542E-02
    8997.479      0.287   1.560  7.75768E-01  8.59050E-01 -8.32814E-02
    8997.961      0.768   1.600  7.82033E-01  8.70410E-01 -8.83777E-02
    8998.454      1.262   1.640  7.90580E-01  8.81335E-01 -9.07551E-02
    8998.960      1.768   1.680  8.26475E-01  8.91818E-01 -6.53431E-02
    8999.479      2.286   1.720  9.01930E-01  9.01814E-01  1.15349E-04
    9000.009      2.816   1.760  1.00987E+00  9.11360E-01  9.85133E-02
    9000.551      3.359   1.800  1.14615E+00  9.20411E-01  2.25737E-01
    9001.106      3.914   1.840  1.30308E+00  9.28967E-01  3.74112E-01
    9001.673      4.481   1.880  1.45019E+00  9.37047E-01  5.13139E-01
    9002.252      5.060   1.920  1.55176E+00  9.44632E-01  6.07124E-01
    9002.844      5.651   1.960  1.59515E+00  9.51744E-01  6.43406E-01
    9003.447      6.255   2.000  1.59594E+00  9.58346E-01  6.37593E-01
    9004.063      6.870   2.040  1.56411E+00  9.64501E-01  5.99604E-01
    9004.691      7.498   2.080  1.49398E+00  9.70176E-01  5.23807E-01
    9005.331      8.138   2.120  1.39098E+00  9.75396E-01  4.15581E-01
    9005.983      8.791   2.160  1.26779E+00  9.80166E-01  2.87621E-01
    9006.647      9.455   2.200  1.14166E+00  9.84516E-01  1.57143E-01
    9007.324     10.132   2.240  1.03295E+00  9.88453E-01  4.45004E-02
    9008.013     10.821   2.280  9.55370E-01  9.92006E-01 -3.66358E-02
    9008.714     11.522   2.320  9.09571E-01  9.95161E-01 -8.55902E-02
    9009.427     12.235   2.360  8.87415E-01  9.97947E-01 -1.10532E-01
    9010.153     12.960   2.400  8.76165E-01  1.00040E+00 -1.24231E-01
    9010.890     13.698   2.440  8.66098E-01  1.00250E+00 -1.36398E-01
    9011.640     14.448   2.480  8.61011E-01  1.00432E+00 -1.43306E-01
    9012.402     15.210   2.520  8.75711E-01  1.00583E+00 -1.30116E-01
    9013.176     15.984   2.560  9.16864E-01  1.00706E+00 -9.01948E-02
    9013.963     16.770   2.600  9.70265E-01  1.00806E+00 -3.77944E-02
    9014.761     17.569   2.640  1.00898E+00  1.00882E+00  1.58186E-04
    9015.572     18.380   2.680  1.02404E+00  1.00935E+00  1.46920E-02
    9016.395     19.202   2.720  1.03106E+00  1.00969E+00  2.13753E-02
    9017.230     20.038   2.760  1.03867E+00  1.00984E+00  2.88313E-02
    9018.077     20.885   2.800  1.04779E+00  1.00982E+00  3.79674E-02
    9018.937     21.744   2.840  1.05544E+00  1.00965E+00  4.57908E-02
    9019.809     22.616   2.880  1.05794E+00  1.00936E+00  4.85775E-02
    9020.693     23.500   2.920  1.05287E+00  1.00893E+00  4.39403E-02
    9021.589     24.396   2.960  1.03930E+00  1.00841E+00  3.08885E-02
    9022.497     25.305   3.000  1.01774E+00  1.00778E+00  9.96250E-03
    9023.417     26.225   3.040  9.90353E-01  1.00709E+00 -1.67378E-02
    9024.350     27.158   3.080  9.60556E-01  1.00632E+00 -4.57679E-02
    9025.295     28.103   3.120  9.32218E-01  1.00551E+00 -7.32911E-02
    9026.252     29.060   3.160  9.08579E-01  1.00465E+00 -9.60708E-02
    9027.221     30.029   3.200  8.91208E-01  1.00375E+00 -1.12542E-01
    9028.203     31.010   3.240  8.80634E-01  1.00282E+00 -1.22183E-01
    9029.196     32.004   3.280  8.75863E-01  1.00187E+00 -1.26012E-01
    9030.202     33.010   3.320  8.75595E-01  1.00093E+00 -1.25333E-01
    9031.220     34.028   3.360  8.78700E-01  9.99980E-01 -1.21280E-01
    9032.251     35.058   3.400  8.84478E-01  9.99032E-01 -1.14554E-01
    9033.293     36.101   3.440  8.92584E-01  9.98090E-01 -1.05506E-01
    9034.348     37.155   3.480  9.02799E-01  9.97179E-01 -9.43792E-02
    9035.414     38.222   3.520  9.14517E-01  9.96299E-01 -8.17819E-02
    9036.493     39.301   3.560  9.26564E-01  9.95433E-01 -6.88690E-02
    9037.584     40.392   3.600  9.37835E-01  9.94624E-01 -5.67889E-02
    9038.688     41.495   3.640  9.47302E-01  9.93834E-01 -4.65321E-02
    9039.803     42.611   3.680  9.54379E-01  9.93083E-01 -3.87044E-02
    9040.931     43.739   3.720  9.59191E-01  9.92395E-01 -3.32035E-02
    9042.071     44.879   3.760  9.62472E-01  9.91748E-01 -2.92768E-02
    9043.223     46.031   3.800  9.65241E-01  9.91126E-01 -2.58846E-02
    9044.388     47.195   3.840  9.68554E-01  9.90589E-01 -2.20349E-02
    9045.564     48.372   3.880  9.73149E-01  9.90076E-01 -1.69270E-02
    9046.753     49.560   3.920  9.79744E-01  9.89631E-01 -9.88644E-03
    9047.954     50.761   3.960  9.88789E-01  9.89232E-01 -4.42955E-04
    9049.167     51.974   4.000  1.00036E+00  9.88900E-01  1.14574E-02
    9050.392     53.200   4.040  1.01390E+00  9.88615E-01  2.52857E-02
    9051.630     54.437   4.080  1.02836E+00  9.88376E-01  3.99847E-02
    9052.879     55.687   4.120  1.04247E+00  9.88203E-01  5.42650E-02
    9054.141     56.949   4.160  1.05513E+00  9.88075E-01  6.70521E-02
    9055.415     58.223   4.200  1.06560E+00  9.87992E-01  7.76048E-02
    9056.701     59.509   4.240  1.07335E+00  9.87953E-01  8.53981E-02
    9058.000     60.807   4.280  1.07816E+00  9.87980E-01  9.01826E-02
    9059.311     62.118   4.320  1.08003E+00  9.88050E-01  9.19806E-02
    9060.633     63.441   4.360  1.07924E+00  9.88161E-01  9.10804E-02
    9061.968     64.776   4.400  1.07630E+00  9.88313E-01  8.79857E-02
    9063.316     66.123   4.440  1.07190E+00  9.88505E-01  8.33903E-02
    9064.675     67.483   4.480  1.06679E+00  9.88736E-01  7.80584E-02
    9066.047     68.854   4.520  1.06165E+00  9.89005E-01  7.26460E-02
    9067.430     70.238   4.560  1.05682E+00  9.89311E-01  6.75050E-02
    9068.826     71.634   4.600  1.05208E+00  9.89652E-01  6.24287E-02
    9070.235     73.042   4.640  1.04683E+00  9.90004E-01  5.68224E-02
    9071.655     74.462   4.680  1.04050E+00  9.90388E-01  5.01116E-02
    9073.087     75.895   4.720  1.03286E+00  9.90780E-01  4.20826E-02
    9074.532     77.340   4.760  1.02408E+00  9.91201E-01  3.28837E-02
    9075.989     78.797   4.800  1.01446E+00  9.91628E-01  2.28299E-02
    9077.458     80.266   4.840  1.00425E+00  9.92060E-01  1.21868E-02
    9078.940     81.747   4.880  9.93713E-01  9.92517E-01  1.19541E-03
    9080.433     83.241   4.920  9.83121E-01  9.92977E-01 -9.85594E-03
    9081.939     84.746   4.960  9.72784E-01  9.93436E-01 -2.06523E-02
    9083.457     86.264   5.000  9.63123E-01  9.93872E-01 -3.07489E-02
    9084.987     87.794   5.040  9.54741E-01  9.94328E-01 -3.95871E-02
    9086.529     89.337   5.080  9.48287E-01  9.94781E-01 -4.64932E-02
    9088.084     90.891   5.120  9.44338E-01  9.95206E-01 -5.08674E-02
    9089.650     92.458   5.160  9.43119E-01  9.95625E-01 -5.25068E-02
    9091.229     94.037   5.200  9.44206E-01  9.96037E-01 -5.18314E-02
    9092.820     95.628   5.240  9.46537E-01  9.96418E-01 -4.98815E-02
    9094.423     97.231   5.280  9.49055E-01  9.96789E-01 -4.77338E-02
    9096.039     98.846   5.320  9.51301E-01  9.97126E-01 -4.58251E-02
    9097.666    100.474   5.360  9.53789E-01  9.97428E-01 -4.36385E-02
    9099.306    102.114   5.400  9.57448E-01  9.97718E-01 -4.02700E-02
    9100.958    103.766   5.440  9.62717E-01  9.97974E-01 -3.52569E-02
    9102.622    105.430   5.480  9.69240E-01  9.98215E-01 -2.89751E-02
    9104.299    107.106   5.520  9.76069E-01  9.98397E-01 -2.23281E-02
    9105.987    108.795   5.560  9.82255E-01  9.98563E-01 -1.63076E-02
    9107.688    110.496   5.600  9.86951E-01  9.98692E-01 -1.17412E-02
    9109.401    112.209   5.640  9.89483E-01  9.98782E-01 -9.29891E-03
    9111.126    113.934   5.680  9.89473E-01  9.98830E-01 -9.35736E-03
    9112.864    115.671   5.720  9.87123E-01  9.98840E-01 -1.17166E-02
    9114.613    117.421   5.760  9.83345E-01  9.98811E-01 -1.54667E-02
    9116.375    119.183   5.800  9.79371E-01  9.98744E-01 -1.93731E-02
    9118.149    120.956   5.840  9.76204E-01  9.98661E-01 -2.24576E-02
    9119.935    122.743   5.880  9.74163E-01  9.98518E-01 -2.43547E-02
    9121.733    124.541   5.920  9.73173E-01  9.98336E-01 -2.51627E-02
    9123.544    126.351   5.960  9.73091E-01  9.98139E-01 -2.50485E-02
    9125.367    128.174   6.000  9.73822E-01  9.97853E-01 -2.40315E-02
