# # comment:                                                     FEFF 9.9.1  
# # Source:
# # Structure
# # Reduced
# # space
# # abc:
# # angles:
# # sites:
# # POT  SCF 100  7.0000   0, screened core-hole, AFOLP (folp(0)= 1.150)
# # Abs   Z=29 Rmt= 1.212 Rnm= 1.292 K  shell
# # Pot 1 Z=56 Rmt= 1.923 Rnm= 1.980
# # Pot 2 Z=71 Rmt= 1.584 Rnm= 1.655
# # Pot 3 Z=29 Rmt= 1.212 Rnm= 1.292
# # Pot 4 Z= 8 Rmt= 1.046 Rnm= 1.101
# # Gam_ch=1.729E+00 H-L exch Vi= 0.000E+00 Vr= 0.000E+00
# # Mu=-7.942E+00eV kf=2.036E+00 Vint=-1.722E+01eV Rs_int= 1.782
# FMS rfms= 9.0000
# # PATH  Rmax=-1.000,  Keep_limit= 0.00, Heap_limit 0.00  Pwcrit= 2.50%
#  S02=0.950  Temp=   0.00  Debye_temp=   0.00  Global_sig2= 0.00000
#  Energy zero shift, vr, vi    0.00000E+00   0.00000E+00
#  Curved wave amplitude ratio filter   4.000%
#     file         sig2 tot  cw amp ratio   deg  nlegs   reff  inp sig2
#     0/   0 paths used
#  xsedge+ 50, used to normalize mu           2.4379E-04
#  -----------------------------------------------------------------------
#  omega    e    k    mu    mu0     chi     @#
    8984.811    -11.752  -1.000  4.12027E-02  5.95520E-02 -1.83493E-02
    8985.109    -11.454  -0.960  4.34125E-02  6.40287E-02 -2.06162E-02
    8985.396    -11.167  -0.920  4.57948E-02  6.90148E-02 -2.32200E-02
    8985.670    -10.893  -0.880  4.83690E-02  7.45862E-02 -2.62172E-02
    8985.932    -10.631  -0.840  5.11569E-02  8.08312E-02 -2.96744E-02
    8986.182    -10.381  -0.800  5.41833E-02  8.78525E-02 -3.36692E-02
    8986.420    -10.143  -0.760  5.74759E-02  9.57677E-02 -3.82918E-02
    8986.646     -9.917  -0.720  6.10654E-02  1.04710E-01 -4.36446E-02
    8986.859     -9.704  -0.680  6.49844E-02  1.14826E-01 -4.98417E-02
    8987.060     -9.503  -0.640  6.92661E-02  1.26271E-01 -5.70050E-02
    8987.249     -9.314  -0.600  7.39411E-02  1.39198E-01 -6.52564E-02
    8987.426     -9.137  -0.560  7.90325E-02  1.53736E-01 -7.47036E-02
    8987.590     -8.973  -0.520  8.45469E-02  1.69965E-01 -8.54179E-02
    8987.743     -8.820  -0.480  9.04643E-02  1.87868E-01 -9.74037E-02
    8987.883     -8.680  -0.440  9.67255E-02  2.07288E-01 -1.10563E-01
    8988.011     -8.552  -0.400  1.03223E-01  2.27885E-01 -1.24662E-01
    8988.127     -8.436  -0.360  1.09798E-01  2.49123E-01 -1.39325E-01
    8988.231     -8.333  -0.320  1.16255E-01  2.70305E-01 -1.54050E-01
    8988.322     -8.241  -0.280  1.22387E-01  2.90660E-01 -1.68272E-01
    8988.401     -8.162  -0.240  1.28001E-01  3.09445E-01 -1.81444E-01
    8988.468     -8.095  -0.200  1.32940E-01  3.26041E-01 -1.93100E-01
    8988.523     -8.040  -0.160  1.37091E-01  3.39995E-01 -2.02904E-01
    8988.566     -7.997  -0.120  1.40377E-01  3.51022E-01 -2.10644E-01
    8988.596     -7.967  -0.080  1.42749E-01  3.58962E-01 -2.16213E-01
    8988.621     -7.942   0.000  1.44652E-01  3.65340E-01 -2.20688E-01
    8988.676     -7.888   0.120  1.49128E-01  3.79718E-01 -2.30591E-01
    8988.718     -7.845   0.160  1.52612E-01  3.90878E-01 -2.38266E-01
    8988.773     -7.790   0.200  1.57109E-01  4.05112E-01 -2.48002E-01
    8988.840     -7.723   0.240  1.62638E-01  4.22217E-01 -2.59579E-01
    8988.919     -7.644   0.280  1.69267E-01  4.41838E-01 -2.72570E-01
    8989.011     -7.552   0.320  1.77001E-01  4.63414E-01 -2.86413E-01
    8989.114     -7.449   0.360  1.86017E-01  4.86346E-01 -3.00329E-01
    8989.230     -7.333   0.400  1.96495E-01  5.09888E-01 -3.13394E-01
    8989.358     -7.205   0.440  2.08740E-01  5.33439E-01 -3.24700E-01
    8989.499     -7.065   0.480  2.23091E-01  5.56517E-01 -3.33426E-01
    8989.651     -6.912   0.520  2.39685E-01  5.78750E-01 -3.39066E-01
    8989.816     -6.748   0.560  2.58403E-01  6.00018E-01 -3.41614E-01
    8989.992     -6.571   0.600  2.78522E-01  6.20281E-01 -3.41759E-01
    8990.181     -6.382   0.640  2.98845E-01  6.39565E-01 -3.40721E-01
    8990.382     -6.181   0.680  3.18413E-01  6.57980E-01 -3.39566E-01
    8990.596     -5.967   0.720  3.37225E-01  6.75650E-01 -3.38425E-01
    8990.821     -5.742   0.760  3.55937E-01  6.92620E-01 -3.36682E-01
    8991.059     -5.504   0.800  3.75498E-01  7.09042E-01 -3.33544E-01
    8991.309     -5.254   0.840  3.96655E-01  7.24956E-01 -3.28301E-01
    8991.571     -4.992   0.880  4.19448E-01  7.40424E-01 -3.20976E-01
    8991.845     -4.718   0.920  4.41369E-01  7.55513E-01 -3.14144E-01
    8992.132     -4.431   0.960  4.57189E-01  7.70234E-01 -3.13046E-01
    8992.431     -4.132   1.000  4.63705E-01  7.84589E-01 -3.20885E-01
    8992.742     -3.822   1.040  4.63525E-01  7.98610E-01 -3.35085E-01
    8993.065     -3.498   1.080  4.62832E-01  8.12299E-01 -3.49467E-01
    8993.400     -3.163   1.120  4.67711E-01  8.25613E-01 -3.57902E-01
    8993.747     -2.816   1.160  4.80917E-01  8.38580E-01 -3.57663E-01
    8994.107     -2.456   1.200  5.00025E-01  8.51189E-01 -3.51163E-01
    8994.479     -2.084   1.240  5.19895E-01  8.63380E-01 -3.43486E-01
    8994.863     -1.700   1.280  5.38695E-01  8.75156E-01 -3.36462E-01
    8995.259     -1.304   1.320  5.59987E-01  8.86516E-01 -3.26530E-01
    8995.668     -0.895   1.360  5.90707E-01  8.97439E-01 -3.06732E-01
    8996.088     -0.475   1.400  6.37150E-01  9.07882E-01 -2.70732E-01
    8996.521     -0.042   1.440  7.02093E-01  9.17864E-01 -2.15770E-01
    8996.966      0.403   1.480  7.87313E-01  9.27362E-01 -1.40049E-01
    8997.423      0.860   1.520  8.99570E-01  9.36356E-01 -3.67856E-02
    8997.893      1.330   1.560  1.04857E+00  9.44825E-01  1.03749E-01
    8998.374      1.811   1.600  1.23585E+00  9.52811E-01  2.83040E-01
    8998.868      2.305   1.640  1.41159E+00  9.60275E-01  4.51320E-01
    8999.374      2.811   1.680  1.50250E+00  9.67239E-01  5.35261E-01
    8999.892      3.329   1.720  1.54732E+00  9.73687E-01  5.73637E-01
    9000.423      3.859   1.760  1.61736E+00  9.79645E-01  6.37715E-01
    9000.965      4.402   1.800  1.66340E+00  9.85098E-01  6.78306E-01
    9001.520      4.957   1.840  1.63204E+00  9.90074E-01  6.41967E-01
    9002.087      5.524   1.880  1.55660E+00  9.94598E-01  5.62001E-01
    9002.666      6.103   1.920  1.46363E+00  9.98661E-01  4.64970E-01
    9003.257      6.694   1.960  1.36905E+00  1.00227E+00  3.66775E-01
    9003.861      7.298   2.000  1.27906E+00  1.00548E+00  2.73583E-01
    9004.476      7.913   2.040  1.19709E+00  1.00827E+00  1.88822E-01
    9005.104      8.541   2.080  1.14119E+00  1.01071E+00  1.30480E-01
    9005.744      9.181   2.120  1.12446E+00  1.01277E+00  1.11695E-01
    9006.397      9.833   2.160  1.13581E+00  1.01446E+00  1.21350E-01
    9007.061     10.498   2.200  1.14376E+00  1.01588E+00  1.27884E-01
    9007.738     11.175   2.240  1.11768E+00  1.01697E+00  1.00711E-01
    9008.427     11.863   2.280  1.05627E+00  1.01777E+00  3.84985E-02
    9009.128     12.564   2.320  9.88359E-01  1.01834E+00 -2.99846E-02
    9009.841     13.278   2.360  9.46535E-01  1.01867E+00 -7.21333E-02
    9010.566     14.003   2.400  9.42483E-01  1.01878E+00 -7.62951E-02
    9011.304     14.741   2.440  9.68607E-01  1.01868E+00 -5.00761E-02
    9012.054     15.491   2.480  1.01180E+00  1.01842E+00 -6.61274E-03
    9012.816     16.253   2.520  1.05009E+00  1.01798E+00  3.21041E-02
    9013.590     17.027   2.560  1.07613E+00  1.01742E+00  5.87125E-02
    9014.376     17.813   2.600  1.08505E+00  1.01673E+00  6.83299E-02
    9015.175     18.612   2.640  1.07777E+00  1.01594E+00  6.18313E-02
    9015.986     19.422   2.680  1.05968E+00  1.01506E+00  4.46179E-02
    9016.808     20.245   2.720  1.03764E+00  1.01408E+00  2.35540E-02
    9017.644     21.081   2.760  1.01674E+00  1.01307E+00  3.66993E-03
    9018.491     21.928   2.800  9.98748E-01  1.01200E+00 -1.32476E-02
    9019.351     22.787   2.840  9.83594E-01  1.01090E+00 -2.73046E-02
    9020.222     23.659   2.880  9.70337E-01  1.00977E+00 -3.94314E-02
    9021.106     24.543   2.920  9.57895E-01  1.00863E+00 -5.07349E-02
    9022.002     25.439   2.960  9.45312E-01  1.00749E+00 -6.21769E-02
    9022.911     26.347   3.000  9.31915E-01  1.00635E+00 -7.44326E-02
    9023.831     27.268   3.040  9.17452E-01  1.00521E+00 -8.77600E-02
    9024.764     28.201   3.080  9.02279E-01  1.00411E+00 -1.01830E-01
    9025.709     29.146   3.120  8.87873E-01  1.00304E+00 -1.15168E-01
    9026.666     30.103   3.160  8.75805E-01  1.00201E+00 -1.26207E-01
    9027.635     31.072   3.200  8.67053E-01  1.00105E+00 -1.33993E-01
    9028.616     32.053   3.240  8.61780E-01  1.00010E+00 -1.38324E-01
    9029.610     33.047   3.280  8.59562E-01  9.99227E-01 -1.39664E-01
    9030.616     34.053   3.320  8.59785E-01  9.98397E-01 -1.38613E-01
    9031.634     35.071   3.360  8.62146E-01  9.97639E-01 -1.35493E-01
    9032.664     36.101   3.400  8.66882E-01  9.96932E-01 -1.30050E-01
    9033.707     37.143   3.440  8.74285E-01  9.96299E-01 -1.22014E-01
    9034.761     38.198   3.480  8.84810E-01  9.95741E-01 -1.10931E-01
    9035.828     39.265   3.520  8.98723E-01  9.95238E-01 -9.65146E-02
    9036.907     40.344   3.560  9.16005E-01  9.94833E-01 -7.88280E-02
    9037.998     41.435   3.600  9.36360E-01  9.94483E-01 -5.81233E-02
    9039.101     42.538   3.640  9.59331E-01  9.94211E-01 -3.48797E-02
    9040.217     43.654   3.680  9.83817E-01  9.94016E-01 -1.01987E-02
    9041.345     44.782   3.720  1.00798E+00  9.93897E-01  1.40833E-02
    9042.485     45.922   3.760  1.02972E+00  9.93832E-01  3.58834E-02
    9043.637     47.074   3.800  1.04712E+00  9.93843E-01  5.32735E-02
    9044.801     48.238   3.840  1.05876E+00  9.93930E-01  6.48336E-02
    9045.978     49.415   3.880  1.06432E+00  9.94092E-01  7.02314E-02
    9047.166     50.603   3.920  1.06443E+00  9.94304E-01  7.01216E-02
    9048.367     51.804   3.960  1.06044E+00  9.94588E-01  6.58491E-02
    9049.580     53.017   4.000  1.05403E+00  9.94921E-01  5.91123E-02
    9050.806     54.243   4.040  1.04681E+00  9.95300E-01  5.15112E-02
    9052.043     55.480   4.080  1.04006E+00  9.95748E-01  4.43130E-02
    9053.293     56.730   4.120  1.03459E+00  9.96264E-01  3.83249E-02
    9054.555     57.992   4.160  1.03083E+00  9.96802E-01  3.40284E-02
    9055.829     59.266   4.200  1.02885E+00  9.97380E-01  3.14724E-02
    9057.115     60.552   4.240  1.02828E+00  9.98019E-01  3.02580E-02
    9058.414     61.850   4.280  1.02832E+00  9.98675E-01  2.96422E-02
    9059.724     63.161   4.320  1.02836E+00  9.99367E-01  2.89889E-02
    9061.047     64.484   4.360  1.02838E+00  1.00010E+00  2.82808E-02
    9062.382     65.819   4.400  1.02892E+00  1.00085E+00  2.80621E-02
    9063.729     67.166   4.440  1.03057E+00  1.00162E+00  2.89482E-02
    9065.089     68.526   4.480  1.03349E+00  1.00239E+00  3.10975E-02
    9066.460     69.897   4.520  1.03763E+00  1.00317E+00  3.44583E-02
    9067.844     71.281   4.560  1.04307E+00  1.00397E+00  3.91013E-02
    9069.240     72.677   4.600  1.04988E+00  1.00477E+00  4.51090E-02
    9070.648     74.085   4.640  1.05772E+00  1.00557E+00  5.21456E-02
    9072.069     75.505   4.680  1.06540E+00  1.00634E+00  5.90553E-02
    9073.501     76.938   4.720  1.07109E+00  1.00711E+00  6.39865E-02
    9074.946     78.383   4.760  1.07302E+00  1.00787E+00  6.51467E-02
    9076.403     79.840   4.800  1.07028E+00  1.00862E+00  6.16592E-02
    9077.872     81.309   4.840  1.06318E+00  1.00934E+00  5.38383E-02
    9079.353     82.790   4.880  1.05288E+00  1.01002E+00  4.28580E-02
    9080.847     84.284   4.920  1.04092E+00  1.01069E+00  3.02318E-02
    9082.352     85.789   4.960  1.02867E+00  1.01129E+00  1.73829E-02
    9083.870     87.307   5.000  1.01721E+00  1.01188E+00  5.33273E-03
    9085.400     88.837   5.040  1.00695E+00  1.01243E+00 -5.47767E-03
    9086.943     90.380   5.080  9.97894E-01  1.01294E+00 -1.50423E-02
    9088.497     91.934   5.120  9.89920E-01  1.01340E+00 -2.34784E-02
    9090.064     93.501   5.160  9.82956E-01  1.01379E+00 -3.08389E-02
    9091.643     95.080   5.200  9.77180E-01  1.01417E+00 -3.69880E-02
    9093.234     96.671   5.240  9.72727E-01  1.01447E+00 -4.17464E-02
    9094.837     98.274   5.280  9.69603E-01  1.01473E+00 -4.51298E-02
    9096.452     99.889   5.320  9.67365E-01  1.01494E+00 -4.75794E-02
    9098.080    101.517   5.360  9.65300E-01  1.01509E+00 -4.97865E-02
    9099.720    103.157   5.400  9.63029E-01  1.01518E+00 -5.21514E-02
    9101.372    104.809   5.440  9.60791E-01  1.01523E+00 -5.44360E-02
    9103.036    106.473   5.480  9.59263E-01  1.01520E+00 -5.59409E-02
    9104.712    108.149   5.520  9.59235E-01  1.01513E+00 -5.58979E-02
    9106.401    109.838   5.560  9.61185E-01  1.01502E+00 -5.38301E-02
    9108.102    111.539   5.600  9.65163E-01  1.01483E+00 -4.96666E-02
    9109.815    113.252   5.640  9.70829E-01  1.01462E+00 -4.37908E-02
    9111.540    114.977   5.680  9.77507E-01  1.01432E+00 -3.68134E-02
    9113.277    116.714   5.720  9.84244E-01  1.01400E+00 -2.97558E-02
    9115.027    118.464   5.760  9.89923E-01  1.01364E+00 -2.37139E-02
    9116.789    120.225   5.800  9.93697E-01  1.01321E+00 -1.95130E-02
    9118.563    121.999   5.840  9.95221E-01  1.01277E+00 -1.75449E-02
    9120.349    123.786   5.880  9.94496E-01  1.01226E+00 -1.77640E-02
    9122.147    125.584   5.920  9.92116E-01  1.01172E+00 -1.96040E-02
    9123.957    127.394   5.960  9.89554E-01  1.01117E+00 -2.16206E-02
    9125.780    129.217   6.000  9.88668E-01  1.01057E+00 -2.18984E-02
