# # comment:                                                     FEFF 9.9.1  
# # Source:
# # Structure
# # Reduced
# # space
# # abc:
# # angles:111.439692
# # sites:
# # POT  SCF 100  7.0000   0, screened core-hole, AFOLP (folp(0)= 1.150)
# # Abs   Z=29 Rmt= 1.179 Rnm= 1.278 K  shell
# # Pot 1 Z=29 Rmt= 1.203 Rnm= 1.290
# # Pot 2 Z=15 Rmt= 0.941 Rnm= 1.158
# # Pot 3 Z= 8 Rmt= 0.894 Rnm= 1.045
# # Gam_ch=1.729E+00 H-L exch Vi= 0.000E+00 Vr= 0.000E+00
# # Mu=-6.627E+00eV kf=2.481E+00 Vint=-1.725E+01eV Rs_int= 1.462
# FMS rfms= 9.0000
# # PATH  Rmax=-1.000,  Keep_limit= 0.00, Heap_limit 0.00  Pwcrit= 2.50%
#  S02=0.950  Temp=   0.00  Debye_temp=   0.00  Global_sig2= 0.00000
#  Energy zero shift, vr, vi    0.00000E+00   0.00000E+00
#  Curved wave amplitude ratio filter   4.000%
#     file         sig2 tot  cw amp ratio   deg  nlegs   reff  inp sig2
#     0/   0 paths used
#  xsedge+ 50, used to normalize mu           2.4831E-04
#  -----------------------------------------------------------------------
#  omega    e    k    mu    mu0     chi     @#
    8983.341    -10.437  -1.000  4.29404E-02  5.27508E-02 -9.81034E-03
    8983.640    -10.139  -0.960  4.59590E-02  5.66028E-02 -1.06438E-02
    8983.927     -9.852  -0.920  4.93468E-02  6.08877E-02 -1.15409E-02
    8984.201     -9.578  -0.880  5.31685E-02  6.56697E-02 -1.25011E-02
    8984.463     -9.316  -0.840  5.75017E-02  7.10237E-02 -1.35220E-02
    8984.713     -9.066  -0.800  6.24392E-02  7.70368E-02 -1.45976E-02
    8984.951     -8.828  -0.760  6.80910E-02  8.38087E-02 -1.57178E-02
    8985.176     -8.603  -0.720  7.45853E-02  9.14526E-02 -1.68673E-02
    8985.390     -8.389  -0.680  8.20682E-02  1.00093E-01 -1.80248E-02
    8985.591     -8.188  -0.640  9.06986E-02  1.09862E-01 -1.91629E-02
    8985.780     -7.999  -0.600  1.00638E-01  1.20888E-01 -2.02499E-02
    8985.956     -7.822  -0.560  1.12029E-01  1.33282E-01 -2.12537E-02
    8986.121     -7.658  -0.520  1.24961E-01  1.47112E-01 -2.21508E-02
    8986.273     -7.505  -0.480  1.39424E-01  1.62362E-01 -2.29379E-02
    8986.414     -7.365  -0.440  1.55253E-01  1.78900E-01 -2.36467E-02
    8986.542     -7.237  -0.400  1.72080E-01  1.96434E-01 -2.43544E-02
    8986.658     -7.121  -0.360  1.89330E-01  2.14510E-01 -2.51800E-02
    8986.761     -7.018  -0.320  2.06275E-01  2.32535E-01 -2.62597E-02
    8986.853     -6.926  -0.280  2.22150E-01  2.49852E-01 -2.77016E-02
    8986.932     -6.847  -0.240  2.36294E-01  2.65830E-01 -2.95367E-02
    8986.999     -6.780  -0.200  2.48256E-01  2.79944E-01 -3.16881E-02
    8987.054     -6.725  -0.160  2.57835E-01  2.91809E-01 -3.39738E-02
    8987.096     -6.682  -0.120  2.65038E-01  3.01183E-01 -3.61445E-02
    8987.127     -6.652  -0.080  2.69986E-01  3.07932E-01 -3.79461E-02
    8987.151     -6.627   0.000  2.73717E-01  3.13352E-01 -3.96349E-02
    8987.206     -6.573   0.120  2.81293E-01  3.25550E-01 -4.42572E-02
    8987.249     -6.530   0.160  2.86966E-01  3.35038E-01 -4.80721E-02
    8987.304     -6.475   0.200  2.93603E-01  3.47143E-01 -5.35407E-02
    8987.371     -6.408   0.240  3.00551E-01  3.61668E-01 -6.11170E-02
    8987.450     -6.329   0.280  3.07020E-01  3.78304E-01 -7.12840E-02
    8987.541     -6.237   0.320  3.12200E-01  3.96628E-01 -8.44275E-02
    8987.645     -6.134   0.360  3.15453E-01  4.16069E-01 -1.00615E-01
    8987.761     -6.018   0.400  3.16697E-01  4.36041E-01 -1.19344E-01
    8987.889     -5.890   0.440  3.16565E-01  4.55994E-01 -1.39428E-01
    8988.029     -5.750   0.480  3.16465E-01  4.75536E-01 -1.59070E-01
    8988.182     -5.597   0.520  3.18107E-01  4.94366E-01 -1.76259E-01
    8988.346     -5.433   0.560  3.23118E-01  5.12366E-01 -1.89249E-01
    8988.523     -5.256   0.600  3.32421E-01  5.29547E-01 -1.97126E-01
    8988.712     -5.067   0.640  3.45595E-01  5.45908E-01 -2.00314E-01
    8988.913     -4.866   0.680  3.60858E-01  5.61592E-01 -2.00734E-01
    8989.126     -4.652   0.720  3.75373E-01  5.76671E-01 -2.01298E-01
    8989.352     -4.427   0.760  3.86554E-01  5.91258E-01 -2.04704E-01
    8989.590     -4.189   0.800  3.93410E-01  6.05459E-01 -2.12049E-01
    8989.840     -3.939   0.840  3.97072E-01  6.19304E-01 -2.22232E-01
    8990.102     -3.677   0.880  4.00322E-01  6.32913E-01 -2.32591E-01
    8990.376     -3.403   0.920  4.05978E-01  6.46308E-01 -2.40330E-01
    8990.663     -3.116   0.960  4.15375E-01  6.59524E-01 -2.44149E-01
    8990.961     -2.817   1.000  4.26296E-01  6.72602E-01 -2.46306E-01
    8991.272     -2.507   1.040  4.33032E-01  6.85554E-01 -2.52522E-01
    8991.595     -2.183   1.080  4.32167E-01  6.98386E-01 -2.66219E-01
    8991.931     -1.848   1.120  4.26107E-01  7.11095E-01 -2.84988E-01
    8992.278     -1.501   1.160  4.16747E-01  7.23696E-01 -3.06950E-01
    8992.638     -1.141   1.200  4.03672E-01  7.36156E-01 -3.32485E-01
    8993.010     -0.769   1.240  3.90920E-01  7.48501E-01 -3.57581E-01
    8993.394     -0.385   1.280  3.85014E-01  7.60690E-01 -3.75676E-01
    8993.790      0.011   1.320  3.87985E-01  7.72705E-01 -3.84720E-01
    8994.198      0.419   1.360  3.97836E-01  7.84546E-01 -3.86710E-01
    8994.619      0.840   1.400  4.13086E-01  7.96186E-01 -3.83100E-01
    8995.052      1.273   1.440  4.33698E-01  8.07601E-01 -3.73903E-01
    8995.497      1.718   1.480  4.60316E-01  8.18786E-01 -3.58469E-01
    8995.954      2.175   1.520  4.95667E-01  8.29695E-01 -3.34027E-01
    8996.423      2.645   1.560  5.44985E-01  8.40343E-01 -2.95357E-01
    8996.905      3.126   1.600  6.12134E-01  8.50703E-01 -2.38569E-01
    8997.399      3.620   1.640  6.93403E-01  8.60752E-01 -1.67349E-01
    8997.905      4.126   1.680  7.78468E-01  8.70483E-01 -9.20151E-02
    8998.423      4.644   1.720  8.62785E-01  8.79891E-01 -1.71061E-02
    8998.953      5.174   1.760  9.43841E-01  8.88932E-01  5.49095E-02
    8999.496      5.717   1.800  1.01511E+00  8.97642E-01  1.17466E-01
    9000.050      6.272   1.840  1.07912E+00  9.05979E-01  1.73140E-01
    9000.617      6.839   1.880  1.14359E+00  9.13939E-01  2.29650E-01
    9001.196      7.418   1.920  1.20517E+00  9.21522E-01  2.83652E-01
    9001.788      8.009   1.960  1.24987E+00  9.28747E-01  3.21123E-01
    9002.391      8.612   2.000  1.26609E+00  9.35573E-01  3.30514E-01
    9003.007      9.228   2.040  1.25864E+00  9.42023E-01  3.16614E-01
    9003.635      9.856   2.080  1.24085E+00  9.48096E-01  2.92751E-01
    9004.275     10.496   2.120  1.22306E+00  9.53816E-01  2.69241E-01
    9004.927     11.148   2.160  1.21267E+00  9.59144E-01  2.53527E-01
    9005.592     11.813   2.200  1.21291E+00  9.64104E-01  2.48805E-01
    9006.268     12.490   2.240  1.22157E+00  9.68720E-01  2.52846E-01
    9006.957     13.178   2.280  1.23402E+00  9.72996E-01  2.61023E-01
    9007.658     13.879   2.320  1.24502E+00  9.76917E-01  2.68106E-01
    9008.371     14.593   2.360  1.25261E+00  9.80507E-01  2.72101E-01
    9009.097     15.318   2.400  1.25889E+00  9.83774E-01  2.75119E-01
    9009.834     16.056   2.440  1.26249E+00  9.86742E-01  2.75744E-01
    9010.584     16.805   2.480  1.25755E+00  9.89418E-01  2.68131E-01
    9011.346     17.567   2.520  1.24006E+00  9.91787E-01  2.48269E-01
    9012.120     18.342   2.560  1.21083E+00  9.93898E-01  2.16929E-01
    9012.907     19.128   2.600  1.17749E+00  9.95758E-01  1.81730E-01
    9013.705     19.927   2.640  1.15012E+00  9.97372E-01  1.52747E-01
    9014.516     20.737   2.680  1.13059E+00  9.98747E-01  1.31842E-01
    9015.339     21.560   2.720  1.11451E+00  9.99910E-01  1.14598E-01
    9016.174     22.395   2.760  1.09720E+00  1.00087E+00  9.63272E-02
    9017.022     23.243   2.800  1.06901E+00  1.00165E+00  6.73607E-02
    9017.881     24.102   2.840  1.02158E+00  1.00222E+00  1.93632E-02
    9018.753     24.974   2.880  9.71687E-01  1.00264E+00 -3.09527E-02
    9019.637     25.858   2.920  9.39638E-01  1.00292E+00 -6.32870E-02
    9020.533     26.754   2.960  9.22017E-01  1.00304E+00 -8.10187E-02
    9021.441     27.662   3.000  9.13151E-01  1.00304E+00 -8.98911E-02
    9022.362     28.583   3.040  9.08946E-01  1.00293E+00 -9.39805E-02
    9023.294     29.516   3.080  9.06969E-01  1.00270E+00 -9.57271E-02
    9024.239     30.460   3.120  9.06091E-01  1.00238E+00 -9.62861E-02
    9025.196     31.418   3.160  9.05666E-01  1.00197E+00 -9.63074E-02
    9026.166     32.387   3.200  9.05116E-01  1.00149E+00 -9.63767E-02
    9027.147     33.368   3.240  9.04057E-01  1.00096E+00 -9.69013E-02
    9028.141     34.362   3.280  9.02565E-01  1.00036E+00 -9.77905E-02
    9029.146     35.368   3.320  9.00673E-01  9.99727E-01 -9.90538E-02
    9030.164     36.386   3.360  8.98256E-01  9.99038E-01 -1.00781E-01
    9031.195     37.416   3.400  8.95215E-01  9.98311E-01 -1.03096E-01
    9032.237     38.458   3.440  8.91558E-01  9.97592E-01 -1.06034E-01
    9033.292     39.513   3.480  8.87513E-01  9.96824E-01 -1.09310E-01
    9034.359     40.580   3.520  8.83723E-01  9.96069E-01 -1.12346E-01
    9035.438     41.659   3.560  8.80925E-01  9.95292E-01 -1.14367E-01
    9036.529     42.750   3.600  8.79498E-01  9.94535E-01 -1.15037E-01
    9037.632     43.853   3.640  8.79782E-01  9.93781E-01 -1.13999E-01
    9038.748     44.969   3.680  8.82059E-01  9.93031E-01 -1.10972E-01
    9039.875     46.097   3.720  8.86519E-01  9.92287E-01 -1.05769E-01
    9041.015     47.237   3.760  8.93242E-01  9.91574E-01 -9.83312E-02
    9042.167     48.389   3.800  9.02199E-01  9.90893E-01 -8.86935E-02
    9043.332     49.553   3.840  9.13149E-01  9.90245E-01 -7.70961E-02
    9044.508     50.730   3.880  9.25506E-01  9.89610E-01 -6.41046E-02
    9045.697     51.918   3.920  9.38643E-01  9.89012E-01 -5.03684E-02
    9046.898     53.119   3.960  9.51847E-01  9.88450E-01 -3.66027E-02
    9048.111     54.332   4.000  9.64488E-01  9.87925E-01 -2.34368E-02
    9049.336     55.558   4.040  9.76223E-01  9.87440E-01 -1.12167E-02
    9050.574     56.795   4.080  9.87069E-01  9.86993E-01  7.61339E-05
    9051.823     58.045   4.120  9.97269E-01  9.86586E-01  1.06826E-02
    9053.085     59.307   4.160  1.00713E+00  9.86219E-01  2.09125E-02
    9054.359     60.581   4.200  1.01688E+00  9.85891E-01  3.09858E-02
    9055.646     61.867   4.240  1.02647E+00  9.85603E-01  4.08684E-02
    9056.944     63.165   4.280  1.03556E+00  9.85356E-01  5.01997E-02
    9058.255     64.476   4.320  1.04364E+00  9.85149E-01  5.84901E-02
    9059.578     65.799   4.360  1.05019E+00  9.85004E-01  6.51871E-02
    9060.913     67.134   4.400  1.05471E+00  9.84877E-01  6.98297E-02
    9062.260     68.481   4.440  1.05712E+00  9.84790E-01  7.23313E-02
    9063.619     69.840   4.480  1.05778E+00  9.84762E-01  7.30221E-02
    9064.991     71.212   4.520  1.05721E+00  9.84752E-01  7.24593E-02
    9066.375     72.596   4.560  1.05595E+00  9.84778E-01  7.11699E-02
    9067.771     73.992   4.600  1.05428E+00  9.84841E-01  6.94405E-02
    9069.179     75.400   4.640  1.05222E+00  9.84940E-01  6.72796E-02
    9070.599     76.820   4.680  1.04974E+00  9.85053E-01  6.46844E-02
    9072.032     78.253   4.720  1.04706E+00  9.85222E-01  6.18401E-02
    9073.476     79.698   4.760  1.04446E+00  9.85402E-01  5.90622E-02
    9074.933     81.155   4.800  1.04219E+00  9.85594E-01  5.66000E-02
    9076.402     82.624   4.840  1.04032E+00  9.85836E-01  5.44806E-02
    9077.884     84.105   4.880  1.03844E+00  9.86067E-01  5.23702E-02
    9079.377     85.599   4.920  1.03608E+00  9.86327E-01  4.97498E-02
    9080.883     87.104   4.960  1.03272E+00  9.86616E-01  4.61030E-02
    9082.401     88.622   5.000  1.02798E+00  9.86910E-01  4.10677E-02
    9083.931     90.152   5.040  1.02176E+00  9.87206E-01  3.45535E-02
    9085.473     91.695   5.080  1.01422E+00  9.87504E-01  2.67159E-02
    9087.028     93.249   5.120  1.00577E+00  9.87806E-01  1.79692E-02
    9088.594     94.816   5.160  9.97056E-01  9.88130E-01  8.92602E-03
    9090.173     96.395   5.200  9.88697E-01  9.88431E-01  2.65760E-04
    9091.764     97.986   5.240  9.81311E-01  9.88753E-01 -7.44210E-03
    9093.368     99.589   5.280  9.75179E-01  9.89050E-01 -1.38711E-02
    9094.983    101.204   5.320  9.70381E-01  9.89342E-01 -1.89605E-02
    9096.611    102.832   5.360  9.66716E-01  9.89628E-01 -2.29117E-02
    9098.250    104.472   5.400  9.63790E-01  9.89885E-01 -2.60950E-02
    9099.902    106.124   5.440  9.61278E-01  9.90136E-01 -2.88574E-02
    9101.567    107.788   5.480  9.59052E-01  9.90380E-01 -3.13279E-02
    9103.243    109.464   5.520  9.57187E-01  9.90594E-01 -3.34068E-02
    9104.932    111.153   5.560  9.55875E-01  9.90798E-01 -3.49225E-02
    9106.632    112.854   5.600  9.55230E-01  9.90970E-01 -3.57409E-02
    9108.345    114.567   5.640  9.55321E-01  9.91132E-01 -3.58112E-02
    9110.071    116.292   5.680  9.56087E-01  9.91259E-01 -3.51721E-02
    9111.808    118.029   5.720  9.57325E-01  9.91352E-01 -3.40272E-02
    9113.557    119.779   5.760  9.58698E-01  9.91433E-01 -3.27350E-02
    9115.319    121.540   5.800  9.59730E-01  9.91479E-01 -3.17483E-02
    9117.093    123.314   5.840  9.60024E-01  9.91488E-01 -3.14639E-02
    9118.879    125.100   5.880  9.59381E-01  9.91461E-01 -3.20791E-02
    9120.678    126.899   5.920  9.57937E-01  9.91420E-01 -3.34826E-02
    9122.488    128.709   5.960  9.56123E-01  9.91316E-01 -3.51932E-02
    9124.311    130.532   6.000  9.54702E-01  9.91182E-01 -3.64801E-02
