# # comment:                                                     FEFF 9.9.1  
# # Source:
# # Structure
# # Reduced
# # space
# # abc:
# # angles:113.964163
# # sites:
# # POT  SCF 100  7.0000   0, screened core-hole, AFOLP (folp(0)= 1.150)
# # Abs   Z=29 Rmt= 1.269 Rnm= 1.376 K  shell
# # Pot 1 Z=58 Rmt= 1.736 Rnm= 1.818
# # Pot 2 Z=29 Rmt= 1.269 Rnm= 1.376
# # Pot 3 Z=74 Rmt= 1.258 Rnm= 1.422
# # Pot 4 Z= 8 Rmt= 0.944 Rnm= 1.070
# # Gam_ch=1.729E+00 H-L exch Vi= 0.000E+00 Vr= 0.000E+00
# # Mu=-6.002E+00eV kf=2.255E+00 Vint=-1.653E+01eV Rs_int= 1.608
# FMS rfms= 9.0000
# # PATH  Rmax=-1.000,  Keep_limit= 0.00, Heap_limit 0.00  Pwcrit= 2.50%
#  S02=0.950  Temp=   0.00  Debye_temp=   0.00  Global_sig2= 0.00000
#  Energy zero shift, vr, vi    0.00000E+00   0.00000E+00
#  Curved wave amplitude ratio filter   4.000%
#     file         sig2 tot  cw amp ratio   deg  nlegs   reff  inp sig2
#     0/   0 paths used
#  xsedge+ 50, used to normalize mu           2.4720E-04
#  -----------------------------------------------------------------------
#  omega    e    k    mu    mu0     chi     @#
    8983.611     -9.812  -1.000  5.05651E-02  5.63572E-02 -5.79217E-03
    8983.909     -9.514  -0.960  5.39423E-02  6.05444E-02 -6.60211E-03
    8984.196     -9.227  -0.920  5.76585E-02  6.52064E-02 -7.54790E-03
    8984.470     -8.953  -0.880  6.17591E-02  7.04140E-02 -8.65491E-03
    8984.732     -8.691  -0.840  6.62963E-02  7.62498E-02 -9.95347E-03
    8984.982     -8.441  -0.800  7.13299E-02  8.28095E-02 -1.14796E-02
    8985.220     -8.203  -0.760  7.69276E-02  9.02031E-02 -1.32755E-02
    8985.446     -7.977  -0.720  8.31649E-02  9.85552E-02 -1.53903E-02
    8985.659     -7.764  -0.680  9.01238E-02  1.08003E-01 -1.78792E-02
    8985.860     -7.563  -0.640  9.78895E-02  1.18692E-01 -2.08022E-02
    8986.049     -7.374  -0.600  1.06544E-01  1.30764E-01 -2.42197E-02
    8986.226     -7.197  -0.560  1.16156E-01  1.44342E-01 -2.81859E-02
    8986.390     -7.033  -0.520  1.26763E-01  1.59499E-01 -3.27363E-02
    8986.543     -6.880  -0.480  1.38349E-01  1.76221E-01 -3.78719E-02
    8986.683     -6.740  -0.440  1.50820E-01  1.94360E-01 -4.35399E-02
    8986.811     -6.612  -0.400  1.63980E-01  2.13598E-01 -4.96180E-02
    8986.927     -6.496  -0.360  1.77522E-01  2.33434E-01 -5.59115E-02
    8987.031     -6.393  -0.320  1.91046E-01  2.53216E-01 -6.21694E-02
    8987.122     -6.301  -0.280  2.04100E-01  2.72222E-01 -6.81217E-02
    8987.201     -6.222  -0.240  2.16234E-01  2.89758E-01 -7.35245E-02
    8987.268     -6.155  -0.200  2.27052E-01  3.05247E-01 -7.81952E-02
    8987.323     -6.100  -0.160  2.36241E-01  3.18267E-01 -8.20261E-02
    8987.366     -6.057  -0.120  2.43577E-01  3.28551E-01 -8.49744E-02
    8987.396     -6.027  -0.080  2.48914E-01  3.35956E-01 -8.70412E-02
    8987.421     -6.002   0.000  2.53262E-01  3.41900E-01 -8.86376E-02
    8987.476     -5.947   0.120  2.63017E-01  3.55313E-01 -9.22959E-02
    8987.518     -5.905   0.160  2.70640E-01  3.65710E-01 -9.50700E-02
    8987.573     -5.850   0.200  2.80498E-01  3.78977E-01 -9.84786E-02
    8987.640     -5.783   0.240  2.92540E-01  3.94896E-01 -1.02357E-01
    8987.719     -5.704   0.280  3.06687E-01  4.13149E-01 -1.06462E-01
    8987.811     -5.612   0.320  3.22722E-01  4.33203E-01 -1.10482E-01
    8987.914     -5.509   0.360  3.40387E-01  4.54491E-01 -1.14104E-01
    8988.030     -5.393   0.400  3.59259E-01  4.76306E-01 -1.17047E-01
    8988.158     -5.265   0.440  3.79015E-01  4.98100E-01 -1.19085E-01
    8988.299     -5.125   0.480  3.99289E-01  5.19378E-01 -1.20089E-01
    8988.451     -4.972   0.520  4.19804E-01  5.39874E-01 -1.20070E-01
    8988.615     -4.808   0.560  4.40119E-01  5.59413E-01 -1.19294E-01
    8988.792     -4.631   0.600  4.59669E-01  5.77983E-01 -1.18314E-01
    8988.981     -4.442   0.640  4.77909E-01  5.95630E-01 -1.17721E-01
    8989.182     -4.241   0.680  4.94854E-01  6.12463E-01 -1.17610E-01
    8989.396     -4.027   0.720  5.11521E-01  6.28606E-01 -1.17085E-01
    8989.621     -3.802   0.760  5.29779E-01  6.44122E-01 -1.14343E-01
    8989.859     -3.564   0.800  5.51811E-01  6.59165E-01 -1.07354E-01
    8990.109     -3.314   0.840  5.78741E-01  6.73773E-01 -9.50323E-02
    8990.371     -3.052   0.880  6.10085E-01  6.88032E-01 -7.79473E-02
    8990.645     -2.778   0.920  6.43977E-01  7.01990E-01 -5.80129E-02
    8990.932     -2.491   0.960  6.77542E-01  7.15684E-01 -3.81415E-02
    8991.231     -2.192   1.000  7.07001E-01  7.29159E-01 -2.21584E-02
    8991.542     -1.881   1.040  7.30133E-01  7.42410E-01 -1.22768E-02
    8991.865     -1.558   1.080  7.49889E-01  7.55461E-01 -5.57202E-03
    8992.200     -1.223   1.120  7.71036E-01  7.68295E-01  2.74042E-03
    8992.547     -0.876   1.160  7.92512E-01  7.80924E-01  1.15877E-02
    8992.907     -0.516   1.200  8.08181E-01  7.93338E-01  1.48429E-02
    8993.279     -0.144   1.240  8.13214E-01  8.05522E-01  7.69191E-03
    8993.663      0.240   1.280  8.05482E-01  8.17478E-01 -1.19963E-02
    8994.059      0.636   1.320  7.87132E-01  8.29146E-01 -4.20136E-02
    8994.468      1.045   1.360  7.64903E-01  8.40544E-01 -7.56402E-02
    8994.888      1.465   1.400  7.45635E-01  8.51649E-01 -1.06014E-01
    8995.321      1.898   1.440  7.35251E-01  8.62439E-01 -1.27189E-01
    8995.766      2.343   1.480  7.38434E-01  8.72909E-01 -1.34475E-01
    8996.223      2.800   1.520  7.56646E-01  8.83015E-01 -1.26368E-01
    8996.693      3.270   1.560  7.89914E-01  8.92772E-01 -1.02858E-01
    8997.174      3.751   1.600  8.38080E-01  9.02158E-01 -6.40775E-02
    8997.668      4.245   1.640  8.97867E-01  9.11148E-01 -1.32809E-02
    8998.174      4.751   1.680  9.60242E-01  9.19740E-01  4.05022E-02
    8998.692      5.269   1.720  1.01615E+00  9.27951E-01  8.82037E-02
    8999.222      5.799   1.760  1.06575E+00  9.35720E-01  1.30031E-01
    8999.765      6.342   1.800  1.11635E+00  9.43107E-01  1.73242E-01
    9000.320      6.897   1.840  1.17336E+00  9.50051E-01  2.23304E-01
    9000.887      7.464   1.880  1.23762E+00  9.56595E-01  2.81020E-01
    9001.466      8.043   1.920  1.30146E+00  9.62719E-01  3.38745E-01
    9002.057      8.634   1.960  1.34787E+00  9.68426E-01  3.79443E-01
    9002.661      9.238   2.000  1.36098E+00  9.73739E-01  3.87242E-01
    9003.276      9.853   2.040  1.33877E+00  9.78643E-01  3.60124E-01
    9003.904     10.481   2.080  1.29205E+00  9.83162E-01  3.08884E-01
    9004.544     11.121   2.120  1.23092E+00  9.87303E-01  2.43620E-01
    9005.197     11.774   2.160  1.16189E+00  9.91048E-01  1.70838E-01
    9005.861     12.438   2.200  1.09339E+00  9.94445E-01  9.89489E-02
    9006.538     13.115   2.240  1.03591E+00  9.97504E-01  3.84022E-02
    9007.227     13.803   2.280  9.97802E-01  1.00023E+00 -2.42757E-03
    9007.928     14.504   2.320  9.81123E-01  1.00263E+00 -2.15040E-02
    9008.641     15.218   2.360  9.80712E-01  1.00471E+00 -2.39947E-02
    9009.366     15.943   2.400  9.87953E-01  1.00652E+00 -1.85645E-02
    9010.104     16.681   2.440  9.95372E-01  1.00804E+00 -1.26729E-02
    9010.854     17.431   2.480  9.99270E-01  1.00932E+00 -1.00490E-02
    9011.616     18.193   2.520  9.99705E-01  1.01035E+00 -1.06406E-02
    9012.390     18.967   2.560  9.98756E-01  1.01113E+00 -1.23783E-02
    9013.176     19.753   2.600  9.96952E-01  1.01171E+00 -1.47616E-02
    9013.975     20.552   2.640  9.90981E-01  1.01211E+00 -2.11285E-02
    9014.786     21.362   2.680  9.80496E-01  1.01231E+00 -3.18139E-02
    9015.608     22.185   2.720  9.72047E-01  1.01234E+00 -4.02966E-02
    9016.444     23.021   2.760  9.66751E-01  1.01222E+00 -4.54674E-02
    9017.291     23.868   2.800  9.63419E-01  1.01196E+00 -4.85406E-02
    9018.150     24.727   2.840  9.61789E-01  1.01158E+00 -4.97872E-02
    9019.022     25.599   2.880  9.61803E-01  1.01107E+00 -4.92708E-02
    9019.906     26.483   2.920  9.63131E-01  1.01048E+00 -4.73495E-02
    9020.802     27.379   2.960  9.64833E-01  1.00980E+00 -4.49682E-02
    9021.711     28.287   3.000  9.65686E-01  1.00904E+00 -4.33578E-02
    9022.631     29.208   3.040  9.64994E-01  1.00823E+00 -4.32374E-02
    9023.564     30.141   3.080  9.62873E-01  1.00735E+00 -4.44770E-02
    9024.509     31.086   3.120  9.60045E-01  1.00643E+00 -4.63813E-02
    9025.466     32.043   3.160  9.57211E-01  1.00548E+00 -4.82729E-02
    9026.435     33.012   3.200  9.54917E-01  1.00451E+00 -4.95889E-02
    9027.416     33.993   3.240  9.53459E-01  1.00350E+00 -5.00399E-02
    9028.410     34.987   3.280  9.52773E-01  1.00251E+00 -4.97337E-02
    9029.416     35.993   3.320  9.52427E-01  1.00149E+00 -4.90653E-02
    9030.434     37.011   3.360  9.51973E-01  1.00050E+00 -4.85267E-02
    9031.464     38.041   3.400  9.51107E-01  9.99511E-01 -4.84043E-02
    9032.507     39.083   3.440  9.49895E-01  9.98530E-01 -4.86345E-02
    9033.561     40.138   3.480  9.48755E-01  9.97579E-01 -4.88242E-02
    9034.628     41.205   3.520  9.48172E-01  9.96663E-01 -4.84910E-02
    9035.707     42.284   3.560  9.48556E-01  9.95782E-01 -4.72258E-02
    9036.798     43.375   3.600  9.50223E-01  9.94917E-01 -4.46947E-02
    9037.901     44.478   3.640  9.53461E-01  9.94111E-01 -4.06493E-02
    9039.017     45.594   3.680  9.58385E-01  9.93325E-01 -3.49402E-02
    9040.145     46.722   3.720  9.65072E-01  9.92601E-01 -2.75290E-02
    9041.285     47.862   3.760  9.73581E-01  9.91921E-01 -1.83404E-02
    9042.437     49.014   3.800  9.83847E-01  9.91286E-01 -7.43910E-03
    9043.601     50.178   3.840  9.95540E-01  9.90716E-01  4.82349E-03
    9044.778     51.355   3.880  1.00797E+00  9.90192E-01  1.77796E-02
    9045.966     52.543   3.920  1.02017E+00  9.89713E-01  3.04598E-02
    9047.167     53.744   3.960  1.03098E+00  9.89302E-01  4.16802E-02
    9048.380     54.957   4.000  1.03934E+00  9.88935E-01  5.04060E-02
    9049.606     56.183   4.040  1.04464E+00  9.88613E-01  5.60218E-02
    9050.843     57.420   4.080  1.04674E+00  9.88336E-01  5.84014E-02
    9052.093     58.670   4.120  1.04606E+00  9.88128E-01  5.79311E-02
    9053.355     59.932   4.160  1.04332E+00  9.87987E-01  5.53306E-02
    9054.629     61.206   4.200  1.03923E+00  9.87869E-01  5.13657E-02
    9055.915     62.492   4.240  1.03451E+00  9.87816E-01  4.66990E-02
    9057.213     63.790   4.280  1.02966E+00  9.87806E-01  4.18575E-02
    9058.524     65.101   4.320  1.02511E+00  9.87838E-01  3.72669E-02
    9059.847     66.424   4.360  1.02112E+00  9.87912E-01  3.32098E-02
    9061.182     67.759   4.400  1.01774E+00  9.88048E-01  2.96966E-02
    9062.529     69.106   4.440  1.01467E+00  9.88201E-01  2.64677E-02
    9063.889     70.466   4.480  1.01143E+00  9.88392E-01  2.30376E-02
    9065.260     71.837   4.520  1.00758E+00  9.88621E-01  1.89615E-02
    9066.644     73.221   4.560  1.00296E+00  9.88886E-01  1.40781E-02
    9068.040     74.617   4.600  9.97750E-01  9.89186E-01  8.56476E-03
    9069.448     76.025   4.640  9.92358E-01  9.89497E-01  2.86113E-03
    9070.868     77.445   4.680  9.87387E-01  9.89839E-01 -2.45205E-03
    9072.301     78.878   4.720  9.83412E-01  9.90191E-01 -6.77934E-03
    9073.746     80.323   4.760  9.80960E-01  9.90574E-01 -9.61461E-03
    9075.203     81.780   4.800  9.80323E-01  9.90985E-01 -1.06612E-02
    9076.672     83.249   4.840  9.81422E-01  9.91378E-01 -9.95618E-03
    9078.153     84.730   4.880  9.83928E-01  9.91796E-01 -7.86737E-03
    9079.647     86.224   4.920  9.87247E-01  9.92216E-01 -4.96907E-03
    9081.152     87.729   4.960  9.90766E-01  9.92637E-01 -1.87114E-03
    9082.670     89.247   5.000  9.93983E-01  9.93056E-01  9.26966E-04
    9084.200     90.777   5.040  9.96539E-01  9.93473E-01  3.06502E-03
    9085.743     92.320   5.080  9.98155E-01  9.93887E-01  4.26789E-03
    9087.297     93.874   5.120  9.98585E-01  9.94272E-01  4.31377E-03
    9088.864     95.441   5.160  9.97676E-01  9.94651E-01  3.02504E-03
    9090.443     97.020   5.200  9.95379E-01  9.95024E-01  3.55261E-04
    9092.034     98.611   5.240  9.91860E-01  9.95388E-01 -3.52839E-03
    9093.637    100.214   5.280  9.87446E-01  9.95698E-01 -8.25221E-03
    9095.252    101.829   5.320  9.82659E-01  9.96019E-01 -1.33597E-02
    9096.880    103.457   5.360  9.77845E-01  9.96286E-01 -1.84406E-02
    9098.520    105.097   5.400  9.73386E-01  9.96561E-01 -2.31747E-02
    9100.172    106.749   5.440  9.69457E-01  9.96778E-01 -2.73213E-02
    9101.836    108.413   5.480  9.66287E-01  9.96957E-01 -3.06694E-02
    9103.512    110.089   5.520  9.64127E-01  9.97122E-01 -3.29949E-02
    9105.201    111.778   5.560  9.63207E-01  9.97252E-01 -3.40450E-02
    9106.902    113.479   5.600  9.63754E-01  9.97345E-01 -3.35913E-02
    9108.615    115.192   5.640  9.65866E-01  9.97420E-01 -3.15545E-02
    9110.340    116.917   5.680  9.69342E-01  9.97434E-01 -2.80918E-02
    9112.077    118.654   5.720  9.73809E-01  9.97409E-01 -2.35997E-02
    9113.827    120.404   5.760  9.78774E-01  9.97368E-01 -1.85940E-02
    9115.589    122.166   5.800  9.83700E-01  9.97267E-01 -1.35664E-02
    9117.362    123.939   5.840  9.88264E-01  9.97149E-01 -8.88539E-03
    9119.149    125.726   5.880  9.92228E-01  9.96994E-01 -4.76602E-03
    9120.947    127.524   5.920  9.95558E-01  9.96777E-01 -1.21908E-03
    9122.757    129.334   5.960  9.98509E-01  9.96545E-01  1.96334E-03
    9124.580    131.157   6.000  1.00143E+00  9.96253E-01  5.17790E-03
