# # comment:                                                     FEFF 9.9.1  
# # Source:
# # Structure
# # Reduced
# # space
# # abc:
# # angles:
# # sites:
# # POT  SCF 100  7.0000   0, screened core-hole, AFOLP (folp(0)= 1.150)
# # Abs   Z=29 Rmt= 1.172 Rnm= 1.271 K  shell
# # Pot 1 Z=56 Rmt= 1.973 Rnm= 2.024
# # Pot 2 Z=39 Rmt= 1.625 Rnm= 1.696
# # Pot 3 Z=29 Rmt= 1.203 Rnm= 1.290
# # Pot 4 Z= 8 Rmt= 1.056 Rnm= 1.114
# # Gam_ch=1.729E+00 H-L exch Vi= 0.000E+00 Vr= 0.000E+00
# # Mu=-8.029E+00eV kf=1.986E+00 Vint=-1.739E+01eV Rs_int= 1.826
# FMS rfms= 9.0000
# # PATH  Rmax=-1.000,  Keep_limit= 0.00, Heap_limit 0.00  Pwcrit= 2.50%
#  S02=0.950  Temp=   0.00  Debye_temp=   0.00  Global_sig2= 0.00000
#  Energy zero shift, vr, vi    0.00000E+00   0.00000E+00
#  Curved wave amplitude ratio filter   4.000%
#     file         sig2 tot  cw amp ratio   deg  nlegs   reff  inp sig2
#     0/   0 paths used
#  xsedge+ 50, used to normalize mu           2.4312E-04
#  -----------------------------------------------------------------------
#  omega    e    k    mu    mu0     chi     @#
    8985.080    -11.839  -1.000  4.36800E-02  5.94491E-02 -1.57691E-02
    8985.379    -11.541  -0.960  4.63216E-02  6.39003E-02 -1.75787E-02
    8985.665    -11.254  -0.920  4.92178E-02  6.88563E-02 -1.96385E-02
    8985.940    -10.980  -0.880  5.24045E-02  7.43923E-02 -2.19878E-02
    8986.202    -10.718  -0.840  5.59232E-02  8.05956E-02 -2.46724E-02
    8986.452    -10.468  -0.800  5.98222E-02  8.75676E-02 -2.77454E-02
    8986.689    -10.230  -0.760  6.41569E-02  9.54248E-02 -3.12679E-02
    8986.915    -10.004  -0.720  6.89900E-02  1.04299E-01 -3.53087E-02
    8987.128     -9.791  -0.680  7.43906E-02  1.14335E-01 -3.99439E-02
    8987.330     -9.590  -0.640  8.04316E-02  1.25685E-01 -4.52539E-02
    8987.519     -9.401  -0.600  8.71845E-02  1.38502E-01 -5.13178E-02
    8987.695     -9.224  -0.560  9.47098E-02  1.52914E-01 -5.82041E-02
    8987.860     -9.060  -0.520  1.03042E-01  1.68998E-01 -6.59552E-02
    8988.012     -8.907  -0.480  1.12171E-01  1.86737E-01 -7.45664E-02
    8988.152     -8.767  -0.440  1.22015E-01  2.05977E-01 -8.39621E-02
    8988.281     -8.639  -0.400  1.32405E-01  2.26381E-01 -9.39753E-02
    8988.396     -8.523  -0.360  1.43076E-01  2.47417E-01 -1.04341E-01
    8988.500     -8.420  -0.320  1.53684E-01  2.68398E-01 -1.14714E-01
    8988.591     -8.328  -0.280  1.63850E-01  2.88559E-01 -1.24709E-01
    8988.671     -8.249  -0.240  1.73210E-01  3.07166E-01 -1.33956E-01
    8988.738     -8.182  -0.200  1.81464E-01  3.23605E-01 -1.42141E-01
    8988.793     -8.127  -0.160  1.88393E-01  3.37428E-01 -1.49035E-01
    8988.835     -8.084  -0.120  1.93864E-01  3.48351E-01 -1.54487E-01
    8988.866     -8.054  -0.080  1.97804E-01  3.56217E-01 -1.58413E-01
    8988.890     -8.029   0.000  2.00973E-01  3.62535E-01 -1.61562E-01
    8988.945     -7.975   0.120  2.07974E-01  3.76776E-01 -1.68802E-01
    8988.988     -7.932   0.160  2.13399E-01  3.87832E-01 -1.74433E-01
    8989.043     -7.877   0.200  2.20302E-01  4.01935E-01 -1.81633E-01
    8989.110     -7.810   0.240  2.28582E-01  4.18907E-01 -1.90325E-01
    8989.189     -7.731   0.280  2.37995E-01  4.38333E-01 -2.00338E-01
    8989.280     -7.639   0.320  2.48356E-01  4.59766E-01 -2.11410E-01
    8989.384     -7.536   0.360  2.59305E-01  4.82509E-01 -2.23205E-01
    8989.500     -7.420   0.400  2.70581E-01  5.05890E-01 -2.35309E-01
    8989.628     -7.292   0.440  2.82009E-01  5.29293E-01 -2.47284E-01
    8989.768     -7.152   0.480  2.93614E-01  5.52244E-01 -2.58631E-01
    8989.920     -6.999   0.520  3.05488E-01  5.74397E-01 -2.68909E-01
    8990.085     -6.835   0.560  3.17822E-01  5.95612E-01 -2.77790E-01
    8990.262     -6.658   0.600  3.30742E-01  6.15852E-01 -2.85110E-01
    8990.451     -6.469   0.640  3.44306E-01  6.35161E-01 -2.90855E-01
    8990.652     -6.268   0.680  3.58752E-01  6.53649E-01 -2.94897E-01
    8990.865     -6.054   0.720  3.74852E-01  6.71399E-01 -2.96547E-01
    8991.091     -5.829   0.760  3.93933E-01  6.88514E-01 -2.94581E-01
    8991.328     -5.591   0.800  4.16964E-01  7.05106E-01 -2.88142E-01
    8991.578     -5.341   0.840  4.42360E-01  7.21233E-01 -2.78874E-01
    8991.841     -5.079   0.880  4.64300E-01  7.36936E-01 -2.72636E-01
    8992.115     -4.805   0.920  4.74708E-01  7.52300E-01 -2.77592E-01
    8992.401     -4.518   0.960  4.69873E-01  7.67318E-01 -2.97445E-01
    8992.700     -4.219   1.000  4.55150E-01  7.82031E-01 -3.26881E-01
    8993.011     -3.909   1.040  4.40229E-01  7.96427E-01 -3.56198E-01
    8993.334     -3.585   1.080  4.31463E-01  8.10509E-01 -3.79046E-01
    8993.669     -3.250   1.120  4.30192E-01  8.24272E-01 -3.94080E-01
    8994.017     -2.903   1.160  4.36502E-01  8.37704E-01 -4.01202E-01
    8994.376     -2.543   1.200  4.51531E-01  8.50789E-01 -3.99257E-01
    8994.748     -2.171   1.240  4.74943E-01  8.63489E-01 -3.88547E-01
    8995.132     -1.787   1.280  5.03175E-01  8.75807E-01 -3.72632E-01
    8995.529     -1.391   1.320  5.34008E-01  8.87715E-01 -3.53708E-01
    8995.937     -0.982   1.360  5.71902E-01  8.99193E-01 -3.27291E-01
    8996.358     -0.562   1.400  6.24144E-01  9.10218E-01 -2.86074E-01
    8996.790     -0.129   1.440  6.92304E-01  9.20762E-01 -2.28458E-01
    8997.235      0.316   1.480  7.74002E-01  9.30824E-01 -1.56821E-01
    8997.693      0.773   1.520  8.74446E-01  9.40381E-01 -6.59350E-02
    8998.162      1.243   1.560  9.96106E-01  9.49452E-01  4.66537E-02
    8998.644      1.724   1.600  1.10904E+00  9.57993E-01  1.51046E-01
    8999.137      2.218   1.640  1.15795E+00  9.66006E-01  1.91945E-01
    8999.643      2.724   1.680  1.15896E+00  9.73491E-01  1.85466E-01
    9000.162      3.242   1.720  1.20183E+00  9.80449E-01  2.21385E-01
    9000.692      3.772   1.760  1.32534E+00  9.86905E-01  3.38432E-01
    9001.234      4.315   1.800  1.48531E+00  9.92823E-01  4.92484E-01
    9001.789      4.870   1.840  1.57693E+00  9.98249E-01  5.78682E-01
    9002.356      5.437   1.880  1.54313E+00  1.00317E+00  5.39958E-01
    9002.935      6.016   1.920  1.45238E+00  1.00761E+00  4.44769E-01
    9003.527      6.607   1.960  1.37188E+00  1.01158E+00  3.60299E-01
    9004.130      7.211   2.000  1.30533E+00  1.01509E+00  2.90238E-01
    9004.746      7.826   2.040  1.25284E+00  1.01817E+00  2.34671E-01
    9005.374      8.454   2.080  1.23022E+00  1.02082E+00  2.09396E-01
    9006.014      9.094   2.120  1.23537E+00  1.02307E+00  2.12302E-01
    9006.666      9.746   2.160  1.23506E+00  1.02496E+00  2.10103E-01
    9007.330     10.411   2.200  1.19833E+00  1.02647E+00  1.71855E-01
    9008.007     11.088   2.240  1.13294E+00  1.02767E+00  1.05265E-01
    9008.696     11.776   2.280  1.06970E+00  1.02855E+00  4.11530E-02
    9009.397     12.477   2.320  1.03098E+00  1.02913E+00  1.85168E-03
    9010.110     13.191   2.360  1.02554E+00  1.02942E+00 -3.88224E-03
    9010.836     13.916   2.400  1.05462E+00  1.02949E+00  2.51322E-02
    9011.573     14.654   2.440  1.09821E+00  1.02931E+00  6.88994E-02
    9012.323     15.404   2.480  1.13287E+00  1.02895E+00  1.03922E-01
    9013.085     16.166   2.520  1.15500E+00  1.02838E+00  1.26618E-01
    9013.859     16.940   2.560  1.16430E+00  1.02764E+00  1.36655E-01
    9014.646     17.726   2.600  1.16115E+00  1.02675E+00  1.34398E-01
    9015.444     18.525   2.640  1.14776E+00  1.02572E+00  1.22036E-01
    9016.255     19.335   2.680  1.12685E+00  1.02460E+00  1.02252E-01
    9017.078     20.158   2.720  1.10153E+00  1.02336E+00  7.81674E-02
    9017.913     20.994   2.760  1.07415E+00  1.02205E+00  5.20999E-02
    9018.760     21.841   2.800  1.04635E+00  1.02067E+00  2.56788E-02
    9019.620     22.700   2.840  1.01952E+00  1.01922E+00  2.95823E-04
    9020.492     23.572   2.880  9.94588E-01  1.01775E+00 -2.31653E-02
    9021.376     24.456   2.920  9.71081E-01  1.01625E+00 -4.51649E-02
    9022.272     25.352   2.960  9.48460E-01  1.01473E+00 -6.62694E-02
    9023.180     26.260   3.000  9.27059E-01  1.01321E+00 -8.61513E-02
    9024.100     27.181   3.040  9.07896E-01  1.01169E+00 -1.03798E-01
    9025.033     28.114   3.080  8.91817E-01  1.01020E+00 -1.18388E-01
    9025.978     29.059   3.120  8.79398E-01  1.00873E+00 -1.29328E-01
    9026.935     30.016   3.160  8.70416E-01  1.00728E+00 -1.36867E-01
    9027.904     30.985   3.200  8.64105E-01  1.00588E+00 -1.41775E-01
    9028.886     31.966   3.240  8.59710E-01  1.00454E+00 -1.44832E-01
    9029.879     32.960   3.280  8.56489E-01  1.00325E+00 -1.46762E-01
    9030.885     33.966   3.320  8.54257E-01  1.00201E+00 -1.47750E-01
    9031.903     34.984   3.360  8.53567E-01  1.00083E+00 -1.47267E-01
    9032.934     36.014   3.400  8.55396E-01  9.99714E-01 -1.44319E-01
    9033.976     37.056   3.440  8.60299E-01  9.98672E-01 -1.38373E-01
    9035.031     38.111   3.480  8.68513E-01  9.97729E-01 -1.29217E-01
    9036.097     39.178   3.520  8.79958E-01  9.96845E-01 -1.16887E-01
    9037.176     40.257   3.560  8.94392E-01  9.96041E-01 -1.01649E-01
    9038.267     41.348   3.600  9.11298E-01  9.95319E-01 -8.40213E-02
    9039.371     42.451   3.640  9.29783E-01  9.94701E-01 -6.49179E-02
    9040.486     43.567   3.680  9.48590E-01  9.94145E-01 -4.55550E-02
    9041.614     44.695   3.720  9.66155E-01  9.93693E-01 -2.75377E-02
    9042.754     45.835   3.760  9.81113E-01  9.93303E-01 -1.21903E-02
    9043.906     46.987   3.800  9.92930E-01  9.93017E-01 -8.75372E-05
    9045.071     48.151   3.840  1.00174E+00  9.92816E-01  8.92809E-03
    9046.247     49.328   3.880  1.00838E+00  9.92699E-01  1.56848E-02
    9047.436     50.516   3.920  1.01389E+00  9.92687E-01  2.12037E-02
    9048.637     51.717   3.960  1.01898E+00  9.92733E-01  2.62494E-02
    9049.850     52.930   4.000  1.02411E+00  9.92860E-01  3.12528E-02
    9051.075     54.156   4.040  1.02948E+00  9.93066E-01  3.64108E-02
    9052.313     55.393   4.080  1.03498E+00  9.93350E-01  4.16329E-02
    9053.562     56.643   4.120  1.04019E+00  9.93713E-01  4.64799E-02
    9054.824     57.905   4.160  1.04446E+00  9.94131E-01  5.03315E-02
    9056.098     59.179   4.200  1.04704E+00  9.94647E-01  5.23912E-02
    9057.384     60.465   4.240  1.04724E+00  9.95213E-01  5.20267E-02
    9058.683     61.763   4.280  1.04535E+00  9.95829E-01  4.95226E-02
    9059.994     63.074   4.320  1.04279E+00  9.96513E-01  4.62775E-02
    9061.316     64.397   4.360  1.04120E+00  9.97243E-01  4.39534E-02
    9062.651     65.732   4.400  1.04161E+00  9.98017E-01  4.35943E-02
    9063.999     67.079   4.440  1.04446E+00  9.98832E-01  4.56239E-02
    9065.358     68.439   4.480  1.04978E+00  9.99688E-01  5.00894E-02
    9066.730     69.810   4.520  1.05743E+00  1.00061E+00  5.68201E-02
    9068.113     71.194   4.560  1.06674E+00  1.00154E+00  6.52081E-02
    9069.509     72.590   4.600  1.07632E+00  1.00248E+00  7.38464E-02
    9070.918     73.998   4.640  1.08412E+00  1.00345E+00  8.06683E-02
    9072.338     75.418   4.680  1.08823E+00  1.00445E+00  8.37810E-02
    9073.770     76.851   4.720  1.08777E+00  1.00546E+00  8.23074E-02
    9075.215     78.296   4.760  1.08290E+00  1.00647E+00  7.64320E-02
    9076.672     79.753   4.800  1.07439E+00  1.00748E+00  6.69106E-02
    9078.141     81.222   4.840  1.06307E+00  1.00846E+00  5.46093E-02
    9079.623     82.703   4.880  1.04995E+00  1.00946E+00  4.04872E-02
    9081.116     84.197   4.920  1.03627E+00  1.01046E+00  2.58148E-02
    9082.622     85.702   4.960  1.02341E+00  1.01143E+00  1.19870E-02
    9084.140     87.220   5.000  1.01242E+00  1.01236E+00  6.43332E-05
    9085.670     88.750   5.040  1.00377E+00  1.01328E+00 -9.50532E-03
    9087.212     90.293   5.080  9.97406E-01  1.01416E+00 -1.67509E-02
    9088.767     91.847   5.120  9.93065E-01  1.01500E+00 -2.19366E-02
    9090.333     93.414   5.160  9.90370E-01  1.01583E+00 -2.54577E-02
    9091.912     94.993   5.200  9.88797E-01  1.01659E+00 -2.77910E-02
    9093.503     96.584   5.240  9.87794E-01  1.01730E+00 -2.95101E-02
    9095.106     98.187   5.280  9.86828E-01  1.01797E+00 -3.11454E-02
    9096.722     99.802   5.320  9.85585E-01  1.01857E+00 -3.29891E-02
    9098.349    101.430   5.360  9.83722E-01  1.01915E+00 -3.54265E-02
    9099.989    103.070   5.400  9.81007E-01  1.01963E+00 -3.86220E-02
    9101.641    104.722   5.440  9.77456E-01  1.02008E+00 -4.26240E-02
    9103.305    106.386   5.480  9.73272E-01  1.02044E+00 -4.71645E-02
    9104.982    108.062   5.520  9.69255E-01  1.02076E+00 -5.15080E-02
    9106.670    109.751   5.560  9.66409E-01  1.02099E+00 -5.45826E-02
    9108.371    111.452   5.600  9.65735E-01  1.02117E+00 -5.54312E-02
    9110.084    113.165   5.640  9.67740E-01  1.02127E+00 -5.35267E-02
    9111.809    114.890   5.680  9.72011E-01  1.02132E+00 -4.93050E-02
    9113.547    116.627   5.720  9.77276E-01  1.02129E+00 -4.40131E-02
    9115.296    118.377   5.760  9.82159E-01  1.02119E+00 -3.90272E-02
    9117.058    120.138   5.800  9.85937E-01  1.02103E+00 -3.50956E-02
    9118.832    121.912   5.840  9.88782E-01  1.02081E+00 -3.20259E-02
    9120.618    123.699   5.880  9.91507E-01  1.02053E+00 -2.90270E-02
    9122.416    125.497   5.920  9.94915E-01  1.02019E+00 -2.52709E-02
    9124.227    127.307   5.960  9.99553E-01  1.01976E+00 -2.02048E-02
    9126.050    129.130   6.000  1.00572E+00  1.01923E+00 -1.35123E-02
