# # comment:                                                     FEFF 9.9.1  
# # Source:
# # Structure
# # Reduced
# # space
# # abc:
# # angles:
# # sites:
# # POT  SCF 100  7.0000   0, screened core-hole, AFOLP (folp(0)= 1.150)
# # Abs   Z=29 Rmt= 1.166 Rnm= 1.230 K  shell
# # Pot 1 Z=59 Rmt= 1.818 Rnm= 1.865
# # Pot 2 Z=29 Rmt= 1.166 Rnm= 1.230
# # Pot 3 Z= 8 Rmt= 1.059 Rnm= 1.102
# # Gam_ch=1.729E+00 H-L exch Vi= 0.000E+00 Vr= 0.000E+00
# # Mu=-7.852E+00eV kf=2.119E+00 Vint=-1.822E+01eV Rs_int= 1.712
# FMS rfms= 9.0000
# # PATH  Rmax=-1.000,  Keep_limit= 0.00, Heap_limit 0.00  Pwcrit= 2.50%
#  S02=0.950  Temp=   0.00  Debye_temp=   0.00  Global_sig2= 0.00000
#  Energy zero shift, vr, vi    0.00000E+00   0.00000E+00
#  Curved wave amplitude ratio filter   4.000%
#     file         sig2 tot  cw amp ratio   deg  nlegs   reff  inp sig2
#     0/   0 paths used
#  xsedge+ 50, used to normalize mu           2.4429E-04
#  -----------------------------------------------------------------------
#  omega    e    k    mu    mu0     chi     @#
    8984.881    -11.662  -1.000  3.08665E-02  5.87306E-02 -2.78640E-02
    8985.180    -11.363  -0.960  3.20620E-02  6.31445E-02 -3.10824E-02
    8985.467    -11.076  -0.920  3.33215E-02  6.80622E-02 -3.47407E-02
    8985.741    -10.802  -0.880  3.46526E-02  7.35592E-02 -3.89066E-02
    8986.003    -10.540  -0.840  3.60646E-02  7.97232E-02 -4.36586E-02
    8986.253    -10.290  -0.800  3.75688E-02  8.66562E-02 -4.90874E-02
    8986.491    -10.052  -0.760  3.91787E-02  9.44752E-02 -5.52965E-02
    8986.716     -9.827  -0.720  4.09102E-02  1.03313E-01 -6.24026E-02
    8986.930     -9.613  -0.680  4.27815E-02  1.13315E-01 -7.05337E-02
    8987.131     -9.412  -0.640  4.48125E-02  1.24637E-01 -7.98243E-02
    8987.320     -9.223  -0.600  4.70229E-02  1.37430E-01 -9.04070E-02
    8987.497     -9.046  -0.560  4.94288E-02  1.51825E-01 -1.02396E-01
    8987.661     -8.882  -0.520  5.20379E-02  1.67899E-01 -1.15861E-01
    8987.814     -8.729  -0.480  5.48416E-02  1.85639E-01 -1.30797E-01
    8987.954     -8.589  -0.440  5.78070E-02  2.04887E-01 -1.47080E-01
    8988.082     -8.461  -0.400  6.08704E-02  2.25305E-01 -1.64435E-01
    8988.198     -8.345  -0.360  6.39380E-02  2.46360E-01 -1.82422E-01
    8988.301     -8.242  -0.320  6.68960E-02  2.67361E-01 -2.00465E-01
    8988.393     -8.150  -0.280  6.96302E-02  2.87538E-01 -2.17908E-01
    8988.472     -8.071  -0.240  7.20466E-02  3.06155E-01 -2.34109E-01
    8988.539     -8.004  -0.200  7.40859E-02  3.22598E-01 -2.48512E-01
    8988.594     -7.949  -0.160  7.57238E-02  3.36419E-01 -2.60696E-01
    8988.637     -7.907  -0.120  7.69593E-02  3.47337E-01 -2.70377E-01
    8988.667     -7.876  -0.080  7.78028E-02  3.55196E-01 -2.77393E-01
    8988.691     -7.852   0.000  7.84082E-02  3.61506E-01 -2.83098E-01
    8988.746     -7.797   0.120  8.00878E-02  3.75734E-01 -2.95646E-01
    8988.789     -7.754   0.160  8.13395E-02  3.86771E-01 -3.05432E-01
    8988.844     -7.699   0.200  8.28772E-02  4.00841E-01 -3.17964E-01
    8988.911     -7.632   0.240  8.46251E-02  4.17734E-01 -3.33109E-01
    8988.990     -7.553   0.280  8.64813E-02  4.37088E-01 -3.50607E-01
    8989.082     -7.462   0.320  8.83231E-02  4.58357E-01 -3.70034E-01
    8989.185     -7.358   0.360  9.00571E-02  4.80893E-01 -3.90836E-01
    8989.301     -7.242   0.400  9.16069E-02  5.03988E-01 -4.12381E-01
    8989.429     -7.114   0.440  9.30331E-02  5.27034E-01 -4.34001E-01
    8989.569     -6.974   0.480  9.43835E-02  5.49505E-01 -4.55121E-01
    8989.722     -6.821   0.520  9.58067E-02  5.71113E-01 -4.75307E-01
    8989.886     -6.657   0.560  9.74285E-02  5.91676E-01 -4.94248E-01
    8990.063     -6.480   0.600  9.94331E-02  6.11178E-01 -5.11745E-01
    8990.252     -6.291   0.640  1.01896E-01  6.29647E-01 -5.27752E-01
    8990.453     -6.090   0.680  1.04936E-01  6.47219E-01 -5.42283E-01
    8990.667     -5.877   0.720  1.08524E-01  6.64003E-01 -5.55479E-01
    8990.892     -5.651   0.760  1.12482E-01  6.80088E-01 -5.67606E-01
    8991.130     -5.413   0.800  1.16669E-01  6.95595E-01 -5.78926E-01
    8991.380     -5.163   0.840  1.20969E-01  7.10608E-01 -5.89639E-01
    8991.642     -4.901   0.880  1.25347E-01  7.25194E-01 -5.99847E-01
    8991.916     -4.627   0.920  1.29842E-01  7.39406E-01 -6.09563E-01
    8992.203     -4.340   0.960  1.34741E-01  7.53303E-01 -6.18562E-01
    8992.501     -4.042   1.000  1.40354E-01  7.66872E-01 -6.26518E-01
    8992.812     -3.731   1.040  1.47068E-01  7.80149E-01 -6.33081E-01
    8993.135     -3.408   1.080  1.55559E-01  7.93140E-01 -6.37581E-01
    8993.471     -3.072   1.120  1.66548E-01  8.05868E-01 -6.39320E-01
    8993.818     -2.725   1.160  1.80696E-01  8.18284E-01 -6.37589E-01
    8994.178     -2.365   1.200  1.99118E-01  8.30419E-01 -6.31302E-01
    8994.550     -1.993   1.240  2.23375E-01  8.42261E-01 -6.18886E-01
    8994.934     -1.609   1.280  2.55543E-01  8.53750E-01 -5.98207E-01
    8995.330     -1.213   1.320  2.98324E-01  8.64930E-01 -5.66606E-01
    8995.738     -0.805   1.360  3.55383E-01  8.75759E-01 -5.20376E-01
    8996.159     -0.384   1.400  4.32633E-01  8.86215E-01 -4.53582E-01
    8996.592      0.049   1.440  5.35638E-01  8.96277E-01 -3.60639E-01
    8997.037      0.494   1.480  6.64781E-01  9.05963E-01 -2.41181E-01
    8997.494      0.951   1.520  8.20421E-01  9.15229E-01 -9.48085E-02
    8997.963      1.420   1.560  9.93683E-01  9.24096E-01  6.95863E-02
    8998.445      1.902   1.600  1.16339E+00  9.32520E-01  2.30871E-01
    8998.939      2.396   1.640  1.34627E+00  9.40521E-01  4.05746E-01
    8999.445      2.902   1.680  1.57204E+00  9.48079E-01  6.23963E-01
    8999.963      3.420   1.720  1.77701E+00  9.55194E-01  8.21814E-01
    9000.493      3.950   1.760  1.82131E+00  9.61869E-01  8.59439E-01
    9001.036      4.493   1.800  1.71358E+00  9.68126E-01  7.45452E-01
    9001.591      5.047   1.840  1.59387E+00  9.73926E-01  6.19942E-01
    9002.157      5.614   1.880  1.52803E+00  9.79293E-01  5.48741E-01
    9002.737      6.193   1.920  1.51830E+00  9.84234E-01  5.34070E-01
    9003.328      6.785   1.960  1.54756E+00  9.88772E-01  5.58792E-01
    9003.931      7.388   2.000  1.55070E+00  9.92895E-01  5.57810E-01
    9004.547      8.004   2.040  1.49912E+00  9.96609E-01  5.02515E-01
    9005.175      8.632   2.080  1.40915E+00  9.99961E-01  4.09192E-01
    9005.815      9.272   2.120  1.32489E+00  1.00296E+00  3.21928E-01
    9006.467      9.924   2.160  1.27711E+00  1.00559E+00  2.71511E-01
    9007.132     10.589   2.200  1.25170E+00  1.00789E+00  2.43808E-01
    9007.808     11.265   2.240  1.22374E+00  1.00986E+00  2.13882E-01
    9008.497     11.954   2.280  1.19002E+00  1.01154E+00  1.78473E-01
    9009.198     12.655   2.320  1.16031E+00  1.01292E+00  1.47387E-01
    9009.912     13.368   2.360  1.13774E+00  1.01403E+00  1.23706E-01
    9010.637     14.094   2.400  1.11974E+00  1.01490E+00  1.04843E-01
    9011.375     14.831   2.440  1.10991E+00  1.01554E+00  9.43736E-02
    9012.124     15.581   2.480  1.11661E+00  1.01596E+00  1.00648E-01
    9012.886     16.343   2.520  1.13835E+00  1.01616E+00  1.22194E-01
    9013.661     17.117   2.560  1.15135E+00  1.01620E+00  1.35147E-01
    9014.447     17.904   2.600  1.13753E+00  1.01606E+00  1.21475E-01
    9015.246     18.702   2.640  1.10390E+00  1.01577E+00  8.81258E-02
    9016.056     19.513   2.680  1.06486E+00  1.01536E+00  4.95005E-02
    9016.879     20.336   2.720  1.02908E+00  1.01481E+00  1.42666E-02
    9017.714     21.171   2.760  9.99274E-01  1.01416E+00 -1.48820E-02
    9018.562     22.019   2.800  9.74263E-01  1.01341E+00 -3.91441E-02
    9019.421     22.878   2.840  9.52387E-01  1.01258E+00 -6.01887E-02
    9020.293     23.750   2.880  9.32671E-01  1.01169E+00 -7.90202E-02
    9021.177     24.634   2.920  9.15447E-01  1.01076E+00 -9.53092E-02
    9022.073     25.530   2.960  9.01405E-01  1.00976E+00 -1.08350E-01
    9022.981     26.438   3.000  8.90851E-01  1.00874E+00 -1.17885E-01
    9023.902     27.359   3.040  8.82859E-01  1.00768E+00 -1.24826E-01
    9024.834     28.291   3.080  8.75593E-01  1.00663E+00 -1.31034E-01
    9025.779     29.236   3.120  8.67589E-01  1.00559E+00 -1.37999E-01
    9026.736     30.193   3.160  8.58424E-01  1.00453E+00 -1.46101E-01
    9027.706     31.163   3.200  8.48223E-01  1.00347E+00 -1.55246E-01
    9028.687     32.144   3.240  8.37389E-01  1.00246E+00 -1.65073E-01
    9029.681     33.138   3.280  8.26284E-01  1.00144E+00 -1.75161E-01
    9030.687     34.144   3.320  8.15506E-01  1.00049E+00 -1.84979E-01
    9031.705     35.162   3.360  8.06169E-01  9.99564E-01 -1.93395E-01
    9032.735     36.192   3.400  7.99953E-01  9.98661E-01 -1.98709E-01
    9033.777     37.234   3.440  7.97856E-01  9.97824E-01 -1.99967E-01
    9034.832     38.289   3.480  8.00441E-01  9.97052E-01 -1.96610E-01
    9035.899     39.356   3.520  8.07821E-01  9.96306E-01 -1.88484E-01
    9036.978     40.435   3.560  8.19774E-01  9.95628E-01 -1.75854E-01
    9038.069     41.526   3.600  8.35780E-01  9.95022E-01 -1.59241E-01
    9039.172     42.629   3.640  8.55316E-01  9.94467E-01 -1.39150E-01
    9040.288     43.745   3.680  8.77767E-01  9.93984E-01 -1.16216E-01
    9041.416     44.872   3.720  9.02412E-01  9.93551E-01 -9.11392E-02
    9042.555     46.012   3.760  9.29073E-01  9.93194E-01 -6.41212E-02
    9043.708     47.165   3.800  9.57832E-01  9.92912E-01 -3.50796E-02
    9044.872     48.329   3.840  9.88030E-01  9.92703E-01 -4.67393E-03
    9046.048     49.505   3.880  1.01794E+00  9.92549E-01  2.53915E-02
    9047.237     50.694   3.920  1.04499E+00  9.92466E-01  5.25234E-02
    9048.438     51.895   3.960  1.06624E+00  9.92435E-01  7.38067E-02
    9049.651     53.108   4.000  1.07983E+00  9.92479E-01  8.73547E-02
    9050.876     54.333   4.040  1.08606E+00  9.92596E-01  9.34672E-02
    9052.114     55.571   4.080  1.08710E+00  9.92765E-01  9.43354E-02
    9053.364     56.821   4.120  1.08554E+00  9.93006E-01  9.25300E-02
    9054.626     58.082   4.160  1.08344E+00  9.93318E-01  9.01265E-02
    9055.900     59.356   4.200  1.08199E+00  9.93679E-01  8.83129E-02
    9057.186     60.643   4.240  1.08152E+00  9.94084E-01  8.74382E-02
    9058.484     61.941   4.280  1.08150E+00  9.94534E-01  8.69696E-02
    9059.795     63.252   4.320  1.08117E+00  9.95048E-01  8.61198E-02
    9061.118     64.575   4.360  1.08048E+00  9.95583E-01  8.48998E-02
    9062.453     65.910   4.400  1.08041E+00  9.96182E-01  8.42284E-02
    9063.800     67.257   4.440  1.08183E+00  9.96821E-01  8.50107E-02
    9065.159     68.616   4.480  1.08446E+00  9.97498E-01  8.69632E-02
    9066.531     69.988   4.520  1.08704E+00  9.98190E-01  8.88475E-02
    9067.915     71.372   4.560  1.08851E+00  9.98915E-01  8.95923E-02
    9069.311     72.768   4.600  1.08887E+00  9.99674E-01  8.91948E-02
    9070.719     74.176   4.640  1.08920E+00  1.00046E+00  8.87382E-02
    9072.139     75.596   4.680  1.09088E+00  1.00124E+00  8.96441E-02
    9073.572     77.029   4.720  1.09432E+00  1.00204E+00  9.22858E-02
    9075.017     78.473   4.760  1.09785E+00  1.00284E+00  9.50054E-02
    9076.473     79.930   4.800  1.09805E+00  1.00367E+00  9.43838E-02
    9077.943     81.400   4.840  1.09117E+00  1.00447E+00  8.66949E-02
    9079.424     82.881   4.880  1.07490E+00  1.00527E+00  6.96335E-02
    9080.917     84.374   4.920  1.04964E+00  1.00607E+00  4.35696E-02
    9082.423     85.880   4.960  1.01875E+00  1.00686E+00  1.18950E-02
    9083.941     87.398   5.000  9.87892E-01  1.00762E+00 -1.97257E-02
    9085.471     88.928   5.040  9.62872E-01  1.00837E+00 -4.54948E-02
    9087.013     90.470   5.080  9.47243E-01  1.00908E+00 -6.18411E-02
    9088.568     92.025   5.120  9.41699E-01  1.00979E+00 -6.80862E-02
    9090.135     93.591   5.160  9.44763E-01  1.01043E+00 -6.56636E-02
    9091.713     95.170   5.200  9.54319E-01  1.01105E+00 -5.67340E-02
    9093.304     96.761   5.240  9.67911E-01  1.01164E+00 -4.37290E-02
    9094.908     98.365   5.280  9.82580E-01  1.01219E+00 -2.96051E-02
    9096.523     99.980   5.320  9.94780E-01  1.01269E+00 -1.79101E-02
    9098.151    101.608   5.360  1.00114E+00  1.01315E+00 -1.20126E-02
    9099.791    103.247   5.400  9.99642E-01  1.01357E+00 -1.39241E-02
    9101.443    104.899   5.440  9.90571E-01  1.01391E+00 -2.33408E-02
    9103.107    106.564   5.480  9.76498E-01  1.01421E+00 -3.77137E-02
    9104.783    108.240   5.520  9.60882E-01  1.01446E+00 -5.35821E-02
    9106.472    109.929   5.560  9.46370E-01  1.01465E+00 -6.82757E-02
    9108.173    111.629   5.600  9.34191E-01  1.01478E+00 -8.05904E-02
    9109.886    113.342   5.640  9.24866E-01  1.01487E+00 -9.00033E-02
    9111.611    115.068   5.680  9.19488E-01  1.01489E+00 -9.53987E-02
    9113.348    116.805   5.720  9.19487E-01  1.01486E+00 -9.53699E-02
    9115.098    118.554   5.760  9.25216E-01  1.01478E+00 -8.95629E-02
    9116.859    120.316   5.800  9.35472E-01  1.01463E+00 -7.91578E-02
    9118.633    122.090   5.840  9.48229E-01  1.01441E+00 -6.61809E-02
    9120.419    123.876   5.880  9.61233E-01  1.01414E+00 -5.29109E-02
    9122.218    125.675   5.920  9.72156E-01  1.01383E+00 -4.16781E-02
    9124.028    127.485   5.960  9.79472E-01  1.01348E+00 -3.40052E-02
    9125.851    129.308   6.000  9.83435E-01  1.01301E+00 -2.95708E-02
