# # comment:                                                     FEFF 9.9.1  
# # Source:
# # Structure
# # Reduced
# # space
# # abc:
# # angles:
# # sites:
# # POT  SCF 100  7.0000   0, screened core-hole, AFOLP (folp(0)= 1.150)
# # Abs   Z=29 Rmt= 1.225 Rnm= 1.327 K  shell
# # Pot 1 Z=26 Rmt= 1.334 Rnm= 1.435
# # Pot 2 Z=29 Rmt= 1.223 Rnm= 1.320
# # Pot 3 Z= 5 Rmt= 0.749 Rnm= 0.989
# # Pot 4 Z= 8 Rmt= 1.017 Rnm= 1.113
# # Gam_ch=1.729E+00 H-L exch Vi= 0.000E+00 Vr= 0.000E+00
# # Mu=-8.384E+00eV kf=2.220E+00 Vint=-1.586E+01eV Rs_int= 1.633
# FMS rfms= 9.0000
# # PATH  Rmax=-1.000,  Keep_limit= 0.00, Heap_limit 0.00  Pwcrit= 2.50%
#  S02=0.950  Temp=   0.00  Debye_temp=   0.00  Global_sig2= 0.00000
#  Energy zero shift, vr, vi    0.00000E+00   0.00000E+00
#  Curved wave amplitude ratio filter   4.000%
#     file         sig2 tot  cw amp ratio   deg  nlegs   reff  inp sig2
#     0/   0 paths used
#  xsedge+ 50, used to normalize mu           2.4569E-04
#  -----------------------------------------------------------------------
#  omega    e    k    mu    mu0     chi     @#
    8983.687    -12.194  -1.000  3.35260E-02  5.24850E-02 -1.89590E-02
    8983.986    -11.896  -0.960  3.50055E-02  5.62162E-02 -2.12107E-02
    8984.272    -11.609  -0.920  3.65676E-02  6.03533E-02 -2.37857E-02
    8984.546    -11.335  -0.880  3.82185E-02  6.49550E-02 -2.67364E-02
    8984.809    -11.073  -0.840  3.99657E-02  7.00896E-02 -3.01239E-02
    8985.058    -10.823  -0.800  4.18171E-02  7.58361E-02 -3.40191E-02
    8985.296    -10.585  -0.760  4.37819E-02  8.22851E-02 -3.85032E-02
    8985.522    -10.360  -0.720  4.58701E-02  8.95385E-02 -4.36684E-02
    8985.735    -10.146  -0.680  4.80925E-02  9.77085E-02 -4.96160E-02
    8985.936     -9.945  -0.640  5.04601E-02  1.06913E-01 -5.64534E-02
    8986.125     -9.756  -0.600  5.29824E-02  1.17269E-01 -6.42865E-02
    8986.302     -9.579  -0.560  5.56660E-02  1.28873E-01 -7.32073E-02
    8986.467     -9.415  -0.520  5.85104E-02  1.41784E-01 -8.32739E-02
    8986.619     -9.262  -0.480  6.15038E-02  1.55987E-01 -9.44834E-02
    8986.759     -9.122  -0.440  6.46176E-02  1.71358E-01 -1.06740E-01
    8986.887     -8.994  -0.400  6.78022E-02  1.87631E-01 -1.19829E-01
    8987.003     -8.878  -0.360  7.09863E-02  2.04393E-01 -1.33407E-01
    8987.107     -8.775  -0.320  7.40825E-02  2.21104E-01 -1.47021E-01
    8987.198     -8.683  -0.280  7.69975E-02  2.37163E-01 -1.60166E-01
    8987.277     -8.604  -0.240  7.96463E-02  2.51994E-01 -1.72348E-01
    8987.344     -8.537  -0.200  8.19612E-02  2.65110E-01 -1.83149E-01
    8987.399     -8.482  -0.160  8.38955E-02  2.76152E-01 -1.92257E-01
    8987.442     -8.439  -0.120  8.54205E-02  2.84889E-01 -1.99468E-01
    8987.472     -8.409  -0.080  8.65205E-02  2.91187E-01 -2.04667E-01
    8987.497     -8.384   0.000  8.74159E-02  2.96251E-01 -2.08835E-01
    8987.552     -8.330   0.120  8.95555E-02  3.07683E-01 -2.18128E-01
    8987.594     -8.287   0.160  9.11646E-02  3.16590E-01 -2.25425E-01
    8987.649     -8.232   0.200  9.31465E-02  3.27955E-01 -2.34808E-01
    8987.716     -8.165   0.240  9.55114E-02  3.41661E-01 -2.46150E-01
    8987.796     -8.086   0.280  9.82088E-02  3.57459E-01 -2.59251E-01
    8987.887     -7.994   0.320  1.01207E-01  3.74978E-01 -2.73771E-01
    8987.991     -7.891   0.360  1.04465E-01  3.93714E-01 -2.89249E-01
    8988.106     -7.775   0.400  1.08031E-01  4.13210E-01 -3.05179E-01
    8988.234     -7.647   0.440  1.11956E-01  4.32973E-01 -3.21017E-01
    8988.375     -7.507   0.480  1.16386E-01  4.52650E-01 -3.36264E-01
    8988.527     -7.354   0.520  1.21439E-01  4.71996E-01 -3.50557E-01
    8988.692     -7.190   0.560  1.27228E-01  4.90909E-01 -3.63680E-01
    8988.868     -7.013   0.600  1.33711E-01  5.09354E-01 -3.75643E-01
    8989.057     -6.824   0.640  1.40873E-01  5.27380E-01 -3.86508E-01
    8989.259     -6.623   0.680  1.48767E-01  5.45047E-01 -3.96280E-01
    8989.472     -6.409   0.720  1.57856E-01  5.62403E-01 -4.04547E-01
    8989.698     -6.184   0.760  1.69064E-01  5.79536E-01 -4.10472E-01
    8989.935     -5.946   0.800  1.83636E-01  5.96484E-01 -4.12848E-01
    8990.185     -5.696   0.840  2.02808E-01  6.13314E-01 -4.10506E-01
    8990.447     -5.434   0.880  2.27728E-01  6.30060E-01 -4.02331E-01
    8990.722     -5.160   0.920  2.59774E-01  6.46721E-01 -3.86948E-01
    8991.008     -4.873   0.960  3.01360E-01  6.63289E-01 -3.61929E-01
    8991.307     -4.574   1.000  3.55741E-01  6.79804E-01 -3.24063E-01
    8991.618     -4.264   1.040  4.23778E-01  6.96197E-01 -2.72418E-01
    8991.941     -3.940   1.080  5.00931E-01  7.12473E-01 -2.11541E-01
    8992.276     -3.605   1.120  5.78982E-01  7.28612E-01 -1.49630E-01
    8992.624     -3.258   1.160  6.46115E-01  7.44549E-01 -9.84344E-02
    8992.983     -2.898   1.200  6.84386E-01  7.60297E-01 -7.59114E-02
    8993.355     -2.526   1.240  6.85461E-01  7.75764E-01 -9.03030E-02
    8993.739     -2.142   1.280  6.64656E-01  7.90958E-01 -1.26302E-01
    8994.135     -1.746   1.320  6.41661E-01  8.05803E-01 -1.64142E-01
    8994.544     -1.338   1.360  6.24425E-01  8.20289E-01 -1.95863E-01
    8994.964     -0.917   1.400  6.16351E-01  8.34380E-01 -2.18029E-01
    8995.397     -0.484   1.440  6.24516E-01  8.48022E-01 -2.23507E-01
    8995.842     -0.039   1.480  6.53470E-01  8.61183E-01 -2.07713E-01
    8996.299      0.418   1.520  6.98920E-01  8.73872E-01 -1.74952E-01
    8996.769      0.888   1.560  7.51305E-01  8.86017E-01 -1.34713E-01
    8997.250      1.369   1.600  8.01426E-01  8.97632E-01 -9.62054E-02
    8997.744      1.863   1.640  8.48642E-01  9.08689E-01 -6.00468E-02
    8998.250      2.369   1.680  8.99478E-01  9.19161E-01 -1.96833E-02
    8998.768      2.887   1.720  9.51132E-01  9.29068E-01  2.20643E-02
    8999.299      3.417   1.760  9.97433E-01  9.38364E-01  5.90690E-02
    8999.841      3.960   1.800  1.04807E+00  9.47092E-01  1.00982E-01
    9000.396      4.515   1.840  1.11417E+00  9.55213E-01  1.58959E-01
    9000.963      5.082   1.880  1.19339E+00  9.62772E-01  2.30621E-01
    9001.542      5.661   1.920  1.28607E+00  9.69751E-01  3.16319E-01
    9002.133      6.252   1.960  1.39206E+00  9.76157E-01  4.15899E-01
    9002.737      6.855   2.000  1.49226E+00  9.82016E-01  5.10247E-01
    9003.353      7.471   2.040  1.53316E+00  9.87317E-01  5.45846E-01
    9003.980      8.099   2.080  1.47276E+00  9.92131E-01  4.80627E-01
    9004.620      8.739   2.120  1.34891E+00  9.96427E-01  3.52487E-01
    9005.273      9.391   2.160  1.22518E+00  1.00026E+00  2.24920E-01
    9005.937     10.056   2.200  1.13367E+00  1.00363E+00  1.30036E-01
    9006.614     10.733   2.240  1.07830E+00  1.00656E+00  7.17351E-02
    9007.303     11.421   2.280  1.05239E+00  1.00910E+00  4.32918E-02
    9008.004     12.122   2.320  1.04613E+00  1.01124E+00  3.48897E-02
    9008.717     12.836   2.360  1.04523E+00  1.01301E+00  3.22104E-02
    9009.442     13.561   2.400  1.04461E+00  1.01445E+00  3.01616E-02
    9010.180     14.299   2.440  1.04890E+00  1.01559E+00  3.33153E-02
    9010.930     15.048   2.480  1.05949E+00  1.01642E+00  4.30704E-02
    9011.692     15.810   2.520  1.07463E+00  1.01698E+00  5.76463E-02
    9012.466     16.585   2.560  1.09308E+00  1.01730E+00  7.57744E-02
    9013.252     17.371   2.600  1.11003E+00  1.01741E+00  9.26241E-02
    9014.051     18.170   2.640  1.11419E+00  1.01731E+00  9.68815E-02
    9014.862     18.980   2.680  1.10450E+00  1.01702E+00  8.74797E-02
    9015.685     19.803   2.720  1.08990E+00  1.01658E+00  7.33125E-02
    9016.520     20.638   2.760  1.07371E+00  1.01599E+00  5.77136E-02
    9017.367     21.486   2.800  1.05463E+00  1.01528E+00  3.93549E-02
    9018.227     22.345   2.840  1.03143E+00  1.01447E+00  1.69596E-02
    9019.098     23.217   2.880  1.00501E+00  1.01355E+00 -8.54247E-03
    9019.982     24.101   2.920  9.78278E-01  1.01257E+00 -3.42907E-02
    9020.878     24.997   2.960  9.54358E-01  1.01152E+00 -5.71586E-02
    9021.787     25.905   3.000  9.35003E-01  1.01042E+00 -7.54146E-02
    9022.707     26.826   3.040  9.20416E-01  1.00928E+00 -8.88630E-02
    9023.640     27.759   3.080  9.10335E-01  1.00813E+00 -9.77940E-02
    9024.585     28.703   3.120  9.03747E-01  1.00695E+00 -1.03201E-01
    9025.542     29.661   3.160  8.99548E-01  1.00577E+00 -1.06218E-01
    9026.511     30.630   3.200  8.96732E-01  1.00461E+00 -1.07875E-01
    9027.493     31.611   3.240  8.94389E-01  1.00345E+00 -1.09064E-01
    9028.486     32.605   3.280  8.91865E-01  1.00231E+00 -1.10442E-01
    9029.492     33.611   3.320  8.88889E-01  1.00120E+00 -1.12308E-01
    9030.510     34.629   3.360  8.85758E-01  1.00015E+00 -1.14388E-01
    9031.540     35.659   3.400  8.82927E-01  9.99113E-01 -1.16186E-01
    9032.583     36.701   3.440  8.81261E-01  9.98122E-01 -1.16861E-01
    9033.637     37.756   3.480  8.81644E-01  9.97196E-01 -1.15553E-01
    9034.704     38.823   3.520  8.84641E-01  9.96317E-01 -1.11676E-01
    9035.783     39.902   3.560  8.90486E-01  9.95485E-01 -1.04999E-01
    9036.874     40.993   3.600  8.99272E-01  9.94725E-01 -9.54526E-02
    9037.978     42.096   3.640  9.10865E-01  9.94035E-01 -8.31696E-02
    9039.093     43.212   3.680  9.24794E-01  9.93398E-01 -6.86046E-02
    9040.221     44.340   3.720  9.40465E-01  9.92834E-01 -5.23696E-02
    9041.361     45.480   3.760  9.57219E-01  9.92324E-01 -3.51051E-02
    9042.513     46.632   3.800  9.74369E-01  9.91908E-01 -1.75385E-02
    9043.677     47.796   3.840  9.91137E-01  9.91544E-01 -4.06866E-04
    9044.854     48.973   3.880  1.00688E+00  9.91232E-01  1.56520E-02
    9046.043     50.161   3.920  1.02098E+00  9.90993E-01  2.99842E-02
    9047.244     51.362   3.960  1.03288E+00  9.90829E-01  4.20515E-02
    9048.457     52.575   4.000  1.04232E+00  9.90739E-01  5.15795E-02
    9049.682     53.801   4.040  1.04923E+00  9.90697E-01  5.85360E-02
    9050.919     55.038   4.080  1.05372E+00  9.90704E-01  6.30209E-02
    9052.169     56.288   4.120  1.05618E+00  9.90783E-01  6.53991E-02
    9053.431     57.550   4.160  1.05707E+00  9.90931E-01  6.61424E-02
    9054.705     58.824   4.200  1.05685E+00  9.91127E-01  6.57266E-02
    9055.991     60.110   4.240  1.05594E+00  9.91366E-01  6.45787E-02
    9057.290     61.408   4.280  1.05474E+00  9.91649E-01  6.30865E-02
    9058.600     62.719   4.320  1.05350E+00  9.91995E-01  6.15066E-02
    9059.923     64.042   4.360  1.05229E+00  9.92362E-01  5.99292E-02
    9061.258     65.377   4.400  1.05117E+00  9.92788E-01  5.83865E-02
    9062.605     66.724   4.440  1.05008E+00  9.93231E-01  5.68507E-02
    9063.965     68.083   4.480  1.04897E+00  9.93709E-01  5.52608E-02
    9065.336     69.455   4.520  1.04778E+00  9.94222E-01  5.35593E-02
    9066.720     70.839   4.560  1.04648E+00  9.94769E-01  5.17087E-02
    9068.116     72.235   4.600  1.04501E+00  9.95324E-01  4.96844E-02
    9069.524     73.643   4.640  1.04333E+00  9.95885E-01  4.74447E-02
    9070.945     75.063   4.680  1.04131E+00  9.96472E-01  4.48368E-02
    9072.377     76.496   4.720  1.03852E+00  9.97064E-01  4.14548E-02
    9073.822     77.941   4.760  1.03446E+00  9.97656E-01  3.68003E-02
    9075.279     79.398   4.800  1.02877E+00  9.98248E-01  3.05236E-02
    9076.748     80.867   4.840  1.02152E+00  9.98839E-01  2.26812E-02
    9078.229     82.348   4.880  1.01323E+00  9.99428E-01  1.38058E-02
    9079.723     83.842   4.920  1.00466E+00  1.00001E+00  4.64671E-03
    9081.229     85.347   4.960  9.96448E-01  1.00056E+00 -4.11573E-03
    9082.746     86.865   5.000  9.89094E-01  1.00111E+00 -1.20165E-02
    9084.277     88.395   5.040  9.82838E-01  1.00165E+00 -1.88104E-02
    9085.819     89.938   5.080  9.77765E-01  1.00215E+00 -2.43867E-02
    9087.373     91.492   5.120  9.73790E-01  1.00262E+00 -2.88295E-02
    9088.940     93.059   5.160  9.70729E-01  1.00307E+00 -3.23430E-02
    9090.519     94.638   5.200  9.68301E-01  1.00347E+00 -3.51645E-02
    9092.110     96.229   5.240  9.66380E-01  1.00384E+00 -3.74629E-02
    9093.713     97.832   5.280  9.64842E-01  1.00418E+00 -3.93415E-02
    9095.329     99.447   5.320  9.63584E-01  1.00451E+00 -4.09238E-02
    9096.956    101.075   5.360  9.62403E-01  1.00477E+00 -4.23647E-02
    9098.596    102.715   5.400  9.61133E-01  1.00498E+00 -4.38510E-02
    9100.248    104.367   5.440  9.59677E-01  1.00516E+00 -4.54829E-02
    9101.912    106.031   5.480  9.58180E-01  1.00529E+00 -4.71126E-02
    9103.589    107.707   5.520  9.57176E-01  1.00538E+00 -4.82084E-02
    9105.277    109.396   5.560  9.57366E-01  1.00543E+00 -4.80670E-02
    9106.978    111.097   5.600  9.59251E-01  1.00544E+00 -4.61872E-02
    9108.691    112.810   5.640  9.62870E-01  1.00538E+00 -4.25087E-02
    9110.416    114.535   5.680  9.67883E-01  1.00530E+00 -3.74142E-02
    9112.153    116.272   5.720  9.73582E-01  1.00515E+00 -3.15684E-02
    9113.903    118.022   5.760  9.79359E-01  1.00496E+00 -2.56045E-02
    9115.665    119.783   5.800  9.84886E-01  1.00476E+00 -1.98733E-02
    9117.439    121.557   5.840  9.90076E-01  1.00449E+00 -1.44177E-02
    9119.225    123.343   5.880  9.94981E-01  1.00419E+00 -9.20525E-03
    9121.023    125.142   5.920  9.99490E-01  1.00384E+00 -4.35292E-03
    9122.834    126.952   5.960  1.00334E+00  1.00346E+00 -1.22279E-04
    9124.656    128.775   6.000  1.00651E+00  1.00301E+00  3.49550E-03
