# # comment:                                                     FEFF 9.9.1  
# # Source:
# # Structure
# # Reduced
# # space
# # abc:
# # angles:
# # sites:
# # POT  SCF 100  7.0000   0, screened core-hole, AFOLP (folp(0)= 1.150)
# # Abs   Z=29 Rmt= 1.289 Rnm= 1.356 K  shell
# # Pot 1 Z=29 Rmt= 1.289 Rnm= 1.356
# # Pot 2 Z= 8 Rmt= 0.814 Rnm= 0.997
# # Pot 3 Z= 9 Rmt= 1.084 Rnm= 1.146
# # Gam_ch=1.729E+00 H-L exch Vi= 0.000E+00 Vr= 0.000E+00
# # Mu=-6.065E+00eV kf=2.426E+00 Vint=-1.485E+01eV Rs_int= 1.495
# FMS rfms= 9.0000
# # PATH  Rmax=-1.000,  Keep_limit= 0.00, Heap_limit 0.00  Pwcrit= 2.50%
#  S02=0.950  Temp=   0.00  Debye_temp=   0.00  Global_sig2= 0.00000
#  Energy zero shift, vr, vi    0.00000E+00   0.00000E+00
#  Curved wave amplitude ratio filter   4.000%
#     file         sig2 tot  cw amp ratio   deg  nlegs   reff  inp sig2
#     0/   0 paths used
#  xsedge+ 50, used to normalize mu           2.4533E-04
#  -----------------------------------------------------------------------
#  omega    e    k    mu    mu0     chi     @#
    8983.273     -9.875  -1.000  3.71542E-02  5.66358E-02 -1.94816E-02
    8983.572     -9.577  -0.960  3.88587E-02  6.08339E-02 -2.19752E-02
    8983.858     -9.290  -0.920  4.06627E-02  6.55052E-02 -2.48425E-02
    8984.133     -9.016  -0.880  4.25742E-02  7.07197E-02 -2.81455E-02
    8984.395     -8.754  -0.840  4.46024E-02  7.65592E-02 -3.19568E-02
    8984.645     -8.504  -0.800  4.67576E-02  8.31181E-02 -3.63605E-02
    8984.883     -8.266  -0.760  4.90512E-02  9.05052E-02 -4.14540E-02
    8985.108     -8.040  -0.720  5.14956E-02  9.88431E-02 -4.73475E-02
    8985.322     -7.827  -0.680  5.41044E-02  1.08267E-01 -5.41628E-02
    8985.523     -7.626  -0.640  5.68906E-02  1.18920E-01 -6.20295E-02
    8985.712     -7.437  -0.600  5.98662E-02  1.30942E-01 -7.10762E-02
    8985.888     -7.260  -0.560  6.30388E-02  1.44454E-01 -8.14151E-02
    8986.053     -7.096  -0.520  6.64079E-02  1.59526E-01 -9.31184E-02
    8986.205     -6.943  -0.480  6.99595E-02  1.76144E-01 -1.06185E-01
    8986.346     -6.803  -0.440  7.36597E-02  1.94162E-01 -1.20503E-01
    8986.474     -6.675  -0.400  7.74500E-02  2.13265E-01 -1.35815E-01
    8986.589     -6.559  -0.360  8.12469E-02  2.32958E-01 -1.51711E-01
    8986.693     -6.455  -0.320  8.49477E-02  2.52599E-01 -1.67651E-01
    8986.785     -6.364  -0.280  8.84435E-02  2.71472E-01 -1.83029E-01
    8986.864     -6.285  -0.240  9.16331E-02  2.88893E-01 -1.97260E-01
    8986.931     -6.218  -0.200  9.44342E-02  3.04286E-01 -2.09852E-01
    8986.986     -6.163  -0.160  9.67866E-02  3.17233E-01 -2.20447E-01
    8987.028     -6.120  -0.120  9.86487E-02  3.27466E-01 -2.28818E-01
    8987.059     -6.090  -0.080  9.99936E-02  3.34838E-01 -2.34844E-01
    8987.083     -6.065   0.000  1.01080E-01  3.40760E-01 -2.39680E-01
    8987.138     -6.010   0.120  1.03711E-01  3.54096E-01 -2.50385E-01
    8987.181     -5.968   0.160  1.05727E-01  3.64472E-01 -2.58745E-01
    8987.236     -5.913   0.200  1.08277E-01  3.77706E-01 -2.69429E-01
    8987.303     -5.846   0.240  1.11391E-01  3.93616E-01 -2.82225E-01
    8987.382     -5.767   0.280  1.15027E-01  4.11879E-01 -2.96852E-01
    8987.473     -5.675   0.320  1.19193E-01  4.32025E-01 -3.12832E-01
    8987.577     -5.572   0.360  1.23822E-01  4.53426E-01 -3.29604E-01
    8987.693     -5.456   0.400  1.28960E-01  4.75482E-01 -3.46522E-01
    8987.821     -5.328   0.440  1.34617E-01  4.97603E-01 -3.62986E-01
    8987.961     -5.187   0.480  1.40803E-01  5.19328E-01 -3.78525E-01
    8988.113     -5.035   0.520  1.47621E-01  5.40376E-01 -3.92754E-01
    8988.278     -4.871   0.560  1.55267E-01  5.60595E-01 -4.05328E-01
    8988.455     -4.694   0.600  1.63971E-01  5.79949E-01 -4.15977E-01
    8988.644     -4.505   0.640  1.74087E-01  5.98477E-01 -4.24390E-01
    8988.845     -4.304   0.680  1.86115E-01  6.16279E-01 -4.30164E-01
    8989.058     -4.090   0.720  2.00595E-01  6.33428E-01 -4.32832E-01
    8989.284     -3.865   0.760  2.18216E-01  6.50037E-01 -4.31820E-01
    8989.522     -3.627   0.800  2.39404E-01  6.66166E-01 -4.26762E-01
    8989.772     -3.377   0.840  2.63894E-01  6.81886E-01 -4.17992E-01
    8990.034     -3.115   0.880  2.90463E-01  6.97250E-01 -4.06787E-01
    8990.308     -2.841   0.920  3.17622E-01  7.12296E-01 -3.94675E-01
    8990.595     -2.554   0.960  3.45307E-01  7.27052E-01 -3.81745E-01
    8990.893     -2.255   1.000  3.75558E-01  7.41513E-01 -3.65955E-01
    8991.204     -1.944   1.040  4.10657E-01  7.55685E-01 -3.45028E-01
    8991.527     -1.621   1.080  4.49555E-01  7.69566E-01 -3.20011E-01
    8991.863     -1.286   1.120  4.87081E-01  7.83169E-01 -2.96088E-01
    8992.210     -0.939   1.160  5.19760E-01  7.96441E-01 -2.76681E-01
    8992.570     -0.579   1.200  5.49525E-01  8.09384E-01 -2.59859E-01
    8992.941     -0.207   1.240  5.80125E-01  8.21981E-01 -2.41856E-01
    8993.326      0.177   1.280  6.17240E-01  8.34190E-01 -2.16950E-01
    8993.722      0.573   1.320  6.66448E-01  8.46029E-01 -1.79580E-01
    8994.130      0.982   1.360  7.25442E-01  8.57433E-01 -1.31990E-01
    8994.551      1.402   1.400  7.87884E-01  8.68441E-01 -8.05565E-02
    8994.984      1.835   1.440  8.56092E-01  8.78967E-01 -2.28750E-02
    8995.429      2.280   1.480  9.37446E-01  8.89051E-01  4.83951E-02
    8995.886      2.737   1.520  1.03820E+00  8.98668E-01  1.39529E-01
    8996.355      3.207   1.560  1.15762E+00  9.07818E-01  2.49807E-01
    8996.837      3.688   1.600  1.27006E+00  9.16460E-01  3.53596E-01
    8997.331      4.182   1.640  1.34702E+00  9.24615E-01  4.22408E-01
    8997.837      4.688   1.680  1.38598E+00  9.32284E-01  4.53698E-01
    8998.355      5.206   1.720  1.40548E+00  9.39472E-01  4.66010E-01
    8998.885      5.736   1.760  1.43682E+00  9.46181E-01  4.90636E-01
    8999.428      6.279   1.800  1.48634E+00  9.52418E-01  5.33922E-01
    8999.982      6.834   1.840  1.51749E+00  9.58186E-01  5.59302E-01
    9000.549      7.401   1.880  1.51204E+00  9.63492E-01  5.48544E-01
    9001.128      7.980   1.920  1.47993E+00  9.68345E-01  5.11586E-01
    9001.720      8.571   1.960  1.43652E+00  9.72794E-01  4.63730E-01
    9002.323      9.175   2.000  1.40345E+00  9.76827E-01  4.26623E-01
    9002.939      9.790   2.040  1.38490E+00  9.80473E-01  4.04431E-01
    9003.567     10.418   2.080  1.35525E+00  9.83744E-01  3.71508E-01
    9004.207     11.058   2.120  1.30540E+00  9.86647E-01  3.18750E-01
    9004.859     11.711   2.160  1.24746E+00  9.89213E-01  2.58243E-01
    9005.524     12.375   2.200  1.18086E+00  9.91473E-01  1.89383E-01
    9006.200     13.052   2.240  1.11609E+00  9.93439E-01  1.22654E-01
    9006.889     13.741   2.280  1.07015E+00  9.95120E-01  7.50300E-02
    9007.590     14.442   2.320  1.04024E+00  9.96546E-01  4.36916E-02
    9008.303     15.155   2.360  1.01660E+00  9.97727E-01  1.88710E-02
    9009.029     15.880   2.400  1.00132E+00  9.98695E-01  2.62296E-03
    9009.766     16.618   2.440  1.00047E+00  9.99478E-01  9.92829E-04
    9010.516     17.368   2.480  1.01168E+00  1.00007E+00  1.16107E-02
    9011.278     18.130   2.520  1.02295E+00  1.00049E+00  2.24623E-02
    9012.052     18.904   2.560  1.02017E+00  1.00077E+00  1.93998E-02
    9012.839     19.690   2.600  9.96676E-01  1.00091E+00 -4.23318E-03
    9013.637     20.489   2.640  9.57660E-01  1.00094E+00 -4.32844E-02
    9014.448     21.300   2.680  9.15476E-01  1.00089E+00 -8.54130E-02
    9015.271     22.122   2.720  8.78124E-01  1.00073E+00 -1.22602E-01
    9016.106     22.958   2.760  8.50498E-01  1.00051E+00 -1.50008E-01
    9016.954     23.805   2.800  8.32412E-01  1.00023E+00 -1.67821E-01
    9017.813     24.664   2.840  8.26865E-01  9.99895E-01 -1.73030E-01
    9018.685     25.536   2.880  8.25447E-01  9.99535E-01 -1.74088E-01
    9019.569     26.420   2.920  8.24864E-01  9.99140E-01 -1.74276E-01
    9020.465     27.316   2.960  8.22971E-01  9.98714E-01 -1.75743E-01
    9021.373     28.225   3.000  8.19544E-01  9.98303E-01 -1.78759E-01
    9022.294     29.145   3.040  8.15675E-01  9.97870E-01 -1.82195E-01
    9023.226     30.078   3.080  8.12812E-01  9.97459E-01 -1.84647E-01
    9024.171     31.023   3.120  8.12251E-01  9.97053E-01 -1.84802E-01
    9025.128     31.980   3.160  8.15090E-01  9.96676E-01 -1.81586E-01
    9026.098     32.949   3.200  8.21939E-01  9.96309E-01 -1.74370E-01
    9027.079     33.930   3.240  8.33069E-01  9.95975E-01 -1.62906E-01
    9028.073     34.924   3.280  8.48367E-01  9.95675E-01 -1.47309E-01
    9029.078     35.930   3.320  8.67006E-01  9.95392E-01 -1.28386E-01
    9030.096     36.948   3.360  8.88250E-01  9.95169E-01 -1.06919E-01
    9031.127     37.978   3.400  9.11191E-01  9.94985E-01 -8.37939E-02
    9032.169     39.021   3.440  9.35024E-01  9.94821E-01 -5.97968E-02
    9033.224     40.075   3.480  9.59180E-01  9.94720E-01 -3.55396E-02
    9034.290     41.142   3.520  9.83065E-01  9.94683E-01 -1.16183E-02
    9035.369     42.221   3.560  1.00603E+00  9.94667E-01  1.13599E-02
    9036.461     43.312   3.600  1.02749E+00  9.94693E-01  3.28007E-02
    9037.564     44.415   3.640  1.04699E+00  9.94782E-01  5.22088E-02
    9038.680     45.531   3.680  1.06422E+00  9.94912E-01  6.93076E-02
    9039.807     46.659   3.720  1.07917E+00  9.95063E-01  8.41114E-02
    9040.947     47.799   3.760  1.09196E+00  9.95276E-01  9.66837E-02
    9042.099     48.951   3.800  1.10239E+00  9.95532E-01  1.06857E-01
    9043.264     50.115   3.840  1.11019E+00  9.95849E-01  1.14342E-01
    9044.440     51.292   3.880  1.11524E+00  9.96182E-01  1.19058E-01
    9045.629     52.480   3.920  1.11756E+00  9.96530E-01  1.21026E-01
    9046.830     53.681   3.960  1.11715E+00  9.96937E-01  1.20212E-01
    9048.043     54.894   4.000  1.11386E+00  9.97380E-01  1.16476E-01
    9049.268     56.120   4.040  1.10771E+00  9.97834E-01  1.09871E-01
    9050.506     57.357   4.080  1.09903E+00  9.98319E-01  1.00707E-01
    9051.755     58.607   4.120  1.08852E+00  9.98814E-01  8.97031E-02
    9053.017     59.869   4.160  1.07708E+00  9.99339E-01  7.77428E-02
    9054.291     61.143   4.200  1.06545E+00  9.99871E-01  6.55780E-02
    9055.578     62.429   4.240  1.05417E+00  1.00043E+00  5.37354E-02
    9056.876     63.727   4.280  1.04352E+00  1.00099E+00  4.25221E-02
    9058.187     65.038   4.320  1.03368E+00  1.00156E+00  3.21262E-02
    9059.510     66.361   4.360  1.02493E+00  1.00212E+00  2.28066E-02
    9060.845     67.696   4.400  1.01755E+00  1.00268E+00  1.48720E-02
    9062.192     69.043   4.440  1.01170E+00  1.00324E+00  8.46403E-03
    9063.551     70.403   4.480  1.00718E+00  1.00377E+00  3.40585E-03
    9064.923     71.774   4.520  1.00352E+00  1.00432E+00 -7.97838E-04
    9066.307     73.158   4.560  1.00002E+00  1.00484E+00 -4.81454E-03
    9067.703     74.554   4.600  9.96081E-01  1.00535E+00 -9.26452E-03
    9069.111     75.962   4.640  9.91365E-01  1.00582E+00 -1.44555E-02
    9070.531     77.382   4.680  9.86056E-01  1.00626E+00 -2.02070E-02
    9071.964     78.815   4.720  9.80754E-01  1.00669E+00 -2.59380E-02
    9073.408     80.260   4.760  9.76109E-01  1.00711E+00 -3.10006E-02
    9074.865     81.717   4.800  9.72460E-01  1.00747E+00 -3.50080E-02
    9076.334     83.186   4.840  9.69923E-01  1.00781E+00 -3.78862E-02
    9077.816     84.667   4.880  9.68444E-01  1.00811E+00 -3.96680E-02
    9079.309     86.161   4.920  9.67980E-01  1.00838E+00 -4.03958E-02
    9080.815     87.666   4.960  9.68456E-01  1.00860E+00 -4.01414E-02
    9082.333     89.184   5.000  9.69667E-01  1.00878E+00 -3.91112E-02
    9083.863     90.714   5.040  9.71191E-01  1.00892E+00 -3.77263E-02
    9085.405     92.257   5.080  9.72450E-01  1.00901E+00 -3.65647E-02
    9086.960     93.811   5.120  9.72770E-01  1.00907E+00 -3.62998E-02
    9088.526     95.378   5.160  9.71564E-01  1.00908E+00 -3.75191E-02
    9090.105     96.957   5.200  9.68637E-01  1.00906E+00 -4.04183E-02
    9091.696     98.548   5.240  9.64313E-01  1.00899E+00 -4.46724E-02
    9093.300    100.151   5.280  9.59339E-01  1.00887E+00 -4.95342E-02
    9094.915    101.766   5.320  9.54668E-01  1.00872E+00 -5.40488E-02
    9096.543    103.394   5.360  9.51338E-01  1.00850E+00 -5.71579E-02
    9098.182    105.034   5.400  9.50463E-01  1.00826E+00 -5.77945E-02
    9099.834    106.686   5.440  9.52920E-01  1.00798E+00 -5.50603E-02
    9101.499    108.350   5.480  9.59185E-01  1.00766E+00 -4.84783E-02
    9103.175    110.026   5.520  9.69123E-01  1.00731E+00 -3.81860E-02
    9104.864    111.715   5.560  9.81855E-01  1.00694E+00 -2.50837E-02
    9106.564    113.416   5.600  9.95834E-01  1.00651E+00 -1.06732E-02
    9108.277    115.129   5.640  1.00949E+00  1.00606E+00  3.42984E-03
    9110.002    116.854   5.680  1.02167E+00  1.00558E+00  1.60828E-02
    9111.740    118.591   5.720  1.03190E+00  1.00507E+00  2.68268E-02
    9113.489    120.341   5.760  1.04022E+00  1.00454E+00  3.56784E-02
    9115.251    122.103   5.800  1.04681E+00  1.00399E+00  4.28224E-02
    9117.025    123.876   5.840  1.05185E+00  1.00340E+00  4.84486E-02
    9118.811    125.663   5.880  1.05550E+00  1.00284E+00  5.26590E-02
    9120.609    127.461   5.920  1.05755E+00  1.00223E+00  5.53191E-02
    9122.420    129.271   5.960  1.05759E+00  1.00165E+00  5.59387E-02
    9124.243    131.094   6.000  1.05477E+00  1.00104E+00  5.37382E-02
