# # comment:                                                     FEFF 9.9.1  
# # Source:
# # Structure
# # Reduced
# # space
# # abc:
# # angles:
# # sites:
# # POT  SCF 100  7.0000   0, screened core-hole, AFOLP (folp(0)= 1.150)
# # Abs   Z=29 Rmt= 1.233 Rnm= 1.362 K  shell
# # Pot 1 Z=20 Rmt= 1.613 Rnm= 1.694
# # Pot 2 Z=29 Rmt= 1.224 Rnm= 1.316
# # Pot 3 Z= 8 Rmt= 1.005 Rnm= 1.101
# # Gam_ch=1.729E+00 H-L exch Vi= 0.000E+00 Vr= 0.000E+00
# # Mu=-8.372E+00eV kf=2.089E+00 Vint=-1.658E+01eV Rs_int= 1.736
# FMS rfms= 9.0000
# # PATH  Rmax=-1.000,  Keep_limit= 0.00, Heap_limit 0.00  Pwcrit= 2.50%
#  S02=0.950  Temp=   0.00  Debye_temp=   0.00  Global_sig2= 0.00000
#  Energy zero shift, vr, vi    0.00000E+00   0.00000E+00
#  Curved wave amplitude ratio filter   4.000%
#     file         sig2 tot  cw amp ratio   deg  nlegs   reff  inp sig2
#     0/   0 paths used
#  xsedge+ 50, used to normalize mu           2.4785E-04
#  -----------------------------------------------------------------------
#  omega    e    k    mu    mu0     chi     @#
    8983.728    -12.182  -1.000  3.77866E-02  5.08082E-02 -1.30217E-02
    8984.026    -11.883  -0.960  3.96815E-02  5.44065E-02 -1.47250E-02
    8984.313    -11.597  -0.920  4.17010E-02  5.83972E-02 -1.66962E-02
    8984.587    -11.323  -0.880  4.38553E-02  6.28373E-02 -1.89821E-02
    8984.849    -11.060  -0.840  4.61554E-02  6.77932E-02 -2.16378E-02
    8985.099    -10.811  -0.800  4.86136E-02  7.33418E-02 -2.47281E-02
    8985.337    -10.573  -0.760  5.12429E-02  7.95711E-02 -2.83282E-02
    8985.563    -10.347  -0.720  5.40568E-02  8.65806E-02 -3.25238E-02
    8985.776    -10.134  -0.680  5.70690E-02  9.44796E-02 -3.74106E-02
    8985.977     -9.933  -0.640  6.02925E-02  1.03383E-01 -4.30909E-02
    8986.166     -9.744  -0.600  6.37378E-02  1.13405E-01 -4.96674E-02
    8986.343     -9.567  -0.560  6.74104E-02  1.24641E-01 -5.72306E-02
    8986.507     -9.402  -0.520  7.13070E-02  1.37148E-01 -6.58406E-02
    8986.660     -9.250  -0.480  7.54103E-02  1.50911E-01 -7.55005E-02
    8986.800     -9.110  -0.440  7.96838E-02  1.65810E-01 -8.61267E-02
    8986.928     -8.982  -0.400  8.40665E-02  1.81589E-01 -9.75223E-02
    8987.044     -8.866  -0.360  8.84725E-02  1.97842E-01 -1.09369E-01
    8987.148     -8.762  -0.320  9.27949E-02  2.14045E-01 -1.21250E-01
    8987.239     -8.671  -0.280  9.69162E-02  2.29614E-01 -1.32698E-01
    8987.318     -8.592  -0.240  1.00721E-01  2.43989E-01 -1.43268E-01
    8987.385     -8.525  -0.200  1.04106E-01  2.56697E-01 -1.52591E-01
    8987.440     -8.470  -0.160  1.06988E-01  2.67391E-01 -1.60403E-01
    8987.483     -8.427  -0.120  1.09301E-01  2.75849E-01 -1.66548E-01
    8987.513     -8.397  -0.080  1.10997E-01  2.81945E-01 -1.70948E-01
    8987.538     -8.372   0.000  1.12402E-01  2.86845E-01 -1.74443E-01
    8987.593     -8.317   0.120  1.15613E-01  2.97907E-01 -1.82294E-01
    8987.635     -8.275   0.160  1.18089E-01  3.06501E-01 -1.88411E-01
    8987.690     -8.220   0.200  1.21319E-01  3.17484E-01 -1.96165E-01
    8987.757     -8.153   0.240  1.25347E-01  3.30736E-01 -2.05390E-01
    8987.836     -8.073   0.280  1.30163E-01  3.45948E-01 -2.15785E-01
    8987.928     -7.982   0.320  1.35925E-01  3.62810E-01 -2.26885E-01
    8988.031     -7.878   0.360  1.42686E-01  3.80821E-01 -2.38135E-01
    8988.147     -7.763   0.400  1.50613E-01  3.99490E-01 -2.48877E-01
    8988.275     -7.635   0.440  1.59889E-01  4.18348E-01 -2.58459E-01
    8988.416     -7.494   0.480  1.70788E-01  4.37066E-01 -2.66278E-01
    8988.568     -7.342   0.520  1.83583E-01  4.55406E-01 -2.71823E-01
    8988.733     -7.177   0.560  1.98506E-01  4.73245E-01 -2.74739E-01
    8988.909     -7.001   0.600  2.15686E-01  4.90594E-01 -2.74908E-01
    8989.098     -6.812   0.640  2.34891E-01  5.07444E-01 -2.72553E-01
    8989.299     -6.610   0.680  2.55771E-01  5.23914E-01 -2.68143E-01
    8989.513     -6.397   0.720  2.77858E-01  5.40039E-01 -2.62181E-01
    8989.738     -6.172   0.760  3.01067E-01  5.55929E-01 -2.54862E-01
    8989.976     -5.934   0.800  3.25410E-01  5.71647E-01 -2.46236E-01
    8990.226     -5.684   0.840  3.50430E-01  5.87203E-01 -2.36772E-01
    8990.488     -5.422   0.880  3.75278E-01  6.02698E-01 -2.27419E-01
    8990.762     -5.147   0.920  3.99632E-01  6.18138E-01 -2.18506E-01
    8991.049     -4.861   0.960  4.24813E-01  6.33517E-01 -2.08704E-01
    8991.348     -4.562   1.000  4.53121E-01  6.48862E-01 -1.95741E-01
    8991.659     -4.251   1.040  4.85496E-01  6.64152E-01 -1.78656E-01
    8991.982     -3.928   1.080  5.19847E-01  6.79395E-01 -1.59549E-01
    8992.317     -3.593   1.120  5.51569E-01  6.94561E-01 -1.42992E-01
    8992.664     -3.245   1.160  5.77253E-01  7.09648E-01 -1.32395E-01
    8993.024     -2.886   1.200  5.98711E-01  7.24593E-01 -1.25883E-01
    8993.396     -2.514   1.240  6.24008E-01  7.39412E-01 -1.15405E-01
    8993.780     -2.130   1.280  6.65879E-01  7.54035E-01 -8.81560E-02
    8994.176     -1.734   1.320  7.35341E-01  7.68473E-01 -3.31320E-02
    8994.585     -1.325   1.360  8.32187E-01  7.82653E-01  4.95342E-02
    8995.005     -0.905   1.400  9.41423E-01  7.96544E-01  1.44879E-01
    8995.438     -0.472   1.440  1.03138E+00  8.10135E-01  2.21250E-01
    8995.883     -0.027   1.480  1.06698E+00  8.23414E-01  2.43562E-01
    8996.340      0.430   1.520  1.05827E+00  8.36308E-01  2.21967E-01
    8996.810      0.900   1.560  1.05388E+00  8.48806E-01  2.05072E-01
    8997.291      1.381   1.600  1.07310E+00  8.60899E-01  2.12203E-01
    8997.785      1.875   1.640  1.09210E+00  8.72537E-01  2.19561E-01
    8998.291      2.381   1.680  1.09291E+00  8.83732E-01  2.09183E-01
    8998.809      2.899   1.720  1.08567E+00  8.94458E-01  1.91210E-01
    8999.340      3.430   1.760  1.08250E+00  9.04688E-01  1.77814E-01
    8999.882      3.972   1.800  1.08163E+00  9.14438E-01  1.67195E-01
    9000.437      4.527   1.840  1.07419E+00  9.23666E-01  1.50523E-01
    9001.004      5.094   1.880  1.05541E+00  9.32390E-01  1.23020E-01
    9001.583      5.673   1.920  1.02952E+00  9.40588E-01  8.89333E-02
    9002.174      6.264   1.960  1.01286E+00  9.48303E-01  6.45583E-02
    9002.778      6.868   2.000  1.02394E+00  9.55497E-01  6.84423E-02
    9003.393      7.483   2.040  1.05415E+00  9.62171E-01  9.19828E-02
    9004.021      8.111   2.080  1.06058E+00  9.68373E-01  9.22070E-02
    9004.661      8.751   2.120  1.02005E+00  9.74086E-01  4.59666E-02
    9005.314      9.404   2.160  9.61578E-01  9.79337E-01 -1.77590E-02
    9005.978     10.068   2.200  9.19335E-01  9.84112E-01 -6.47768E-02
    9006.655     10.745   2.240  9.07512E-01  9.88439E-01 -8.09270E-02
    9007.344     11.434   2.280  9.28062E-01  9.92347E-01 -6.42852E-02
    9008.045     12.135   2.320  9.76566E-01  9.95845E-01 -1.92790E-02
    9008.758     12.848   2.360  1.04051E+00  9.98961E-01  4.15466E-02
    9009.483     13.573   2.400  1.09032E+00  1.00168E+00  8.86401E-02
    9010.221     14.311   2.440  1.10029E+00  1.00404E+00  9.62422E-02
    9010.971     15.061   2.480  1.07999E+00  1.00607E+00  7.39240E-02
    9011.733     15.823   2.520  1.05194E+00  1.00777E+00  4.41678E-02
    9012.507     16.597   2.560  1.03218E+00  1.00918E+00  2.29973E-02
    9013.293     17.383   2.600  1.02109E+00  1.01031E+00  1.07774E-02
    9014.092     18.182   2.640  1.01640E+00  1.01119E+00  5.21269E-03
    9014.903     18.993   2.680  1.01492E+00  1.01181E+00  3.10347E-03
    9015.725     19.816   2.720  1.01444E+00  1.01221E+00  2.22868E-03
    9016.561     20.651   2.760  1.01371E+00  1.01240E+00  1.31077E-03
    9017.408     21.498   2.800  1.01251E+00  1.01241E+00  9.85003E-05
    9018.268     22.358   2.840  1.01064E+00  1.01226E+00 -1.62344E-03
    9019.139     23.229   2.880  1.00779E+00  1.01195E+00 -4.15451E-03
    9020.023     24.113   2.920  1.00398E+00  1.01148E+00 -7.49944E-03
    9020.919     25.009   2.960  9.99508E-01  1.01091E+00 -1.14037E-02
    9021.828     25.918   3.000  9.94842E-01  1.01021E+00 -1.53645E-02
    9022.748     26.838   3.040  9.90605E-01  1.00943E+00 -1.88271E-02
    9023.681     27.771   3.080  9.87091E-01  1.00858E+00 -2.14837E-02
    9024.626     28.716   3.120  9.84411E-01  1.00762E+00 -2.32096E-02
    9025.583     29.673   3.160  9.82538E-01  1.00664E+00 -2.40991E-02
    9026.552     30.642   3.200  9.81196E-01  1.00559E+00 -2.43941E-02
    9027.533     31.624   3.240  9.80258E-01  1.00452E+00 -2.42657E-02
    9028.527     32.617   3.280  9.79344E-01  1.00342E+00 -2.40804E-02
    9029.533     33.623   3.320  9.77740E-01  1.00231E+00 -2.45744E-02
    9030.551     34.641   3.360  9.74856E-01  1.00118E+00 -2.63232E-02
    9031.581     35.671   3.400  9.70927E-01  1.00006E+00 -2.91372E-02
    9032.624     36.714   3.440  9.66874E-01  9.98952E-01 -3.20776E-02
    9033.678     37.768   3.480  9.63829E-01  9.97844E-01 -3.40151E-02
    9034.745     38.835   3.520  9.62584E-01  9.96765E-01 -3.41818E-02
    9035.824     39.914   3.560  9.63172E-01  9.95698E-01 -3.25262E-02
    9036.915     41.005   3.600  9.65202E-01  9.94664E-01 -2.94612E-02
    9038.018     42.109   3.640  9.67987E-01  9.93667E-01 -2.56802E-02
    9039.134     43.224   3.680  9.70601E-01  9.92711E-01 -2.21097E-02
    9040.262     44.352   3.720  9.72081E-01  9.91794E-01 -1.97136E-02
    9041.402     45.492   3.760  9.71730E-01  9.90941E-01 -1.92108E-02
    9042.554     46.644   3.800  9.69207E-01  9.90111E-01 -2.09048E-02
    9043.718     47.808   3.840  9.64850E-01  9.89346E-01 -2.44965E-02
    9044.895     48.985   3.880  9.59543E-01  9.88627E-01 -2.90838E-02
    9046.083     50.174   3.920  9.54678E-01  9.87975E-01 -3.32973E-02
    9047.284     51.374   3.960  9.51800E-01  9.87369E-01 -3.55687E-02
    9048.497     52.588   4.000  9.52150E-01  9.86810E-01 -3.46602E-02
    9049.723     53.813   4.040  9.56180E-01  9.86320E-01 -3.01405E-02
    9050.960     55.050   4.080  9.63331E-01  9.85879E-01 -2.25481E-02
    9052.210     56.300   4.120  9.72448E-01  9.85506E-01 -1.30573E-02
    9053.472     57.562   4.160  9.82418E-01  9.85180E-01 -2.76149E-03
    9054.746     58.836   4.200  9.92675E-01  9.84923E-01  7.75191E-03
    9056.032     60.122   4.240  1.00290E+00  9.84712E-01  1.81930E-02
    9057.331     61.421   4.280  1.01269E+00  9.84544E-01  2.81495E-02
    9058.641     62.731   4.320  1.02131E+00  9.84422E-01  3.68855E-02
    9059.964     64.054   4.360  1.02806E+00  9.84366E-01  4.36903E-02
    9061.299     65.389   4.400  1.03294E+00  9.84356E-01  4.85833E-02
    9062.646     66.736   4.440  1.03681E+00  9.84409E-01  5.24031E-02
    9064.006     68.096   4.480  1.04041E+00  9.84482E-01  5.59251E-02
    9065.377     69.467   4.520  1.04348E+00  9.84596E-01  5.88804E-02
    9066.761     70.851   4.560  1.04471E+00  9.84770E-01  5.99414E-02
    9068.157     72.247   4.600  1.04247E+00  9.84960E-01  5.75125E-02
    9069.565     73.655   4.640  1.03592E+00  9.85186E-01  5.07309E-02
    9070.985     75.076   4.680  1.02530E+00  9.85449E-01  3.98479E-02
    9072.418     76.508   4.720  1.01181E+00  9.85747E-01  2.60641E-02
    9073.863     77.953   4.760  9.97103E-01  9.86055E-01  1.10472E-02
    9075.320     79.410   4.800  9.82858E-01  9.86396E-01 -3.53818E-03
    9076.789     80.879   4.840  9.70464E-01  9.86768E-01 -1.63034E-02
    9078.270     82.360   4.880  9.61005E-01  9.87124E-01 -2.61188E-02
    9079.764     83.854   4.920  9.55465E-01  9.87529E-01 -3.20637E-02
    9081.269     85.360   4.960  9.54299E-01  9.87917E-01 -3.36175E-02
    9082.787     86.877   5.000  9.57393E-01  9.88330E-01 -3.09365E-02
    9084.317     88.408   5.040  9.63812E-01  9.88743E-01 -2.49312E-02
    9085.860     89.950   5.080  9.72221E-01  9.89134E-01 -1.69127E-02
    9087.414     91.504   5.120  9.81615E-01  9.89546E-01 -7.93070E-03
    9088.981     93.071   5.160  9.91536E-01  9.89956E-01  1.57988E-03
    9090.560     94.650   5.200  1.00192E+00  9.90341E-01  1.15759E-02
    9092.151     96.241   5.240  1.01255E+00  9.90743E-01  2.18066E-02
    9093.754     97.844   5.280  1.02270E+00  9.91116E-01  3.15882E-02
    9095.369     99.460   5.320  1.03119E+00  9.91458E-01  3.97334E-02
    9096.997    101.087   5.360  1.03644E+00  9.91791E-01  4.46479E-02
    9098.637    102.727   5.400  1.03687E+00  9.92117E-01  4.47497E-02
    9100.289    104.379   5.440  1.03173E+00  9.92408E-01  3.93190E-02
    9101.953    106.043   5.480  1.02187E+00  9.92666E-01  2.92030E-02
    9103.629    107.720   5.520  1.00965E+00  9.92911E-01  1.67398E-02
    9105.318    109.408   5.560  9.97903E-01  9.93121E-01  4.78149E-03
    9107.019    111.109   5.600  9.88644E-01  9.93296E-01 -4.65270E-03
    9108.732    112.822   5.640  9.82157E-01  9.93458E-01 -1.13015E-02
    9110.457    114.547   5.680  9.77195E-01  9.93584E-01 -1.63892E-02
    9112.194    116.284   5.720  9.72285E-01  9.93672E-01 -2.13868E-02
    9113.944    118.034   5.760  9.66799E-01  9.93721E-01 -2.69213E-02
    9115.706    119.796   5.800  9.60965E-01  9.93730E-01 -3.27645E-02
    9117.479    121.570   5.840  9.55345E-01  9.93701E-01 -3.83554E-02
    9119.266    123.356   5.880  9.50358E-01  9.93635E-01 -4.32775E-02
    9121.064    125.154   5.920  9.46033E-01  9.93556E-01 -4.75226E-02
    9122.874    126.965   5.960  9.42106E-01  9.93412E-01 -5.13055E-02
    9124.697    128.787   6.000  9.38711E-01  9.93235E-01 -5.45240E-02
