# # comment:                                                     FEFF 9.9.1  
# # Source:
# # Structure
# # Reduced
# # space
# # abc:
# # angles:
# # sites:
# # POT  SCF 100  7.0000   0, screened core-hole, AFOLP (folp(0)= 1.150)
# # Abs   Z=29 Rmt= 1.208 Rnm= 1.297 K  shell
# # Pot 1 Z=56 Rmt= 2.040 Rnm= 2.071
# # Pot 2 Z=13 Rmt= 1.232 Rnm= 1.346
# # Pot 3 Z=29 Rmt= 1.208 Rnm= 1.297
# # Pot 4 Z= 8 Rmt= 1.007 Rnm= 1.088
# # Gam_ch=1.729E+00 H-L exch Vi= 0.000E+00 Vr= 0.000E+00
# # Mu=-7.901E+00eV kf=2.190E+00 Vint=-1.617E+01eV Rs_int= 1.656
# FMS rfms= 9.0000
# # PATH  Rmax=-1.000,  Keep_limit= 0.00, Heap_limit 0.00  Pwcrit= 2.50%
#  S02=0.950  Temp=   0.00  Debye_temp=   0.00  Global_sig2= 0.00000
#  Energy zero shift, vr, vi    0.00000E+00   0.00000E+00
#  Curved wave amplitude ratio filter   4.000%
#     file         sig2 tot  cw amp ratio   deg  nlegs   reff  inp sig2
#     0/   0 paths used
#  xsedge+ 50, used to normalize mu           2.4381E-04
#  -----------------------------------------------------------------------
#  omega    e    k    mu    mu0     chi     @#
    8984.231    -11.711  -1.000  3.26062E-02  5.50888E-02 -2.24826E-02
    8984.530    -11.413  -0.960  3.39909E-02  5.91054E-02 -2.51145E-02
    8984.816    -11.126  -0.920  3.54471E-02  6.35685E-02 -2.81214E-02
    8985.091    -10.852  -0.880  3.69794E-02  6.85435E-02 -3.15641E-02
    8985.353    -10.590  -0.840  3.85928E-02  7.41069E-02 -3.55142E-02
    8985.603    -10.340  -0.800  4.02923E-02  8.03470E-02 -4.00547E-02
    8985.840    -10.102  -0.760  4.20838E-02  8.73651E-02 -4.52812E-02
    8986.066     -9.876  -0.720  4.39730E-02  9.52755E-02 -5.13025E-02
    8986.279     -9.663  -0.680  4.59658E-02  1.04204E-01 -5.82387E-02
    8986.481     -9.462  -0.640  4.80674E-02  1.14285E-01 -6.62173E-02
    8986.670     -9.273  -0.600  5.02818E-02  1.25647E-01 -7.53649E-02
    8986.846     -9.096  -0.560  5.26101E-02  1.38402E-01 -8.57917E-02
    8987.011     -8.932  -0.520  5.50482E-02  1.52616E-01 -9.75676E-02
    8987.163     -8.779  -0.480  5.75844E-02  1.68274E-01 -1.10689E-01
    8987.303     -8.639  -0.440  6.01958E-02  1.85238E-01 -1.25043E-01
    8987.432     -8.511  -0.400  6.28456E-02  2.03215E-01 -1.40369E-01
    8987.547     -8.395  -0.360  6.54834E-02  2.21741E-01 -1.56257E-01
    8987.651     -8.291  -0.320  6.80474E-02  2.40214E-01 -1.72167E-01
    8987.742     -8.200  -0.280  7.04718E-02  2.57967E-01 -1.87495E-01
    8987.822     -8.121  -0.240  7.26936E-02  2.74357E-01 -2.01663E-01
    8987.889     -8.054  -0.200  7.46591E-02  2.88844E-01 -2.14184E-01
    8987.944     -7.999  -0.160  7.63253E-02  3.01033E-01 -2.24707E-01
    8987.986     -7.956  -0.120  7.76599E-02  3.10671E-01 -2.33011E-01
    8988.017     -7.926  -0.080  7.86398E-02  3.17616E-01 -2.38976E-01
    8988.041     -7.901   0.000  7.94658E-02  3.23197E-01 -2.43731E-01
    8988.096     -7.846   0.120  8.14623E-02  3.35773E-01 -2.54311E-01
    8988.139     -7.804   0.160  8.29365E-02  3.45558E-01 -2.62621E-01
    8988.194     -7.749   0.200  8.47952E-02  3.58055E-01 -2.73260E-01
    8988.261     -7.682   0.240  8.70672E-02  3.73101E-01 -2.86034E-01
    8988.340     -7.603   0.280  8.97047E-02  3.90382E-01 -3.00677E-01
    8988.431     -7.511   0.320  9.27283E-02  4.09488E-01 -3.16760E-01
    8988.535     -7.408   0.360  9.61445E-02  4.29843E-01 -3.33698E-01
    8988.651     -7.292   0.400  1.00004E-01  4.50896E-01 -3.50892E-01
    8988.779     -7.164   0.440  1.04350E-01  4.72104E-01 -3.67754E-01
    8988.919     -7.023   0.480  1.09351E-01  4.93063E-01 -3.83712E-01
    8989.071     -6.871   0.520  1.15136E-01  5.13473E-01 -3.98337E-01
    8989.236     -6.707   0.560  1.21960E-01  5.33215E-01 -4.11255E-01
    8989.413     -6.530   0.600  1.30164E-01  5.52274E-01 -4.22111E-01
    8989.602     -6.341   0.640  1.40161E-01  5.70685E-01 -4.30524E-01
    8989.803     -6.140   0.680  1.52471E-01  5.88497E-01 -4.36027E-01
    8990.016     -5.926   0.720  1.67702E-01  6.05816E-01 -4.38113E-01
    8990.242     -5.701   0.760  1.86560E-01  6.22723E-01 -4.36163E-01
    8990.479     -5.463   0.800  2.09595E-01  6.39270E-01 -4.29676E-01
    8990.729     -5.213   0.840  2.37022E-01  6.55538E-01 -4.18516E-01
    8990.992     -4.951   0.880  2.67698E-01  6.71571E-01 -4.03873E-01
    8991.266     -4.677   0.920  2.98086E-01  6.87379E-01 -3.89293E-01
    8991.552     -4.390   0.960  3.24184E-01  7.02983E-01 -3.78799E-01
    8991.851     -4.091   1.000  3.45285E-01  7.18372E-01 -3.73087E-01
    8992.162     -3.780   1.040  3.64521E-01  7.33588E-01 -3.69066E-01
    8992.485     -3.457   1.080  3.85366E-01  7.48559E-01 -3.63193E-01
    8992.820     -3.122   1.120  4.09040E-01  7.63314E-01 -3.54274E-01
    8993.168     -2.775   1.160  4.33255E-01  7.77796E-01 -3.44540E-01
    8993.527     -2.415   1.200  4.54162E-01  7.92002E-01 -3.37840E-01
    8993.899     -2.043   1.240  4.71680E-01  8.05887E-01 -3.34207E-01
    8994.283     -1.659   1.280  4.89456E-01  8.19446E-01 -3.29990E-01
    8994.680     -1.263   1.320  5.09847E-01  8.32631E-01 -3.22784E-01
    8995.088     -0.854   1.360  5.32575E-01  8.45412E-01 -3.12837E-01
    8995.509     -0.434   1.400  5.56942E-01  8.57783E-01 -3.00841E-01
    8995.941     -0.001   1.440  5.86304E-01  8.69695E-01 -2.83391E-01
    8996.386      0.444   1.480  6.25945E-01  8.81141E-01 -2.55196E-01
    8996.844      0.901   1.520  6.82736E-01  8.92114E-01 -2.09377E-01
    8997.313      1.371   1.560  7.60081E-01  9.02568E-01 -1.42487E-01
    8997.795      1.852   1.600  8.49276E-01  9.12521E-01 -6.32446E-02
    8998.288      2.346   1.640  9.44247E-01  9.21927E-01  2.23202E-02
    8998.794      2.852   1.680  1.04765E+00  9.30828E-01  1.16819E-01
    8999.313      3.370   1.720  1.15199E+00  9.39182E-01  2.12811E-01
    8999.843      3.900   1.760  1.24806E+00  9.46990E-01  3.01067E-01
    9000.385      4.443   1.800  1.33497E+00  9.54296E-01  3.80674E-01
    9000.940      4.998   1.840  1.40210E+00  9.61042E-01  4.41055E-01
    9001.507      5.565   1.880  1.42921E+00  9.67295E-01  4.61911E-01
    9002.086      6.144   1.920  1.41435E+00  9.73042E-01  4.41306E-01
    9002.678      6.735   1.960  1.37852E+00  9.78288E-01  4.00227E-01
    9003.281      7.339   2.000  1.34281E+00  9.83043E-01  3.59771E-01
    9003.897      7.954   2.040  1.30756E+00  9.87356E-01  3.20205E-01
    9004.525      8.582   2.080  1.26273E+00  9.91214E-01  2.71520E-01
    9005.165      9.222   2.120  1.21210E+00  9.94650E-01  2.17453E-01
    9005.817      9.875   2.160  1.17070E+00  9.97676E-01  1.73024E-01
    9006.481     10.539   2.200  1.15017E+00  1.00034E+00  1.49827E-01
    9007.158     11.216   2.240  1.14672E+00  1.00262E+00  1.44105E-01
    9007.847     11.905   2.280  1.14606E+00  1.00457E+00  1.41487E-01
    9008.548     12.606   2.320  1.13431E+00  1.00618E+00  1.28126E-01
    9009.261     13.319   2.360  1.10653E+00  1.00752E+00  9.90150E-02
    9009.987     14.044   2.400  1.07859E+00  1.00857E+00  7.00266E-02
    9010.724     14.782   2.440  1.07289E+00  1.00937E+00  6.35202E-02
    9011.474     15.532   2.480  1.08828E+00  1.00994E+00  7.83397E-02
    9012.236     16.294   2.520  1.10893E+00  1.01031E+00  9.86205E-02
    9013.010     17.068   2.560  1.13409E+00  1.01045E+00  1.23634E-01
    9013.797     17.854   2.600  1.15917E+00  1.01045E+00  1.48729E-01
    9014.595     18.653   2.640  1.16252E+00  1.01028E+00  1.52244E-01
    9015.406     19.464   2.680  1.14184E+00  1.00998E+00  1.31863E-01
    9016.229     20.286   2.720  1.10794E+00  1.00956E+00  9.83801E-02
    9017.064     21.122   2.760  1.07167E+00  1.00904E+00  6.26286E-02
    9017.911     21.969   2.800  1.03831E+00  1.00844E+00  2.98727E-02
    9018.771     22.828   2.840  1.00828E+00  1.00776E+00  5.18878E-04
    9019.643     23.700   2.880  9.80968E-01  1.00700E+00 -2.60370E-02
    9020.527     24.584   2.920  9.55818E-01  1.00623E+00 -5.04072E-02
    9021.423     25.480   2.960  9.33083E-01  1.00539E+00 -7.23026E-02
    9022.331     26.389   3.000  9.13595E-01  1.00453E+00 -9.09373E-02
    9023.251     27.309   3.040  8.97715E-01  1.00367E+00 -1.05957E-01
    9024.184     28.242   3.080  8.85414E-01  1.00281E+00 -1.17397E-01
    9025.129     29.187   3.120  8.76515E-01  1.00195E+00 -1.25436E-01
    9026.086     30.144   3.160  8.70375E-01  1.00112E+00 -1.30744E-01
    9027.055     31.113   3.200  8.66085E-01  1.00030E+00 -1.34212E-01
    9028.037     32.094   3.240  8.63037E-01  9.99508E-01 -1.36471E-01
    9029.030     33.088   3.280  8.60636E-01  9.98757E-01 -1.38120E-01
    9030.036     34.094   3.320  8.58736E-01  9.98044E-01 -1.39308E-01
    9031.054     35.112   3.360  8.57734E-01  9.97373E-01 -1.39639E-01
    9032.085     36.142   3.400  8.58322E-01  9.96745E-01 -1.38423E-01
    9033.127     37.185   3.440  8.61212E-01  9.96162E-01 -1.34950E-01
    9034.182     38.239   3.480  8.67119E-01  9.95650E-01 -1.28531E-01
    9035.248     39.306   3.520  8.76516E-01  9.95209E-01 -1.18693E-01
    9036.327     40.385   3.560  8.89200E-01  9.94817E-01 -1.05617E-01
    9037.419     41.476   3.600  9.04438E-01  9.94476E-01 -9.00382E-02
    9038.522     42.579   3.640  9.21056E-01  9.94229E-01 -7.31730E-02
    9039.637     43.695   3.680  9.37487E-01  9.94013E-01 -5.65253E-02
    9040.765     44.823   3.720  9.52479E-01  9.93891E-01 -4.14113E-02
    9041.905     45.963   3.760  9.65512E-01  9.93821E-01 -2.83092E-02
    9043.057     47.115   3.800  9.76902E-01  9.93824E-01 -1.69220E-02
    9044.222     48.279   3.840  9.87355E-01  9.93878E-01 -6.52322E-03
    9045.398     49.456   3.880  9.97552E-01  9.94004E-01  3.54876E-03
    9046.587     50.644   3.920  1.00764E+00  9.94178E-01  1.34595E-02
    9047.788     51.845   3.960  1.01721E+00  9.94424E-01  2.27868E-02
    9049.001     53.058   4.000  1.02583E+00  9.94719E-01  3.11115E-02
    9050.226     54.284   4.040  1.03338E+00  9.95082E-01  3.82960E-02
    9051.464     55.521   4.080  1.03983E+00  9.95492E-01  4.43394E-02
    9052.713     56.771   4.120  1.04510E+00  9.95945E-01  4.91539E-02
    9053.975     58.033   4.160  1.04909E+00  9.96441E-01  5.26476E-02
    9055.249     59.307   4.200  1.05196E+00  9.97000E-01  5.49596E-02
    9056.535     60.593   4.240  1.05418E+00  9.97579E-01  5.66016E-02
    9057.834     61.891   4.280  1.05655E+00  9.98218E-01  5.83299E-02
    9059.145     63.202   4.320  1.05957E+00  9.98871E-01  6.07005E-02
    9060.467     64.525   4.360  1.06337E+00  9.99557E-01  6.38150E-02
    9061.802     65.860   4.400  1.06758E+00  1.00026E+00  6.73289E-02
    9063.150     67.207   4.440  1.07165E+00  1.00098E+00  7.06691E-02
    9064.509     68.567   4.480  1.07502E+00  1.00174E+00  7.32788E-02
    9065.881     69.938   4.520  1.07725E+00  1.00251E+00  7.47431E-02
    9067.264     71.322   4.560  1.07817E+00  1.00328E+00  7.48908E-02
    9068.660     72.718   4.600  1.07765E+00  1.00404E+00  7.36035E-02
    9070.069     74.126   4.640  1.07557E+00  1.00481E+00  7.07628E-02
    9071.489     75.546   4.680  1.07178E+00  1.00558E+00  6.62047E-02
    9072.921     76.979   4.720  1.06610E+00  1.00634E+00  5.97657E-02
    9074.366     78.424   4.760  1.05860E+00  1.00709E+00  5.15064E-02
    9075.823     79.881   4.800  1.04973E+00  1.00782E+00  4.19098E-02
    9077.292     81.350   4.840  1.04028E+00  1.00854E+00  3.17455E-02
    9078.774     82.831   4.880  1.03105E+00  1.00924E+00  2.18105E-02
    9080.267     84.325   4.920  1.02256E+00  1.00989E+00  1.26684E-02
    9081.773     85.830   4.960  1.01498E+00  1.01052E+00  4.45706E-03
    9083.291     87.348   5.000  1.00813E+00  1.01112E+00 -2.98721E-03
    9084.821     88.878   5.040  1.00185E+00  1.01170E+00 -9.85296E-03
    9086.363     90.421   5.080  9.96134E-01  1.01222E+00 -1.60829E-02
    9087.918     91.975   5.120  9.91201E-01  1.01269E+00 -2.14902E-02
    9089.484     93.542   5.160  9.87080E-01  1.01314E+00 -2.60653E-02
    9091.063     95.121   5.200  9.83555E-01  1.01353E+00 -2.99793E-02
    9092.654     96.712   5.240  9.80451E-01  1.01388E+00 -3.34260E-02
    9094.257     98.315   5.280  9.77831E-01  1.01417E+00 -3.63414E-02
    9095.873     99.930   5.320  9.75936E-01  1.01440E+00 -3.84632E-02
    9097.500    101.558   5.360  9.74714E-01  1.01458E+00 -3.98662E-02
    9099.140    103.198   5.400  9.73955E-01  1.01472E+00 -4.07601E-02
    9100.792    104.850   5.440  9.73329E-01  1.01481E+00 -4.14782E-02
    9102.456    106.514   5.480  9.72614E-01  1.01485E+00 -4.22383E-02
    9104.133    108.190   5.520  9.71781E-01  1.01483E+00 -4.30454E-02
    9105.821    109.879   5.560  9.71013E-01  1.01475E+00 -4.37400E-02
    9107.522    111.580   5.600  9.70499E-01  1.01461E+00 -4.41117E-02
    9109.235    113.293   5.640  9.70335E-01  1.01445E+00 -4.41115E-02
    9110.960    115.018   5.680  9.70655E-01  1.01422E+00 -4.35603E-02
    9112.698    116.755   5.720  9.71547E-01  1.01394E+00 -4.23891E-02
    9114.447    118.505   5.760  9.73262E-01  1.01359E+00 -4.03297E-02
    9116.209    120.267   5.800  9.76132E-01  1.01323E+00 -3.70976E-02
    9117.983    122.040   5.840  9.80251E-01  1.01281E+00 -3.25540E-02
    9119.769    123.827   5.880  9.85565E-01  1.01237E+00 -2.68007E-02
    9121.567    125.625   5.920  9.91689E-01  1.01187E+00 -2.01796E-02
    9123.378    127.435   5.960  9.98098E-01  1.01136E+00 -1.32633E-02
    9125.201    129.258   6.000  1.00404E+00  1.01076E+00 -6.72065E-03
