# # comment:                                                     FEFF 9.9.1  
# # Source:
# # Structure
# # Reduced
# # space
# # abc:
# # angles:
# # sites:
# # POT  SCF 100  7.0000   0, screened core-hole, AFOLP (folp(0)= 1.150)
# # Abs   Z=29 Rmt= 1.310 Rnm= 1.381 K  shell
# # Pot 1 Z= 3 Rmt= 1.313 Rnm= 1.367
# # Pot 2 Z=29 Rmt= 1.311 Rnm= 1.381
# # Pot 3 Z= 6 Rmt= 0.712 Rnm= 0.924
# # Pot 4 Z= 8 Rmt= 0.830 Rnm= 1.008
# # Gam_ch=1.729E+00 H-L exch Vi= 0.000E+00 Vr= 0.000E+00
# # Mu=-6.177E+00eV kf=2.584E+00 Vint=-1.770E+01eV Rs_int= 1.404
# FMS rfms= 9.0000
# # PATH  Rmax=-1.000,  Keep_limit= 0.00, Heap_limit 0.00  Pwcrit= 2.50%
#  S02=0.950  Temp=   0.00  Debye_temp=   0.00  Global_sig2= 0.00000
#  Energy zero shift, vr, vi    0.00000E+00   0.00000E+00
#  Curved wave amplitude ratio filter   4.000%
#     file         sig2 tot  cw amp ratio   deg  nlegs   reff  inp sig2
#     0/   0 paths used
#  xsedge+ 50, used to normalize mu           2.4756E-04
#  -----------------------------------------------------------------------
#  omega    e    k    mu    mu0     chi     @#
    8983.388     -9.986  -1.000  4.41455E-02  5.24296E-02 -8.28405E-03
    8983.686     -9.688  -0.960  4.67888E-02  5.62161E-02 -9.42735E-03
    8983.973     -9.401  -0.920  4.96709E-02  6.04248E-02 -1.07539E-02
    8984.247     -9.127  -0.880  5.28223E-02  6.51181E-02 -1.22959E-02
    8984.509     -8.865  -0.840  5.62778E-02  7.03691E-02 -1.40913E-02
    8984.759     -8.615  -0.800  6.00773E-02  7.62622E-02 -1.61849E-02
    8984.997     -8.377  -0.760  6.42662E-02  8.28946E-02 -1.86284E-02
    8985.222     -8.152  -0.720  6.88949E-02  9.03761E-02 -2.14811E-02
    8985.436     -7.938  -0.680  7.40184E-02  9.88277E-02 -2.48093E-02
    8985.637     -7.737  -0.640  7.96936E-02  1.08377E-01 -2.86837E-02
    8985.826     -7.548  -0.600  8.59754E-02  1.19151E-01 -3.31755E-02
    8986.003     -7.371  -0.560  9.29086E-02  1.31256E-01 -3.83473E-02
    8986.167     -7.207  -0.520  1.00516E-01  1.44757E-01 -4.42404E-02
    8986.320     -7.054  -0.480  1.08784E-01  1.59640E-01 -5.08558E-02
    8986.460     -6.914  -0.440  1.17640E-01  1.75774E-01 -5.81335E-02
    8986.588     -6.786  -0.400  1.26943E-01  1.92877E-01 -6.59338E-02
    8986.704     -6.670  -0.360  1.36471E-01  2.10504E-01 -7.40327E-02
    8986.807     -6.567  -0.320  1.45943E-01  2.28080E-01 -8.21375E-02
    8986.899     -6.475  -0.280  1.55039E-01  2.44964E-01 -8.99247E-02
    8986.978     -6.396  -0.240  1.63454E-01  2.60542E-01 -9.70889E-02
    8987.045     -6.329  -0.200  1.70919E-01  2.74302E-01 -1.03383E-01
    8987.100     -6.274  -0.160  1.77232E-01  2.85870E-01 -1.08639E-01
    8987.143     -6.231  -0.120  1.82247E-01  2.95010E-01 -1.12763E-01
    8987.173     -6.201  -0.080  1.85873E-01  3.01590E-01 -1.15717E-01
    8987.198     -6.177   0.000  1.88795E-01  3.06875E-01 -1.18081E-01
    8987.252     -6.122   0.120  1.95598E-01  3.18778E-01 -1.23180E-01
    8987.295     -6.079   0.160  2.00882E-01  3.28025E-01 -1.27144E-01
    8987.350     -6.024   0.200  2.07695E-01  3.39834E-01 -1.32139E-01
    8987.417     -5.957   0.240  2.15956E-01  3.53993E-01 -1.38037E-01
    8987.496     -5.878   0.280  2.25644E-01  3.70243E-01 -1.44600E-01
    8987.588     -5.786   0.320  2.36595E-01  3.88129E-01 -1.51535E-01
    8987.691     -5.683   0.360  2.48642E-01  4.07097E-01 -1.58455E-01
    8987.807     -5.567   0.400  2.61642E-01  4.26599E-01 -1.64957E-01
    8987.935     -5.439   0.440  2.75420E-01  4.46118E-01 -1.70698E-01
    8988.075     -5.299   0.480  2.89789E-01  4.65234E-01 -1.75445E-01
    8988.228     -5.146   0.520  3.04508E-01  4.83696E-01 -1.79189E-01
    8988.392     -4.982   0.560  3.19202E-01  5.01391E-01 -1.82189E-01
    8988.569     -4.805   0.600  3.33320E-01  5.18311E-01 -1.84991E-01
    8988.758     -4.616   0.640  3.46294E-01  5.34476E-01 -1.88182E-01
    8988.959     -4.415   0.680  3.58082E-01  5.50010E-01 -1.91928E-01
    8989.173     -4.201   0.720  3.69693E-01  5.65024E-01 -1.95331E-01
    8989.398     -3.976   0.760  3.83123E-01  5.79612E-01 -1.96489E-01
    8989.636     -3.738   0.800  4.00398E-01  5.93857E-01 -1.93458E-01
    8989.886     -3.488   0.840  4.22349E-01  6.07851E-01 -1.85502E-01
    8990.148     -3.226   0.880  4.48558E-01  6.21674E-01 -1.73116E-01
    8990.422     -2.952   0.920  4.78842E-01  6.35351E-01 -1.56509E-01
    8990.709     -2.665   0.960  5.14263E-01  6.48954E-01 -1.34691E-01
    8991.008     -2.367   1.000  5.55059E-01  6.62485E-01 -1.07425E-01
    8991.318     -2.056   1.040  5.97708E-01  6.75979E-01 -7.82713E-02
    8991.642     -1.733   1.080  6.35713E-01  6.89462E-01 -5.37493E-02
    8991.977     -1.397   1.120  6.65413E-01  7.02911E-01 -3.74986E-02
    8992.324     -1.050   1.160  6.88811E-01  7.16339E-01 -2.75280E-02
    8992.684     -0.690   1.200  7.08500E-01  7.29735E-01 -2.12355E-02
    8993.056     -0.318   1.240  7.24786E-01  7.43083E-01 -1.82972E-02
    8993.440      0.066   1.280  7.37893E-01  7.56363E-01 -1.84699E-02
    8993.836      0.462   1.320  7.49417E-01  7.69572E-01 -2.01550E-02
    8994.245      0.870   1.360  7.62936E-01  7.82666E-01 -1.97302E-02
    8994.665      1.291   1.400  7.81627E-01  7.95662E-01 -1.40348E-02
    8995.098      1.724   1.440  8.06625E-01  8.08487E-01 -1.86265E-03
    8995.543      2.169   1.480  8.40151E-01  8.21156E-01  1.89945E-02
    8996.000      2.626   1.520  8.84892E-01  8.33618E-01  5.12741E-02
    8996.470      3.095   1.560  9.41909E-01  8.45840E-01  9.60689E-02
    8996.951      3.577   1.600  1.00683E+00  8.57813E-01  1.49021E-01
    8997.445      4.071   1.640  1.06977E+00  8.69528E-01  2.00247E-01
    8997.951      4.577   1.680  1.12358E+00  8.80911E-01  2.42673E-01
    8998.469      5.095   1.720  1.16360E+00  8.91973E-01  2.71630E-01
    8998.999      5.625   1.760  1.18445E+00  9.02683E-01  2.81763E-01
    8999.542      6.168   1.800  1.17888E+00  9.13011E-01  2.65874E-01
    9000.097      6.723   1.840  1.15921E+00  9.22948E-01  2.36262E-01
    9000.664      7.290   1.880  1.14829E+00  9.32467E-01  2.15828E-01
    9001.243      7.869   1.920  1.14679E+00  9.41561E-01  2.05228E-01
    9001.834      8.460   1.960  1.13326E+00  9.50203E-01  1.83055E-01
    9002.437      9.063   2.000  1.09784E+00  9.58407E-01  1.39432E-01
    9003.053      9.679   2.040  1.05773E+00  9.66131E-01  9.16003E-02
    9003.681     10.307   2.080  1.02474E+00  9.73391E-01  5.13471E-02
    9004.321     10.947   2.120  9.99813E-01  9.80185E-01  1.96282E-02
    9004.973     11.599   2.160  9.89693E-01  9.86491E-01  3.20168E-03
    9005.638     12.264   2.200  1.00115E+00  9.92311E-01  8.84118E-03
    9006.315     12.940   2.240  1.02806E+00  9.97667E-01  3.03969E-02
    9007.003     13.629   2.280  1.05580E+00  1.00254E+00  5.32638E-02
    9007.704     14.330   2.320  1.08265E+00  1.00696E+00  7.56981E-02
    9008.418     15.044   2.360  1.11587E+00  1.01092E+00  1.04955E-01
    9009.143     15.769   2.400  1.14760E+00  1.01443E+00  1.33164E-01
    9009.881     16.507   2.440  1.16302E+00  1.01752E+00  1.45497E-01
    9010.630     17.256   2.480  1.15872E+00  1.02018E+00  1.38543E-01
    9011.392     18.018   2.520  1.14103E+00  1.02245E+00  1.18577E-01
    9012.167     18.793   2.560  1.11630E+00  1.02433E+00  9.19787E-02
    9012.953     19.579   2.600  1.08729E+00  1.02583E+00  6.14677E-02
    9013.752     20.378   2.640  1.05275E+00  1.02697E+00  2.57872E-02
    9014.562     21.188   2.680  1.01408E+00  1.02778E+00 -1.37012E-02
    9015.385     22.011   2.720  9.80820E-01  1.02829E+00 -4.74696E-02
    9016.220     22.846   2.760  9.63485E-01  1.02849E+00 -6.50038E-02
    9017.068     23.694   2.800  9.63010E-01  1.02843E+00 -6.54196E-02
    9017.927     24.553   2.840  9.68000E-01  1.02812E+00 -6.01208E-02
    9018.799     25.425   2.880  9.65449E-01  1.02757E+00 -6.21233E-02
    9019.683     26.309   2.920  9.50162E-01  1.02679E+00 -7.66313E-02
    9020.579     27.205   2.960  9.27346E-01  1.02584E+00 -9.84898E-02
    9021.487     28.113   3.000  9.11224E-01  1.02471E+00 -1.13487E-01
    9022.408     29.034   3.040  9.04981E-01  1.02345E+00 -1.18467E-01
    9023.341     29.967   3.080  9.04525E-01  1.02201E+00 -1.17488E-01
    9024.285     30.911   3.120  9.06730E-01  1.02050E+00 -1.13769E-01
    9025.243     31.868   3.160  9.10081E-01  1.01885E+00 -1.08773E-01
    9026.212     32.838   3.200  9.14395E-01  1.01715E+00 -1.02751E-01
    9027.193     33.819   3.240  9.19746E-01  1.01536E+00 -9.56176E-02
    9028.187     34.813   3.280  9.26136E-01  1.01354E+00 -8.73994E-02
    9029.193     35.819   3.320  9.33197E-01  1.01169E+00 -7.84927E-02
    9030.211     36.837   3.360  9.40435E-01  1.00979E+00 -6.93557E-02
    9031.241     37.867   3.400  9.47763E-01  1.00791E+00 -6.01449E-02
    9032.283     38.909   3.440  9.55324E-01  1.00603E+00 -5.07017E-02
    9033.338     39.964   3.480  9.63549E-01  1.00415E+00 -4.06014E-02
    9034.405     41.031   3.520  9.72980E-01  1.00231E+00 -2.93278E-02
    9035.484     42.110   3.560  9.83848E-01  1.00050E+00 -1.66549E-02
    9036.575     43.201   3.600  9.96018E-01  9.98742E-01 -2.72370E-03
    9037.678     44.304   3.640  1.00912E+00  9.97048E-01  1.20700E-02
    9038.794     45.420   3.680  1.02252E+00  9.95406E-01  2.71120E-02
    9039.922     46.548   3.720  1.03541E+00  9.93839E-01  4.15679E-02
    9041.062     47.688   3.760  1.04687E+00  9.92350E-01  5.45180E-02
    9042.214     48.840   3.800  1.05591E+00  9.90942E-01  6.49663E-02
    9043.378     50.004   3.840  1.06150E+00  9.89639E-01  7.18575E-02
    9044.555     51.181   3.880  1.06287E+00  9.88399E-01  7.44718E-02
    9045.743     52.369   3.920  1.05989E+00  9.87269E-01  7.26176E-02
    9046.944     53.570   3.960  1.05297E+00  9.86247E-01  6.67209E-02
    9048.157     54.783   4.000  1.04312E+00  9.85314E-01  5.78067E-02
    9049.383     56.009   4.040  1.03177E+00  9.84472E-01  4.72941E-02
    9050.620     57.246   4.080  1.02026E+00  9.83741E-01  3.65195E-02
    9051.870     58.496   4.120  1.00962E+00  9.83123E-01  2.64931E-02
    9053.132     59.758   4.160  1.00040E+00  9.82596E-01  1.77991E-02
    9054.406     61.032   4.200  9.92769E-01  9.82183E-01  1.05866E-02
    9055.692     62.318   4.240  9.86591E-01  9.81882E-01  4.70915E-03
    9056.990     63.616   4.280  9.81579E-01  9.81669E-01 -9.07768E-05
    9058.301     64.927   4.320  9.77477E-01  9.81545E-01 -4.06813E-03
    9059.624     66.250   4.360  9.74163E-01  9.81530E-01 -7.36706E-03
    9060.959     67.585   4.400  9.71680E-01  9.81601E-01 -9.92159E-03
    9062.306     68.932   4.440  9.70314E-01  9.81779E-01 -1.14655E-02
    9063.665     70.291   4.480  9.70380E-01  9.82019E-01 -1.16388E-02
    9065.037     71.663   4.520  9.72187E-01  9.82361E-01 -1.01738E-02
    9066.421     73.047   4.560  9.75697E-01  9.82782E-01 -7.08460E-03
    9067.817     74.443   4.600  9.80516E-01  9.83258E-01 -2.74198E-03
    9069.225     75.851   4.640  9.86002E-01  9.83807E-01  2.19454E-03
    9070.645     77.271   4.680  9.91402E-01  9.84429E-01  6.97360E-03
    9072.078     78.704   4.720  9.96060E-01  9.85098E-01  1.09615E-02
    9073.523     80.149   4.760  9.99596E-01  9.85813E-01  1.37835E-02
    9074.980     81.606   4.800  1.00193E+00  9.86591E-01  1.53423E-02
    9076.449     83.075   4.840  1.00313E+00  9.87388E-01  1.57405E-02
    9077.930     84.556   4.880  1.00338E+00  9.88243E-01  1.51352E-02
    9079.424     86.049   4.920  1.00275E+00  9.89110E-01  1.36395E-02
    9080.929     87.555   4.960  1.00128E+00  9.89984E-01  1.12932E-02
    9082.447     89.073   5.000  9.99006E-01  9.90884E-01  8.12223E-03
    9083.977     90.603   5.040  9.96026E-01  9.91785E-01  4.24067E-03
    9085.520     92.145   5.080  9.92546E-01  9.92663E-01 -1.16698E-04
    9087.074     93.700   5.120  9.88932E-01  9.93559E-01 -4.62768E-03
    9088.641     95.267   5.160  9.85427E-01  9.94428E-01 -9.00136E-03
    9090.220     96.845   5.200  9.82238E-01  9.95287E-01 -1.30487E-02
    9091.811     98.437   5.240  9.79448E-01  9.96111E-01 -1.66635E-02
    9093.414    100.040   5.280  9.77110E-01  9.96899E-01 -1.97888E-02
    9095.029    101.655   5.320  9.75295E-01  9.97668E-01 -2.23731E-02
    9096.657    103.283   5.360  9.73997E-01  9.98372E-01 -2.43754E-02
    9098.297    104.923   5.400  9.73257E-01  9.99031E-01 -2.57742E-02
    9099.949    106.575   5.440  9.73075E-01  9.99621E-01 -2.65459E-02
    9101.613    108.239   5.480  9.73578E-01  1.00018E+00 -2.66048E-02
    9103.289    109.915   5.520  9.74855E-01  1.00065E+00 -2.57969E-02
    9104.978    111.604   5.560  9.77115E-01  1.00107E+00 -2.39531E-02
    9106.679    113.305   5.600  9.80461E-01  1.00141E+00 -2.09477E-02
    9108.392    115.018   5.640  9.84901E-01  1.00169E+00 -1.67931E-02
    9110.117    116.743   5.680  9.90155E-01  1.00188E+00 -1.17268E-02
    9111.854    118.480   5.720  9.95816E-01  1.00201E+00 -6.19756E-03
    9113.604    120.230   5.760  1.00136E+00  1.00207E+00 -7.06445E-04
    9115.365    121.991   5.800  1.00641E+00  1.00204E+00  4.36245E-03
    9117.139    123.765   5.840  1.01072E+00  1.00194E+00  8.78142E-03
    9118.925    125.551   5.880  1.01417E+00  1.00176E+00  1.24095E-02
    9120.724    127.350   5.920  1.01662E+00  1.00150E+00  1.51165E-02
    9122.534    129.160   5.960  1.01789E+00  1.00115E+00  1.67406E-02
    9124.357    130.983   6.000  1.01776E+00  1.00067E+00  1.70852E-02
