# # comment:                                                     FEFF 9.9.1  
# # Source:
# # Structure
# # Reduced
# # space
# # abc:
# # angles:
# # sites:
# # POT  SCF 100  7.0000   0, screened core-hole, AFOLP (folp(0)= 1.150)
# # Abs   Z=29 Rmt= 1.176 Rnm= 1.289 K  shell
# # Pot 1 Z=56 Rmt= 1.936 Rnm= 1.988
# # Pot 2 Z=39 Rmt= 1.661 Rnm= 1.743
# # Pot 3 Z=29 Rmt= 1.176 Rnm= 1.289
# # Pot 4 Z= 8 Rmt= 1.062 Rnm= 1.113
# # Gam_ch=1.729E+00 H-L exch Vi= 0.000E+00 Vr= 0.000E+00
# # Mu=-8.694E+00eV kf=2.030E+00 Vint=-1.776E+01eV Rs_int= 1.787
# FMS rfms= 9.0000
# # PATH  Rmax=-1.000,  Keep_limit= 0.00, Heap_limit 0.00  Pwcrit= 2.50%
#  S02=0.950  Temp=   0.00  Debye_temp=   0.00  Global_sig2= 0.00000
#  Energy zero shift, vr, vi    0.00000E+00   0.00000E+00
#  Curved wave amplitude ratio filter   4.000%
#     file         sig2 tot  cw amp ratio   deg  nlegs   reff  inp sig2
#     0/   0 paths used
#  xsedge+ 50, used to normalize mu           2.4850E-04
#  -----------------------------------------------------------------------
#  omega    e    k    mu    mu0     chi     @#
    8984.275    -12.504  -1.000  3.48183E-02  5.24390E-02 -1.76207E-02
    8984.573    -12.206  -0.960  3.66296E-02  5.62116E-02 -1.95820E-02
    8984.860    -11.919  -0.920  3.85992E-02  6.04011E-02 -2.18019E-02
    8985.134    -11.645  -0.880  4.07503E-02  6.50689E-02 -2.43186E-02
    8985.396    -11.383  -0.840  4.31103E-02  7.02861E-02 -2.71758E-02
    8985.646    -11.133  -0.800  4.57119E-02  7.61354E-02 -3.04234E-02
    8985.884    -10.895  -0.760  4.85936E-02  8.27114E-02 -3.41178E-02
    8986.110    -10.669  -0.720  5.17996E-02  9.01212E-02 -3.83217E-02
    8986.323    -10.456  -0.680  5.53798E-02  9.84827E-02 -4.31029E-02
    8986.524    -10.255  -0.640  5.93883E-02  1.07920E-01 -4.85318E-02
    8986.713    -10.066  -0.600  6.38790E-02  1.18556E-01 -5.46766E-02
    8986.890     -9.889  -0.560  6.88993E-02  1.30493E-01 -6.15941E-02
    8987.054     -9.725  -0.520  7.44780E-02  1.43795E-01 -6.93171E-02
    8987.207     -9.572  -0.480  8.06102E-02  1.58447E-01 -7.78365E-02
    8987.347     -9.432  -0.440  8.72383E-02  1.74320E-01 -8.70812E-02
    8987.475     -9.304  -0.400  9.42372E-02  1.91138E-01 -9.69006E-02
    8987.591     -9.188  -0.360  1.01410E-01  2.08468E-01 -1.07058E-01
    8987.695     -9.084  -0.320  1.08502E-01  2.25747E-01 -1.17245E-01
    8987.786     -8.993  -0.280  1.15237E-01  2.42349E-01 -1.27112E-01
    8987.865     -8.914  -0.240  1.21361E-01  2.57673E-01 -1.36312E-01
    8987.932     -8.847  -0.200  1.26677E-01  2.71216E-01 -1.44539E-01
    8987.987     -8.792  -0.160  1.31062E-01  2.82608E-01 -1.51546E-01
    8988.030     -8.749  -0.120  1.34454E-01  2.91614E-01 -1.57160E-01
    8988.060     -8.719  -0.080  1.36839E-01  2.98102E-01 -1.61263E-01
    8988.085     -8.694   0.000  1.38668E-01  3.03314E-01 -1.64647E-01
    8988.140     -8.639   0.120  1.42989E-01  3.15075E-01 -1.72085E-01
    8988.182     -8.597   0.160  1.46285E-01  3.24226E-01 -1.77941E-01
    8988.237     -8.542   0.200  1.50336E-01  3.35883E-01 -1.85547E-01
    8988.304     -8.475   0.240  1.54971E-01  3.49910E-01 -1.94938E-01
    8988.383     -8.396   0.280  1.59905E-01  3.66048E-01 -2.06142E-01
    8988.475     -8.304   0.320  1.64727E-01  3.83849E-01 -2.19122E-01
    8988.578     -8.201   0.360  1.68994E-01  4.02807E-01 -2.33814E-01
    8988.694     -8.085   0.400  1.72330E-01  4.22402E-01 -2.50072E-01
    8988.822     -7.957   0.440  1.74452E-01  4.42104E-01 -2.67652E-01
    8988.962     -7.816   0.480  1.75379E-01  4.61551E-01 -2.86172E-01
    8989.115     -7.664   0.520  1.75395E-01  4.80462E-01 -3.05067E-01
    8989.279     -7.500   0.560  1.75083E-01  4.98766E-01 -3.23682E-01
    8989.456     -7.323   0.600  1.75077E-01  5.16393E-01 -3.41316E-01
    8989.645     -7.134   0.640  1.76044E-01  5.33419E-01 -3.57375E-01
    8989.846     -6.933   0.680  1.78466E-01  5.49894E-01 -3.71428E-01
    8990.060     -6.719   0.720  1.82721E-01  5.65941E-01 -3.83219E-01
    8990.285     -6.494   0.760  1.89052E-01  5.81621E-01 -3.92569E-01
    8990.523     -6.256   0.800  1.97779E-01  5.97007E-01 -3.99228E-01
    8990.773     -6.006   0.840  2.09432E-01  6.12201E-01 -4.02769E-01
    8991.035     -5.744   0.880  2.24662E-01  6.27229E-01 -4.02567E-01
    8991.309     -5.470   0.920  2.44196E-01  6.42106E-01 -3.97910E-01
    8991.596     -5.183   0.960  2.68385E-01  6.56893E-01 -3.88509E-01
    8991.895     -4.884   1.000  2.96543E-01  6.71585E-01 -3.75042E-01
    8992.206     -4.573   1.040  3.26599E-01  6.86186E-01 -3.59587E-01
    8992.529     -4.250   1.080  3.56705E-01  7.00691E-01 -3.43986E-01
    8992.864     -3.915   1.120  3.88955E-01  7.15112E-01 -3.26157E-01
    8993.211     -3.568   1.160  4.29398E-01  7.29394E-01 -2.99996E-01
    8993.571     -3.208   1.200  4.82685E-01  7.43559E-01 -2.60874E-01
    8993.943     -2.836   1.240  5.45933E-01  7.57543E-01 -2.11610E-01
    8994.327     -2.452   1.280  6.06235E-01  7.71364E-01 -1.65129E-01
    8994.723     -2.056   1.320  6.44723E-01  7.84954E-01 -1.40231E-01
    8995.132     -1.647   1.360  6.53446E-01  7.98324E-01 -1.44878E-01
    8995.552     -1.227   1.400  6.50584E-01  8.11429E-01 -1.60844E-01
    8995.985     -0.794   1.440  6.53257E-01  8.24237E-01 -1.70981E-01
    8996.430     -0.349   1.480  6.47304E-01  8.36719E-01 -1.89415E-01
    8996.887      0.108   1.520  6.24974E-01  8.48864E-01 -2.23890E-01
    8997.357      0.578   1.560  6.10322E-01  8.60646E-01 -2.50324E-01
    8997.838      1.059   1.600  6.30505E-01  8.72055E-01 -2.41550E-01
    8998.332      1.553   1.640  7.02726E-01  8.83044E-01 -1.80318E-01
    8998.838      2.059   1.680  8.27215E-01  8.93603E-01 -6.63878E-02
    8999.356      2.577   1.720  9.64568E-01  9.03707E-01  6.08608E-02
    8999.886      3.107   1.760  1.05545E+00  9.13394E-01  1.42054E-01
    9000.429      3.650   1.800  1.09816E+00  9.22597E-01  1.75561E-01
    9000.984      4.205   1.840  1.12930E+00  9.31335E-01  1.97970E-01
    9001.551      4.772   1.880  1.17888E+00  9.39606E-01  2.39274E-01
    9002.130      5.351   1.920  1.23103E+00  9.47387E-01  2.83647E-01
    9002.721      5.942   1.960  1.23673E+00  9.54682E-01  2.82048E-01
    9003.325      6.546   2.000  1.20662E+00  9.61512E-01  2.45107E-01
    9003.940      7.161   2.040  1.19572E+00  9.67879E-01  2.27846E-01
    9004.568      7.789   2.080  1.22477E+00  9.73786E-01  2.50987E-01
    9005.208      8.429   2.120  1.28774E+00  9.79219E-01  3.08516E-01
    9005.861      9.082   2.160  1.35775E+00  9.84204E-01  3.73550E-01
    9006.525      9.746   2.200  1.38828E+00  9.88764E-01  3.99521E-01
    9007.202     10.423   2.240  1.35857E+00  9.92908E-01  3.65657E-01
    9007.890     11.112   2.280  1.29268E+00  9.96622E-01  2.96057E-01
    9008.592     11.813   2.320  1.22589E+00  9.99954E-01  2.25938E-01
    9009.305     12.526   2.360  1.17783E+00  1.00291E+00  1.74922E-01
    9010.030     13.251   2.400  1.15036E+00  1.00548E+00  1.44878E-01
    9010.768     13.989   2.440  1.13766E+00  1.00774E+00  1.29923E-01
    9011.518     14.739   2.480  1.12600E+00  1.00965E+00  1.16349E-01
    9012.280     15.501   2.520  1.10791E+00  1.01124E+00  9.66682E-02
    9013.054     16.275   2.560  1.08684E+00  1.01256E+00  7.42861E-02
    9013.840     17.061   2.600  1.06655E+00  1.01360E+00  5.29550E-02
    9014.639     17.860   2.640  1.04856E+00  1.01436E+00  3.41943E-02
    9015.449     18.671   2.680  1.03270E+00  1.01491E+00  1.77942E-02
    9016.272     19.493   2.720  1.01901E+00  1.01522E+00  3.79432E-03
    9017.108     20.329   2.760  1.00762E+00  1.01532E+00 -7.70901E-03
    9017.955     21.176   2.800  9.98249E-01  1.01523E+00 -1.69825E-02
    9018.814     22.035   2.840  9.90481E-01  1.01499E+00 -2.45109E-02
    9019.686     22.907   2.880  9.83674E-01  1.01457E+00 -3.08961E-02
    9020.570     23.791   2.920  9.77291E-01  1.01402E+00 -3.67260E-02
    9021.466     24.687   2.960  9.70842E-01  1.01334E+00 -4.24969E-02
    9022.375     25.596   3.000  9.63985E-01  1.01254E+00 -4.85574E-02
    9023.295     26.516   3.040  9.56538E-01  1.01166E+00 -5.51173E-02
    9024.228     27.449   3.080  9.48524E-01  1.01068E+00 -6.21604E-02
    9025.173     28.394   3.120  9.40407E-01  1.00963E+00 -6.92268E-02
    9026.130     29.351   3.160  9.32386E-01  1.00851E+00 -7.61253E-02
    9027.099     30.320   3.200  9.24192E-01  1.00736E+00 -8.31705E-02
    9028.080     31.301   3.240  9.15061E-01  1.00615E+00 -9.10911E-02
    9029.074     32.295   3.280  9.04384E-01  1.00493E+00 -1.00541E-01
    9030.080     33.301   3.320  8.92222E-01  1.00367E+00 -1.11444E-01
    9031.098     34.319   3.360  8.79662E-01  1.00240E+00 -1.22738E-01
    9032.128     35.349   3.400  8.68468E-01  1.00113E+00 -1.32661E-01
    9033.170     36.392   3.440  8.59857E-01  9.99839E-01 -1.39981E-01
    9034.225     37.446   3.480  8.54502E-01  9.98593E-01 -1.44090E-01
    9035.292     38.513   3.520  8.52554E-01  9.97335E-01 -1.44781E-01
    9036.371     39.592   3.560  8.54129E-01  9.96128E-01 -1.41999E-01
    9037.462     40.683   3.600  8.59053E-01  9.94935E-01 -1.35883E-01
    9038.565     41.786   3.640  8.67402E-01  9.93777E-01 -1.26375E-01
    9039.681     42.902   3.680  8.79188E-01  9.92656E-01 -1.13468E-01
    9040.809     44.030   3.720  8.94020E-01  9.91554E-01 -9.75340E-02
    9041.949     45.170   3.760  9.11235E-01  9.90535E-01 -7.93004E-02
    9043.101     46.322   3.800  9.29883E-01  9.89538E-01 -5.96555E-02
    9044.265     47.486   3.840  9.48954E-01  9.88586E-01 -3.96314E-02
    9045.442     48.663   3.880  9.67566E-01  9.87701E-01 -2.01355E-02
    9046.630     49.851   3.920  9.85183E-01  9.86886E-01 -1.70279E-03
    9047.831     51.052   3.960  1.00151E+00  9.86117E-01  1.53882E-02
    9049.044     52.265   4.000  1.01635E+00  9.85396E-01  3.09542E-02
    9050.270     53.491   4.040  1.02950E+00  9.84744E-01  4.47514E-02
    9051.507     54.728   4.080  1.04053E+00  9.84141E-01  5.63885E-02
    9052.757     55.978   4.120  1.04891E+00  9.83607E-01  6.53018E-02
    9054.019     57.240   4.160  1.05421E+00  9.83122E-01  7.10919E-02
    9055.293     58.514   4.200  1.05645E+00  9.82706E-01  7.37445E-02
    9056.579     59.800   4.240  1.05616E+00  9.82338E-01  7.38234E-02
    9057.877     61.098   4.280  1.05448E+00  9.82040E-01  7.24381E-02
    9059.188     62.409   4.320  1.05263E+00  9.81789E-01  7.08379E-02
    9060.511     63.732   4.360  1.05153E+00  9.81584E-01  6.99443E-02
    9061.846     65.067   4.400  1.05157E+00  9.81449E-01  7.01174E-02
    9063.193     66.414   4.440  1.05270E+00  9.81381E-01  7.13199E-02
    9064.553     67.774   4.480  1.05450E+00  9.81336E-01  7.31675E-02
    9065.924     69.145   4.520  1.05634E+00  9.81356E-01  7.49866E-02
    9067.308     70.529   4.560  1.05732E+00  9.81420E-01  7.59028E-02
    9068.704     71.925   4.600  1.05649E+00  9.81526E-01  7.49615E-02
    9070.112     73.333   4.640  1.05305E+00  9.81694E-01  7.13545E-02
    9071.532     74.753   4.680  1.04656E+00  9.81880E-01  6.46842E-02
    9072.965     76.186   4.720  1.03740E+00  9.82102E-01  5.53024E-02
    9074.410     77.631   4.760  1.02660E+00  9.82362E-01  4.42335E-02
    9075.867     79.088   4.800  1.01550E+00  9.82656E-01  3.28394E-02
    9077.336     80.557   4.840  1.00518E+00  9.82962E-01  2.22201E-02
    9078.817     82.038   4.880  9.96172E-01  9.83301E-01  1.28709E-02
    9080.311     83.532   4.920  9.88506E-01  9.83671E-01  4.83512E-03
    9081.816     85.037   4.960  9.82207E-01  9.84050E-01 -1.84299E-03
    9083.334     86.555   5.000  9.77597E-01  9.84434E-01 -6.83756E-03
    9084.864     88.085   5.040  9.75114E-01  9.84846E-01 -9.73163E-03
    9086.407     89.628   5.080  9.74783E-01  9.85263E-01 -1.04803E-02
    9087.961     91.182   5.120  9.76243E-01  9.85706E-01 -9.46303E-03
    9089.528     92.749   5.160  9.78875E-01  9.86126E-01 -7.25081E-03
    9091.107     94.328   5.200  9.82162E-01  9.86545E-01 -4.38360E-03
    9092.698     95.919   5.240  9.85403E-01  9.86986E-01 -1.58286E-03
    9094.301     97.522   5.280  9.87421E-01  9.87399E-01  2.19635E-05
    9095.916     99.137   5.320  9.86946E-01  9.87784E-01 -8.37582E-04
    9097.544    100.765   5.360  9.83283E-01  9.88186E-01 -4.90333E-03
    9099.184    102.405   5.400  9.76669E-01  9.88560E-01 -1.18917E-02
    9100.836    104.057   5.440  9.68324E-01  9.88925E-01 -2.06008E-02
    9102.500    105.721   5.480  9.59795E-01  9.89259E-01 -2.94645E-02
    9104.176    107.397   5.520  9.52442E-01  9.89583E-01 -3.71409E-02
    9105.865    109.086   5.560  9.47081E-01  9.89872E-01 -4.27910E-02
    9107.566    110.787   5.600  9.44156E-01  9.90128E-01 -4.59723E-02
    9109.279    112.500   5.640  9.44135E-01  9.90370E-01 -4.62356E-02
    9111.004    114.225   5.680  9.47146E-01  9.90577E-01 -4.34312E-02
    9112.741    115.962   5.720  9.52731E-01  9.90749E-01 -3.80179E-02
    9114.491    117.712   5.760  9.59796E-01  9.90906E-01 -3.11094E-02
    9116.253    119.474   5.800  9.66869E-01  9.91001E-01 -2.41329E-02
    9118.026    121.247   5.840  9.72614E-01  9.91080E-01 -1.84669E-02
    9119.813    123.034   5.880  9.75772E-01  9.91099E-01 -1.53261E-02
    9121.611    124.832   5.920  9.75634E-01  9.91101E-01 -1.54667E-02
    9123.421    126.642   5.960  9.72192E-01  9.91060E-01 -1.88685E-02
    9125.244    128.465   6.000  9.66491E-01  9.90929E-01 -2.44380E-02
