# # comment:                                                     FEFF 9.9.1  
# # Source:
# # Structure
# # Reduced
# # space
# # abc:
# # angles:106.917075
# # sites:
# # POT  SCF 100  7.0000   0, screened core-hole, AFOLP (folp(0)= 1.150)
# # Abs   Z=29 Rmt= 1.160 Rnm= 1.333 K  shell
# # Pot 1 Z=23 Rmt= 1.153 Rnm= 1.324
# # Pot 2 Z=29 Rmt= 1.161 Rnm= 1.333
# # Pot 3 Z= 8 Rmt= 0.890 Rnm= 1.071
# # Gam_ch=1.729E+00 H-L exch Vi= 0.000E+00 Vr= 0.000E+00
# # Mu=-9.461E+00eV kf=2.316E+00 Vint=-1.832E+01eV Rs_int= 1.566
# FMS rfms= 9.0000
# # PATH  Rmax=-1.000,  Keep_limit= 0.00, Heap_limit 0.00  Pwcrit= 2.50%
#  S02=0.950  Temp=   0.00  Debye_temp=   0.00  Global_sig2= 0.00000
#  Energy zero shift, vr, vi    0.00000E+00   0.00000E+00
#  Curved wave amplitude ratio filter   4.000%
#     file         sig2 tot  cw amp ratio   deg  nlegs   reff  inp sig2
#     0/   0 paths used
#  xsedge+ 50, used to normalize mu           2.5163E-04
#  -----------------------------------------------------------------------
#  omega    e    k    mu    mu0     chi     @#
    8983.804    -13.271  -1.000  3.89663E-02  4.79141E-02 -8.94774E-03
    8984.103    -12.972  -0.960  4.12733E-02  5.12653E-02 -9.99202E-03
    8984.389    -12.685  -0.920  4.37985E-02  5.49806E-02 -1.11821E-02
    8984.663    -12.411  -0.880  4.65728E-02  5.91130E-02 -1.25402E-02
    8984.926    -12.149  -0.840  4.96322E-02  6.37243E-02 -1.40921E-02
    8985.175    -11.899  -0.800  5.30189E-02  6.88859E-02 -1.58670E-02
    8985.413    -11.661  -0.760  5.67818E-02  7.46798E-02 -1.78980E-02
    8985.639    -11.436  -0.720  6.09766E-02  8.11985E-02 -2.02218E-02
    8985.852    -11.222  -0.680  6.56655E-02  8.85439E-02 -2.28785E-02
    8986.053    -11.021  -0.640  7.09144E-02  9.68236E-02 -2.59092E-02
    8986.242    -10.832  -0.600  7.67889E-02  1.06143E-01 -2.93538E-02
    8986.419    -10.656  -0.560  8.33452E-02  1.16591E-01 -3.32458E-02
    8986.584    -10.491  -0.520  9.06167E-02  1.28222E-01 -3.76049E-02
    8986.736    -10.339  -0.480  9.85949E-02  1.41021E-01 -4.24266E-02
    8986.876    -10.198  -0.440  1.07207E-01  1.54878E-01 -4.76710E-02
    8987.004    -10.070  -0.400  1.16300E-01  1.69553E-01 -5.32532E-02
    8987.120     -9.955  -0.360  1.25628E-01  1.84668E-01 -5.90401E-02
    8987.224     -9.851  -0.320  1.34878E-01  1.99735E-01 -6.48576E-02
    8987.315     -9.759  -0.280  1.43702E-01  2.14212E-01 -7.05094E-02
    8987.394     -9.680  -0.240  1.51775E-01  2.27574E-01 -7.57991E-02
    8987.461     -9.613  -0.200  1.58835E-01  2.39385E-01 -8.05499E-02
    8987.516     -9.558  -0.160  1.64708E-01  2.49323E-01 -8.46147E-02
    8987.559     -9.516  -0.120  1.69301E-01  2.57180E-01 -8.78792E-02
    8987.590     -9.485  -0.080  1.72580E-01  2.62841E-01 -9.02614E-02
    8987.614     -9.461   0.000  1.75193E-01  2.67391E-01 -9.21975E-02
    8987.669     -9.406   0.120  1.80863E-01  2.77658E-01 -9.67949E-02
    8987.711     -9.363   0.160  1.85202E-01  2.85629E-01 -1.00427E-01
    8987.766     -9.308   0.200  1.90642E-01  2.95832E-01 -1.05190E-01
    8987.833     -9.241   0.240  1.96985E-01  3.08095E-01 -1.11110E-01
    8987.913     -9.162   0.280  2.03998E-01  3.22220E-01 -1.18221E-01
    8988.004     -9.071   0.320  2.11324E-01  3.37817E-01 -1.26492E-01
    8988.108     -8.967   0.360  2.18663E-01  3.54471E-01 -1.35808E-01
    8988.223     -8.851   0.400  2.25769E-01  3.71720E-01 -1.45952E-01
    8988.352     -8.723   0.440  2.32545E-01  3.89106E-01 -1.56561E-01
    8988.492     -8.583   0.480  2.39206E-01  4.06340E-01 -1.67134E-01
    8988.644     -8.431   0.520  2.46022E-01  4.23176E-01 -1.77154E-01
    8988.809     -8.266   0.560  2.53348E-01  4.39542E-01 -1.86193E-01
    8988.985     -8.089   0.600  2.61448E-01  4.55390E-01 -1.93942E-01
    8989.174     -7.900   0.640  2.70682E-01  4.70811E-01 -2.00129E-01
    8989.376     -7.699   0.680  2.81501E-01  4.85824E-01 -2.04322E-01
    8989.589     -7.486   0.720  2.94489E-01  5.00539E-01 -2.06051E-01
    8989.815     -7.260   0.760  3.09459E-01  5.15027E-01 -2.05568E-01
    8990.052     -7.022   0.800  3.24917E-01  5.29347E-01 -2.04431E-01
    8990.302     -6.772   0.840  3.39092E-01  5.43574E-01 -2.04482E-01
    8990.564     -6.510   0.880  3.51963E-01  5.57764E-01 -2.05801E-01
    8990.839     -6.236   0.920  3.65960E-01  5.71927E-01 -2.05968E-01
    8991.125     -5.949   0.960  3.84644E-01  5.86103E-01 -2.01459E-01
    8991.424     -5.651   1.000  4.10141E-01  6.00300E-01 -1.90160E-01
    8991.735     -5.340   1.040  4.41498E-01  6.14500E-01 -1.73002E-01
    8992.058     -5.017   1.080  4.76458E-01  6.28757E-01 -1.52298E-01
    8992.393     -4.681   1.120  5.12954E-01  6.43002E-01 -1.30048E-01
    8992.741     -4.334   1.160  5.48784E-01  6.57280E-01 -1.08496E-01
    8993.100     -3.974   1.200  5.84198E-01  6.71512E-01 -8.73132E-02
    8993.472     -3.602   1.240  6.26086E-01  6.85736E-01 -5.96491E-02
    8993.856     -3.218   1.280  6.83975E-01  6.99888E-01 -1.59130E-02
    8994.252     -2.822   1.320  7.56032E-01  7.13980E-01  4.20513E-02
    8994.661     -2.414   1.360  8.23908E-01  7.27945E-01  9.59638E-02
    8995.081     -1.993   1.400  8.70066E-01  7.41774E-01  1.28293E-01
    8995.514     -1.560   1.440  8.88163E-01  7.55435E-01  1.32728E-01
    8995.959     -1.115   1.480  8.79682E-01  7.68918E-01  1.10765E-01
    8996.416     -0.658   1.520  8.55485E-01  7.82171E-01  7.33141E-02
    8996.886     -0.189   1.560  8.26106E-01  7.95185E-01  3.09214E-02
    8997.367      0.293   1.600  8.03859E-01  8.07928E-01 -4.06914E-03
    8997.861      0.787   1.640  7.99031E-01  8.20348E-01 -2.13166E-02
    8998.367      1.293   1.680  8.09944E-01  8.32476E-01 -2.25311E-02
    8998.885      1.811   1.720  8.25192E-01  8.44241E-01 -1.90488E-02
    8999.416      2.341   1.760  8.32644E-01  8.55635E-01 -2.29912E-02
    8999.958      2.884   1.800  8.32237E-01  8.66671E-01 -3.44339E-02
    9000.513      3.438   1.840  8.33882E-01  8.77281E-01 -4.33986E-02
    9001.080      4.005   1.880  8.51124E-01  8.87498E-01 -3.63738E-02
    9001.659      4.584   1.920  8.89724E-01  8.97278E-01 -7.55439E-03
    9002.250      5.176   1.960  9.41793E-01  9.06636E-01  3.51565E-02
    9002.854      5.779   2.000  9.86999E-01  9.15550E-01  7.14488E-02
    9003.470      6.395   2.040  1.00785E+00  9.24016E-01  8.38379E-02
    9004.097      7.023   2.080  9.98596E-01  9.32012E-01  6.65838E-02
    9004.737      7.663   2.120  9.70746E-01  9.39582E-01  3.11647E-02
    9005.390      8.315   2.160  9.42238E-01  9.46682E-01 -4.44349E-03
    9006.054      8.980   2.200  9.27654E-01  9.53356E-01 -2.57014E-02
    9006.731      9.656   2.240  9.39391E-01  9.59566E-01 -2.01753E-02
    9007.420     10.345   2.280  9.78831E-01  9.65336E-01  1.34951E-02
    9008.121     11.046   2.320  1.02954E+00  9.70688E-01  5.88481E-02
    9008.834     11.759   2.360  1.06679E+00  9.75608E-01  9.11812E-02
    9009.559     12.485   2.400  1.07698E+00  9.80122E-01  9.68628E-02
    9010.297     13.222   2.440  1.06063E+00  9.84255E-01  7.63739E-02
    9011.047     13.972   2.480  1.03688E+00  9.87974E-01  4.89027E-02
    9011.809     14.734   2.520  1.03097E+00  9.91324E-01  3.96409E-02
    9012.583     15.508   2.560  1.05588E+00  9.94334E-01  6.15423E-02
    9013.369     16.295   2.600  1.10088E+00  9.96968E-01  1.03910E-01
    9014.168     17.093   2.640  1.13223E+00  9.99295E-01  1.32936E-01
    9014.979     17.904   2.680  1.12976E+00  1.00128E+00  1.28473E-01
    9015.802     18.727   2.720  1.10106E+00  1.00298E+00  9.80738E-02
    9016.637     19.562   2.760  1.07218E+00  1.00440E+00  6.77820E-02
    9017.484     20.410   2.800  1.05444E+00  1.00556E+00  4.88765E-02
    9018.344     21.269   2.840  1.04538E+00  1.00645E+00  3.89271E-02
    9019.215     22.141   2.880  1.04115E+00  1.00711E+00  3.40447E-02
    9020.099     23.025   2.920  1.03876E+00  1.00755E+00  3.12136E-02
    9020.995     23.921   2.960  1.03655E+00  1.00777E+00  2.87791E-02
    9021.904     24.829   3.000  1.03389E+00  1.00781E+00  2.60755E-02
    9022.824     25.750   3.040  1.03062E+00  1.00766E+00  2.29574E-02
    9023.757     26.682   3.080  1.02694E+00  1.00738E+00  1.95675E-02
    9024.702     27.627   3.120  1.02301E+00  1.00693E+00  1.60754E-02
    9025.659     28.584   3.160  1.01894E+00  1.00634E+00  1.25913E-02
    9026.628     29.554   3.200  1.01494E+00  1.00565E+00  9.28489E-03
    9027.610     30.535   3.240  1.01134E+00  1.00484E+00  6.49683E-03
    9028.603     31.529   3.280  1.00850E+00  1.00393E+00  4.57441E-03
    9029.609     32.534   3.320  1.00650E+00  1.00293E+00  3.57346E-03
    9030.627     33.552   3.360  1.00490E+00  1.00187E+00  3.02628E-03
    9031.657     34.583   3.400  1.00271E+00  1.00074E+00  1.96673E-03
    9032.700     35.625   3.440  9.98855E-01  9.99569E-01 -7.14046E-04
    9033.754     36.680   3.480  9.92533E-01  9.98351E-01 -5.81867E-03
    9034.821     37.746   3.520  9.83531E-01  9.97096E-01 -1.35643E-02
    9035.900     38.825   3.560  9.72219E-01  9.95805E-01 -2.35859E-02
    9036.991     39.917   3.600  9.59464E-01  9.94504E-01 -3.50392E-02
    9038.095     41.020   3.640  9.46376E-01  9.93197E-01 -4.68213E-02
    9039.210     42.136   3.680  9.33945E-01  9.91868E-01 -5.79229E-02
    9040.338     43.263   3.720  9.22908E-01  9.90560E-01 -6.76524E-02
    9041.478     44.403   3.760  9.13664E-01  9.89257E-01 -7.55927E-02
    9042.630     45.555   3.800  9.06561E-01  9.87980E-01 -8.14184E-02
    9043.794     46.720   3.840  9.01763E-01  9.86712E-01 -8.49482E-02
    9044.971     47.896   3.880  8.99500E-01  9.85455E-01 -8.59545E-02
    9046.160     49.085   3.920  8.99963E-01  9.84251E-01 -8.42878E-02
    9047.361     50.286   3.960  9.03054E-01  9.83063E-01 -8.00090E-02
    9048.574     51.499   4.000  9.08393E-01  9.81914E-01 -7.35211E-02
    9049.799     52.724   4.040  9.15356E-01  9.80825E-01 -6.54687E-02
    9051.036     53.962   4.080  9.23135E-01  9.79757E-01 -5.66219E-02
    9052.286     55.211   4.120  9.31095E-01  9.78751E-01 -4.76555E-02
    9053.548     56.473   4.160  9.38839E-01  9.77787E-01 -3.89483E-02
    9054.822     57.747   4.200  9.46284E-01  9.76869E-01 -3.05846E-02
    9056.108     59.034   4.240  9.53494E-01  9.76014E-01 -2.25199E-02
    9057.407     60.332   4.280  9.60497E-01  9.75183E-01 -1.46862E-02
    9058.717     61.643   4.320  9.67454E-01  9.74439E-01 -6.98555E-03
    9060.040     62.966   4.360  9.74378E-01  9.73720E-01  6.58091E-04
    9061.375     64.301   4.400  9.81330E-01  9.73068E-01  8.26236E-03
    9062.722     65.648   4.440  9.88196E-01  9.72462E-01  1.57344E-02
    9064.082     67.007   4.480  9.94745E-01  9.71923E-01  2.28218E-02
    9065.453     68.379   4.520  1.00061E+00  9.71432E-01  2.91792E-02
    9066.837     69.763   4.560  1.00557E+00  9.71008E-01  3.45616E-02
    9068.233     71.159   4.600  1.00954E+00  9.70629E-01  3.89157E-02
    9069.641     72.567   4.640  1.01275E+00  9.70293E-01  4.24577E-02
    9071.062     73.987   4.680  1.01558E+00  9.70000E-01  4.55816E-02
    9072.494     75.420   4.720  1.01834E+00  9.69773E-01  4.85696E-02
    9073.939     76.864   4.760  1.02098E+00  9.69590E-01  5.13923E-02
    9075.396     78.321   4.800  1.02323E+00  9.69449E-01  5.37837E-02
    9076.865     79.790   4.840  1.02475E+00  9.69349E-01  5.53990E-02
    9078.346     81.272   4.880  1.02546E+00  9.69311E-01  5.61474E-02
    9079.840     82.765   4.920  1.02567E+00  9.69290E-01  5.63778E-02
    9081.346     84.271   4.960  1.02596E+00  9.69307E-01  5.66525E-02
    9082.863     85.789   5.000  1.02670E+00  9.69363E-01  5.73355E-02
    9084.394     87.319   5.040  1.02778E+00  9.69476E-01  5.83042E-02
    9085.936     88.861   5.080  1.02849E+00  9.69582E-01  5.89107E-02
    9087.490     90.416   5.120  1.02795E+00  9.69742E-01  5.82043E-02
    9089.057     91.982   5.160  1.02503E+00  9.69916E-01  5.51123E-02
    9090.636     93.561   5.200  1.01881E+00  9.70122E-01  4.86915E-02
    9092.227     95.152   5.240  1.00880E+00  9.70358E-01  3.84450E-02
    9093.830     96.756   5.280  9.95135E-01  9.70580E-01  2.45542E-02
    9095.446     98.371   5.320  9.78805E-01  9.70851E-01  7.95450E-03
    9097.073     99.999   5.360  9.61328E-01  9.71106E-01 -9.77845E-03
    9098.713    101.638   5.400  9.44697E-01  9.71386E-01 -2.66892E-02
    9100.365    103.290   5.440  9.30845E-01  9.71670E-01 -4.08256E-02
    9102.029    104.955   5.480  9.21311E-01  9.71958E-01 -5.06463E-02
    9103.706    106.631   5.520  9.16815E-01  9.72267E-01 -5.54527E-02
    9105.394    108.320   5.560  9.16920E-01  9.72554E-01 -5.56342E-02
    9107.095    110.020   5.600  9.20382E-01  9.72838E-01 -5.24557E-02
    9108.808    111.733   5.640  9.25674E-01  9.73118E-01 -4.74441E-02
    9110.533    113.459   5.680  9.31700E-01  9.73393E-01 -4.16939E-02
    9112.270    115.196   5.720  9.38086E-01  9.73641E-01 -3.55543E-02
    9114.020    116.945   5.760  9.45006E-01  9.73882E-01 -2.88763E-02
    9115.782    118.707   5.800  9.52511E-01  9.74117E-01 -2.16058E-02
    9117.556    120.481   5.840  9.60148E-01  9.74322E-01 -1.41736E-02
    9119.342    122.267   5.880  9.67084E-01  9.74517E-01 -7.43280E-03
    9121.140    124.065   5.920  9.72391E-01  9.74680E-01 -2.28821E-03
    9122.951    125.876   5.960  9.75420E-01  9.74831E-01  5.88807E-04
    9124.773    127.699   6.000  9.75710E-01  9.74942E-01  7.68586E-04
