# # comment:                                                     FEFF 9.9.1  
# # Source:
# # Structure
# # Reduced
# # space
# # abc:
# # angles:
# # sites:
# # POT  SCF 100  7.0000   0, screened core-hole, AFOLP (folp(0)= 1.150)
# # Abs   Z=29 Rmt= 1.272 Rnm= 1.351 K  shell
# # Pot 1 Z= 3 Rmt= 1.242 Rnm= 1.311
# # Pot 2 Z=29 Rmt= 1.274 Rnm= 1.359
# # Pot 3 Z=15 Rmt= 0.942 Rnm= 1.159
# # Pot 4 Z= 8 Rmt= 0.921 Rnm= 1.047
# # Gam_ch=1.729E+00 H-L exch Vi= 0.000E+00 Vr= 0.000E+00
# # Mu=-6.766E+00eV kf=2.402E+00 Vint=-1.715E+01eV Rs_int= 1.510
# FMS rfms= 9.0000
# # PATH  Rmax=-1.000,  Keep_limit= 0.00, Heap_limit 0.00  Pwcrit= 2.50%
#  S02=0.950  Temp=   0.00  Debye_temp=   0.00  Global_sig2= 0.00000
#  Energy zero shift, vr, vi    0.00000E+00   0.00000E+00
#  Curved wave amplitude ratio filter   4.000%
#     file         sig2 tot  cw amp ratio   deg  nlegs   reff  inp sig2
#     0/   0 paths used
#  xsedge+ 50, used to normalize mu           2.4793E-04
#  -----------------------------------------------------------------------
#  omega    e    k    mu    mu0     chi     @#
    8983.502    -10.576  -1.000  4.36815E-02  5.43926E-02 -1.07111E-02
    8983.801    -10.278  -0.960  4.62688E-02  5.83813E-02 -1.21125E-02
    8984.087     -9.991  -0.920  4.90848E-02  6.28184E-02 -1.37337E-02
    8984.361     -9.717  -0.880  5.21573E-02  6.77705E-02 -1.56132E-02
    8984.624     -9.455  -0.840  5.55185E-02  7.33150E-02 -1.77966E-02
    8984.873     -9.205  -0.800  5.92047E-02  7.95420E-02 -2.03373E-02
    8985.111     -8.967  -0.760  6.32571E-02  8.65549E-02 -2.32978E-02
    8985.337     -8.742  -0.720  6.77208E-02  9.44705E-02 -2.67497E-02
    8985.550     -8.528  -0.680  7.26449E-02  1.03418E-01 -3.07727E-02
    8985.751     -8.327  -0.640  7.80795E-02  1.13532E-01 -3.54529E-02
    8985.940     -8.138  -0.600  8.40725E-02  1.24949E-01 -4.08763E-02
    8986.117     -7.961  -0.560  9.06627E-02  1.37781E-01 -4.71185E-02
    8986.282     -7.797  -0.520  9.78700E-02  1.52098E-01 -5.42283E-02
    8986.434     -7.644  -0.480  1.05682E-01  1.67886E-01 -6.22042E-02
    8986.574     -7.504  -0.440  1.14037E-01  1.85005E-01 -7.09679E-02
    8986.702     -7.376  -0.400  1.22813E-01  2.03155E-01 -8.03421E-02
    8986.818     -7.260  -0.360  1.31821E-01  2.21866E-01 -9.00453E-02
    8986.922     -7.157  -0.320  1.40811E-01  2.40525E-01 -9.97140E-02
    8987.013     -7.065  -0.280  1.49497E-01  2.58451E-01 -1.08953E-01
    8987.092     -6.986  -0.240  1.57593E-01  2.74992E-01 -1.17399E-01
    8987.159     -6.919  -0.200  1.64837E-01  2.89604E-01 -1.24767E-01
    8987.214     -6.864  -0.160  1.71018E-01  3.01889E-01 -1.30871E-01
    8987.257     -6.821  -0.120  1.75976E-01  3.11596E-01 -1.35620E-01
    8987.287     -6.791  -0.080  1.79602E-01  3.18586E-01 -1.38985E-01
    8987.312     -6.766   0.000  1.82579E-01  3.24202E-01 -1.41623E-01
    8987.367     -6.712   0.120  1.89152E-01  3.36840E-01 -1.47688E-01
    8987.409     -6.669   0.160  1.94324E-01  3.46666E-01 -1.52342E-01
    8987.464     -6.614   0.200  2.01050E-01  3.59208E-01 -1.58158E-01
    8987.531     -6.547   0.240  2.09291E-01  3.74243E-01 -1.64952E-01
    8987.611     -6.468   0.280  2.19092E-01  3.91515E-01 -1.72423E-01
    8987.702     -6.376   0.320  2.30304E-01  4.10504E-01 -1.80200E-01
    8987.806     -6.273   0.360  2.42798E-01  4.30664E-01 -1.87866E-01
    8987.921     -6.157   0.400  2.56330E-01  4.51392E-01 -1.95063E-01
    8988.049     -6.029   0.440  2.70580E-01  4.72101E-01 -2.01521E-01
    8988.190     -5.889   0.480  2.85276E-01  4.92404E-01 -2.07128E-01
    8988.342     -5.736   0.520  3.00130E-01  5.11995E-01 -2.11865E-01
    8988.507     -5.572   0.560  3.15042E-01  5.30749E-01 -2.15706E-01
    8988.683     -5.395   0.600  3.30145E-01  5.48655E-01 -2.18509E-01
    8988.872     -5.206   0.640  3.45742E-01  5.65737E-01 -2.19995E-01
    8989.074     -5.005   0.680  3.62208E-01  5.82117E-01 -2.19909E-01
    8989.287     -4.791   0.720  3.79602E-01  5.97891E-01 -2.18288E-01
    8989.512     -4.566   0.760  3.97691E-01  6.13134E-01 -2.15443E-01
    8989.750     -4.328   0.800  4.16319E-01  6.27995E-01 -2.11676E-01
    8990.000     -4.078   0.840  4.35373E-01  6.42508E-01 -2.07135E-01
    8990.262     -3.816   0.880  4.54737E-01  6.56749E-01 -2.02012E-01
    8990.537     -3.542   0.920  4.74136E-01  6.70765E-01 -1.96629E-01
    8990.823     -3.255   0.960  4.93801E-01  6.84588E-01 -1.90787E-01
    8991.122     -2.956   1.000  5.15288E-01  6.98260E-01 -1.82972E-01
    8991.433     -2.646   1.040  5.40086E-01  7.11775E-01 -1.71689E-01
    8991.756     -2.322   1.080  5.67785E-01  7.25174E-01 -1.57389E-01
    8992.091     -1.987   1.120  5.96705E-01  7.38416E-01 -1.41711E-01
    8992.439     -1.640   1.160  6.26797E-01  7.51512E-01 -1.24716E-01
    8992.798     -1.280   1.200  6.60141E-01  7.64450E-01 -1.04310E-01
    8993.170     -0.908   1.240  6.98328E-01  7.77236E-01 -7.89076E-02
    8993.554     -0.524   1.280  7.40317E-01  7.89826E-01 -4.95090E-02
    8993.950     -0.128   1.320  7.81986E-01  8.02200E-01 -2.02146E-02
    8994.359      0.280   1.360  8.18145E-01  8.14356E-01  3.78899E-03
    8994.779      0.701   1.400  8.46237E-01  8.26269E-01  1.99683E-02
    8995.212      1.134   1.440  8.68309E-01  8.37911E-01  3.03973E-02
    8995.657      1.579   1.480  8.93259E-01  8.49278E-01  4.39813E-02
    8996.114      2.036   1.520  9.31394E-01  8.60322E-01  7.10718E-02
    8996.584      2.506   1.560  9.83215E-01  8.71038E-01  1.12177E-01
    8997.065      2.987   1.600  1.03752E+00  8.81419E-01  1.56098E-01
    8997.559      3.481   1.640  1.08091E+00  8.91438E-01  1.89477E-01
    8998.065      3.987   1.680  1.11185E+00  9.01071E-01  2.10784E-01
    8998.583      4.505   1.720  1.13263E+00  9.10333E-01  2.22294E-01
    8999.114      5.035   1.760  1.13599E+00  9.19180E-01  2.16806E-01
    8999.656      5.578   1.800  1.11916E+00  9.27626E-01  1.91531E-01
    9000.211      6.133   1.840  1.09736E+00  9.35632E-01  1.61728E-01
    9000.778      6.700   1.880  1.08985E+00  9.43235E-01  1.46614E-01
    9001.357      7.279   1.920  1.09861E+00  9.50414E-01  1.48195E-01
    9001.948      7.870   1.960  1.11168E+00  9.57172E-01  1.54505E-01
    9002.552      8.473   2.000  1.12051E+00  9.63487E-01  1.57026E-01
    9003.167      9.089   2.040  1.12399E+00  9.69401E-01  1.54593E-01
    9003.795      9.717   2.080  1.12734E+00  9.74878E-01  1.52459E-01
    9004.435     10.357   2.120  1.13539E+00  9.79942E-01  1.55450E-01
    9005.088     11.009   2.160  1.14442E+00  9.84615E-01  1.59802E-01
    9005.752     11.674   2.200  1.14891E+00  9.88883E-01  1.60029E-01
    9006.429     12.351   2.240  1.15111E+00  9.92752E-01  1.58356E-01
    9007.118     13.039   2.280  1.15527E+00  9.96269E-01  1.58999E-01
    9007.819     13.740   2.320  1.15990E+00  9.99418E-01  1.60479E-01
    9008.532     14.454   2.360  1.15969E+00  1.00221E+00  1.57484E-01
    9009.257     15.179   2.400  1.15257E+00  1.00466E+00  1.47906E-01
    9009.995     15.917   2.440  1.14228E+00  1.00679E+00  1.35487E-01
    9010.745     16.666   2.480  1.13283E+00  1.00862E+00  1.24209E-01
    9011.507     17.428   2.520  1.12293E+00  1.01014E+00  1.12788E-01
    9012.281     18.203   2.560  1.10807E+00  1.01140E+00  9.66636E-02
    9013.067     18.989   2.600  1.08608E+00  1.01241E+00  7.36684E-02
    9013.866     19.788   2.640  1.05803E+00  1.01318E+00  4.48503E-02
    9014.677     20.598   2.680  1.02427E+00  1.01370E+00  1.05677E-02
    9015.500     21.421   2.720  9.86511E-01  1.01402E+00 -2.75076E-02
    9016.335     22.256   2.760  9.49307E-01  1.01413E+00 -6.48267E-02
    9017.182     23.104   2.800  9.21780E-01  1.01407E+00 -9.22949E-02
    9018.042     23.963   2.840  9.06389E-01  1.01385E+00 -1.07464E-01
    9018.913     24.835   2.880  8.97239E-01  1.01347E+00 -1.16233E-01
    9019.797     25.719   2.920  8.91428E-01  1.01296E+00 -1.21534E-01
    9020.693     26.615   2.960  8.88058E-01  1.01233E+00 -1.24271E-01
    9021.602     27.523   3.000  8.86780E-01  1.01160E+00 -1.24820E-01
    9022.522     28.444   3.040  8.87062E-01  1.01076E+00 -1.23698E-01
    9023.455     29.377   3.080  8.88454E-01  1.00984E+00 -1.21382E-01
    9024.400     30.321   3.120  8.90822E-01  1.00883E+00 -1.18012E-01
    9025.357     31.279   3.160  8.94133E-01  1.00778E+00 -1.13649E-01
    9026.326     32.248   3.200  8.98112E-01  1.00668E+00 -1.08571E-01
    9027.308     33.229   3.240  9.02742E-01  1.00554E+00 -1.02801E-01
    9028.301     34.223   3.280  9.08098E-01  1.00437E+00 -9.62685E-02
    9029.307     35.229   3.320  9.14205E-01  1.00318E+00 -8.89748E-02
    9030.325     36.247   3.360  9.20886E-01  1.00197E+00 -8.10790E-02
    9031.355     37.277   3.400  9.27875E-01  1.00077E+00 -7.28923E-02
    9032.398     38.319   3.440  9.34760E-01  9.99551E-01 -6.47914E-02
    9033.452     39.374   3.480  9.41435E-01  9.98360E-01 -5.69255E-02
    9034.519     40.441   3.520  9.48092E-01  9.97199E-01 -4.91064E-02
    9035.598     41.520   3.560  9.55051E-01  9.96047E-01 -4.09966E-02
    9036.689     42.611   3.600  9.62620E-01  9.94931E-01 -3.23106E-02
    9037.793     43.714   3.640  9.71013E-01  9.93849E-01 -2.28353E-02
    9038.908     44.830   3.680  9.80326E-01  9.92784E-01 -1.24572E-02
    9040.036     45.958   3.720  9.90570E-01  9.91781E-01 -1.21173E-03
    9041.176     47.098   3.760  1.00147E+00  9.90823E-01  1.06490E-02
    9042.328     48.250   3.800  1.01256E+00  9.89932E-01  2.26241E-02
    9043.492     49.414   3.840  1.02298E+00  9.89085E-01  3.38984E-02
    9044.669     50.591   3.880  1.03193E+00  9.88283E-01  4.36431E-02
    9045.858     51.779   3.920  1.03886E+00  9.87527E-01  5.13311E-02
    9047.058     52.980   3.960  1.04370E+00  9.86842E-01  5.68564E-02
    9048.272     54.193   4.000  1.04666E+00  9.86228E-01  6.04295E-02
    9049.497     55.419   4.040  1.04818E+00  9.85665E-01  6.25184E-02
    9050.734     56.656   4.080  1.04877E+00  9.85171E-01  6.35988E-02
    9051.984     57.906   4.120  1.04871E+00  9.84726E-01  6.39830E-02
    9053.246     59.168   4.160  1.04814E+00  9.84352E-01  6.37846E-02
    9054.520     60.442   4.200  1.04694E+00  9.84028E-01  6.29158E-02
    9055.806     61.728   4.240  1.04487E+00  9.83773E-01  6.10937E-02
    9057.105     63.026   4.280  1.04155E+00  9.83567E-01  5.79869E-02
    9058.415     64.337   4.320  1.03683E+00  9.83431E-01  5.34008E-02
    9059.738     65.660   4.360  1.03069E+00  9.83344E-01  4.73466E-02
    9061.073     66.995   4.400  1.02342E+00  9.83325E-01  4.00920E-02
    9062.420     68.342   4.440  1.01548E+00  9.83351E-01  3.21255E-02
    9063.780     69.701   4.480  1.00742E+00  9.83423E-01  2.40010E-02
    9065.151     71.073   4.520  9.99786E-01  9.83562E-01  1.62239E-02
    9066.535     72.457   4.560  9.92901E-01  9.83743E-01  9.15836E-03
    9067.931     73.853   4.600  9.86944E-01  9.83963E-01  2.98041E-03
    9069.339     75.261   4.640  9.81919E-01  9.84202E-01 -2.28226E-03
    9070.760     76.681   4.680  9.77852E-01  9.84500E-01 -6.64839E-03
    9072.192     78.114   4.720  9.74707E-01  9.84837E-01 -1.01306E-02
    9073.637     79.559   4.760  9.72421E-01  9.85189E-01 -1.27677E-02
    9075.094     81.016   4.800  9.70970E-01  9.85595E-01 -1.46252E-02
    9076.563     82.485   4.840  9.70190E-01  9.85992E-01 -1.58024E-02
    9078.044     83.966   4.880  9.70057E-01  9.86442E-01 -1.63855E-02
    9079.538     85.460   4.920  9.70530E-01  9.86900E-01 -1.63691E-02
    9081.044     86.965   4.960  9.71717E-01  9.87362E-01 -1.56454E-02
    9082.561     88.483   5.000  9.73820E-01  9.87829E-01 -1.40096E-02
    9084.092     90.013   5.040  9.77033E-01  9.88322E-01 -1.12896E-02
    9085.634     91.556   5.080  9.81313E-01  9.88818E-01 -7.50488E-03
    9087.188     93.110   5.120  9.86374E-01  9.89312E-01 -2.93857E-03
    9088.755     94.677   5.160  9.91639E-01  9.89804E-01  1.83552E-03
    9090.334     96.256   5.200  9.96354E-01  9.90269E-01  6.08514E-03
    9091.925     97.847   5.240  9.99785E-01  9.90728E-01  9.05700E-03
    9093.528     99.450   5.280  1.00132E+00  9.91182E-01  1.01397E-02
    9095.144    101.065   5.320  1.00063E+00  9.91630E-01  8.99650E-03
    9096.771    102.693   5.360  9.97665E-01  9.92046E-01  5.61843E-03
    9098.411    104.333   5.400  9.92772E-01  9.92452E-01  3.19375E-04
    9100.063    105.985   5.440  9.86444E-01  9.92824E-01 -6.37948E-03
    9101.727    107.649   5.480  9.79342E-01  9.93158E-01 -1.38163E-02
    9103.404    109.325   5.520  9.72241E-01  9.93457E-01 -2.12157E-02
    9105.092    111.014   5.560  9.65991E-01  9.93742E-01 -2.77508E-02
    9106.793    112.715   5.600  9.61261E-01  9.93990E-01 -3.27288E-02
    9108.506    114.428   5.640  9.58417E-01  9.94200E-01 -3.57830E-02
    9110.231    116.153   5.680  9.57412E-01  9.94369E-01 -3.69572E-02
    9111.968    117.890   5.720  9.57874E-01  9.94498E-01 -3.66232E-02
    9113.718    119.640   5.760  9.59316E-01  9.94586E-01 -3.52701E-02
    9115.480    121.401   5.800  9.61312E-01  9.94632E-01 -3.33203E-02
    9117.254    123.175   5.840  9.63560E-01  9.94614E-01 -3.10543E-02
    9119.040    124.961   5.880  9.65914E-01  9.94578E-01 -2.86641E-02
    9120.838    126.760   5.920  9.68191E-01  9.94504E-01 -2.63126E-02
    9122.649    128.570   5.960  9.70286E-01  9.94359E-01 -2.40723E-02
    9124.471    130.393   6.000  9.72497E-01  9.94170E-01 -2.16729E-02
