# # comment:                                                     FEFF 9.9.1  
# # Source:
# # Structure
# # Reduced
# # space
# # abc:
# # angles:106.217321
# # sites:
# # POT  SCF 100  7.0000   0, screened core-hole, AFOLP (folp(0)= 1.150)
# # Abs   Z=29 Rmt= 1.265 Rnm= 1.333 K  shell
# # Pot 1 Z=23 Rmt= 1.101 Rnm= 1.315
# # Pot 2 Z=29 Rmt= 1.218 Rnm= 1.306
# # Pot 3 Z= 8 Rmt= 0.935 Rnm= 1.097
# # Gam_ch=1.729E+00 H-L exch Vi= 0.000E+00 Vr= 0.000E+00
# # Mu=-8.220E+00eV kf=2.244E+00 Vint=-1.700E+01eV Rs_int= 1.616
# FMS rfms= 9.0000
# # PATH  Rmax=-1.000,  Keep_limit= 0.00, Heap_limit 0.00  Pwcrit= 2.50%
#  S02=0.950  Temp=   0.00  Debye_temp=   0.00  Global_sig2= 0.00000
#  Energy zero shift, vr, vi    0.00000E+00   0.00000E+00
#  Curved wave amplitude ratio filter   4.000%
#     file         sig2 tot  cw amp ratio   deg  nlegs   reff  inp sig2
#     0/   0 paths used
#  xsedge+ 50, used to normalize mu           2.4713E-04
#  -----------------------------------------------------------------------
#  omega    e    k    mu    mu0     chi     @#
    8983.945    -12.030  -1.000  3.73888E-02  5.19630E-02 -1.45743E-02
    8984.244    -11.732  -0.960  3.93859E-02  5.56913E-02 -1.63054E-02
    8984.531    -11.445  -0.920  4.15517E-02  5.98307E-02 -1.82791E-02
    8984.805    -11.171  -0.880  4.39083E-02  6.44417E-02 -2.05334E-02
    8985.067    -10.909  -0.840  4.64820E-02  6.95943E-02 -2.31124E-02
    8985.317    -10.659  -0.800  4.93028E-02  7.53699E-02 -2.60671E-02
    8985.555    -10.421  -0.760  5.24057E-02  8.18616E-02 -2.94559E-02
    8985.780    -10.195  -0.720  5.58299E-02  8.91748E-02 -3.33449E-02
    8985.994     -9.982  -0.680  5.96188E-02  9.74254E-02 -3.78066E-02
    8986.195     -9.781  -0.640  6.38183E-02  1.06736E-01 -4.29174E-02
    8986.384     -9.592  -0.600  6.84734E-02  1.17226E-01 -4.87523E-02
    8986.561     -9.415  -0.560  7.36226E-02  1.28998E-01 -5.53752E-02
    8986.725     -9.251  -0.520  7.92892E-02  1.42113E-01 -6.28236E-02
    8986.878     -9.098  -0.480  8.54686E-02  1.56556E-01 -7.10878E-02
    8987.018     -8.958  -0.440  9.21146E-02  1.72202E-01 -8.00875E-02
    8987.146     -8.830  -0.400  9.91258E-02  1.88778E-01 -8.96524E-02
    8987.262     -8.714  -0.360  1.06340E-01  2.05858E-01 -9.95177E-02
    8987.365     -8.610  -0.320  1.13543E-01  2.22887E-01 -1.09344E-01
    8987.457     -8.519  -0.280  1.20487E-01  2.39250E-01 -1.18763E-01
    8987.536     -8.440  -0.240  1.26927E-01  2.54354E-01 -1.27427E-01
    8987.603     -8.373  -0.200  1.32648E-01  2.67703E-01 -1.35056E-01
    8987.658     -8.318  -0.160  1.37485E-01  2.78933E-01 -1.41448E-01
    8987.701     -8.275  -0.120  1.41332E-01  2.87811E-01 -1.46480E-01
    8987.731     -8.245  -0.080  1.44123E-01  2.94208E-01 -1.50084E-01
    8987.755     -8.220   0.000  1.46404E-01  2.99346E-01 -1.52942E-01
    8987.810     -8.165   0.120  1.51321E-01  3.10948E-01 -1.59627E-01
    8987.853     -8.123   0.160  1.55123E-01  3.19964E-01 -1.64841E-01
    8987.908     -8.068   0.200  1.59958E-01  3.31472E-01 -1.71515E-01
    8987.975     -8.001   0.240  1.65731E-01  3.45318E-01 -1.79587E-01
    8988.054     -7.922   0.280  1.72299E-01  3.61230E-01 -1.88931E-01
    8988.146     -7.830   0.320  1.79485E-01  3.78811E-01 -1.99326E-01
    8988.249     -7.727   0.360  1.87019E-01  3.97543E-01 -2.10525E-01
    8988.365     -7.611   0.400  1.94710E-01  4.16917E-01 -2.22207E-01
    8988.493     -7.483   0.440  2.02370E-01  4.36411E-01 -2.34040E-01
    8988.633     -7.343   0.480  2.09933E-01  4.55672E-01 -2.45739E-01
    8988.786     -7.190   0.520  2.17279E-01  4.74445E-01 -2.57166E-01
    8988.950     -7.026   0.560  2.24197E-01  4.92620E-01 -2.68423E-01
    8989.127     -6.849   0.600  2.30362E-01  5.10166E-01 -2.79804E-01
    8989.316     -6.660   0.640  2.35487E-01  5.27119E-01 -2.91632E-01
    8989.517     -6.459   0.680  2.39588E-01  5.43563E-01 -3.03976E-01
    8989.730     -6.245   0.720  2.43046E-01  5.59582E-01 -3.16536E-01
    8989.956     -6.020   0.760  2.46896E-01  5.75252E-01 -3.28357E-01
    8990.194     -5.782   0.800  2.52588E-01  5.90664E-01 -3.38076E-01
    8990.444     -5.532   0.840  2.61573E-01  6.05876E-01 -3.44303E-01
    8990.706     -5.270   0.880  2.74579E-01  6.20934E-01 -3.46355E-01
    8990.980     -4.996   0.920  2.91060E-01  6.35849E-01 -3.44788E-01
    8991.267     -4.709   0.960  3.09368E-01  6.50682E-01 -3.41314E-01
    8991.565     -4.410   1.000  3.27887E-01  6.65424E-01 -3.37536E-01
    8991.876     -4.099   1.040  3.46243E-01  6.80057E-01 -3.33814E-01
    8992.199     -3.776   1.080  3.64762E-01  6.94617E-01 -3.29856E-01
    8992.535     -3.441   1.120  3.83915E-01  7.09053E-01 -3.25138E-01
    8992.882     -3.094   1.160  4.06013E-01  7.23369E-01 -3.17356E-01
    8993.242     -2.734   1.200  4.35475E-01  7.37546E-01 -3.02071E-01
    8993.614     -2.362   1.240  4.75306E-01  7.51560E-01 -2.76253E-01
    8993.998     -1.978   1.280  5.24025E-01  7.65365E-01 -2.41340E-01
    8994.394     -1.582   1.320  5.78457E-01  7.78956E-01 -2.00499E-01
    8994.802     -1.173   1.360  6.39332E-01  7.92306E-01 -1.52974E-01
    8995.223     -0.753   1.400  7.12780E-01  8.05382E-01 -9.26021E-02
    8995.656     -0.320   1.440  8.03403E-01  8.18136E-01 -1.47325E-02
    8996.101      0.125   1.480  8.99150E-01  8.30580E-01  6.85707E-02
    8996.558      0.582   1.520  9.75412E-01  8.42662E-01  1.32750E-01
    8997.027      1.052   1.560  1.01927E+00  8.54375E-01  1.64896E-01
    8997.509      1.533   1.600  1.03119E+00  8.65692E-01  1.65496E-01
    8998.003      2.027   1.640  1.02489E+00  8.76603E-01  1.48289E-01
    8998.509      2.533   1.680  1.02444E+00  8.87081E-01  1.37360E-01
    8999.027      3.051   1.720  1.04729E+00  8.97102E-01  1.50188E-01
    8999.557      3.581   1.760  1.09913E+00  9.06661E-01  1.92470E-01
    9000.100      4.124   1.800  1.17870E+00  9.15775E-01  2.62921E-01
    9000.654      4.679   1.840  1.27674E+00  9.24402E-01  3.52340E-01
    9001.221      5.246   1.880  1.37514E+00  9.32561E-01  4.42581E-01
    9001.801      5.825   1.920  1.45251E+00  9.40252E-01  5.12260E-01
    9002.392      6.416   1.960  1.49668E+00  9.47455E-01  5.49222E-01
    9002.995      7.020   2.000  1.50334E+00  9.54195E-01  5.49145E-01
    9003.611      7.635   2.040  1.46512E+00  9.60454E-01  5.04670E-01
    9004.239      8.263   2.080  1.38434E+00  9.66276E-01  4.18068E-01
    9004.879      8.903   2.120  1.28093E+00  9.71649E-01  3.09279E-01
    9005.531      9.556   2.160  1.18206E+00  9.76575E-01  2.05485E-01
    9006.196     10.220   2.200  1.10574E+00  9.81082E-01  1.24655E-01
    9006.872     10.897   2.240  1.05379E+00  9.85179E-01  6.86085E-02
    9007.561     11.585   2.280  1.02087E+00  9.88872E-01  3.19980E-02
    9008.262     12.287   2.320  1.00140E+00  9.92210E-01  9.19278E-03
    9008.975     13.000   2.360  9.88621E-01  9.95160E-01 -6.53841E-03
    9009.701     13.725   2.400  9.76215E-01  9.97771E-01 -2.15565E-02
    9010.439     14.463   2.440  9.63061E-01  1.00005E+00 -3.69938E-02
    9011.188     15.213   2.480  9.53886E-01  1.00202E+00 -4.81302E-02
    9011.950     15.975   2.520  9.53111E-01  1.00369E+00 -5.05748E-02
    9012.724     16.749   2.560  9.63667E-01  1.00507E+00 -4.14079E-02
    9013.511     17.535   2.600  9.88567E-01  1.00623E+00 -1.76654E-02
    9014.309     18.334   2.640  1.02046E+00  1.00713E+00  1.33303E-02
    9015.120     19.144   2.680  1.03932E+00  1.00780E+00  3.15175E-02
    9015.943     19.967   2.720  1.04083E+00  1.00828E+00  3.25471E-02
    9016.778     20.803   2.760  1.02952E+00  1.00855E+00  2.09615E-02
    9017.626     21.650   2.800  1.00865E+00  1.00868E+00 -3.63040E-05
    9018.485     22.509   2.840  9.82876E-01  1.00863E+00 -2.57530E-02
    9019.357     23.381   2.880  9.56943E-01  1.00844E+00 -5.14992E-02
    9020.241     24.265   2.920  9.33138E-01  1.00813E+00 -7.49910E-02
    9021.137     25.161   2.960  9.12147E-01  1.00770E+00 -9.55521E-02
    9022.045     26.070   3.000  8.93626E-01  1.00718E+00 -1.13552E-01
    9022.966     26.990   3.040  8.77238E-01  1.00657E+00 -1.29335E-01
    9023.898     27.923   3.080  8.63466E-01  1.00589E+00 -1.42423E-01
    9024.843     28.868   3.120  8.52917E-01  1.00515E+00 -1.52236E-01
    9025.800     29.825   3.160  8.46238E-01  1.00435E+00 -1.58111E-01
    9026.770     30.794   3.200  8.43949E-01  1.00352E+00 -1.59575E-01
    9027.751     31.775   3.240  8.45878E-01  1.00264E+00 -1.56764E-01
    9028.745     32.769   3.280  8.51495E-01  1.00177E+00 -1.50274E-01
    9029.751     33.775   3.320  8.60198E-01  1.00087E+00 -1.40670E-01
    9030.769     34.793   3.360  8.71567E-01  9.99962E-01 -1.28396E-01
    9031.799     35.823   3.400  8.84895E-01  9.99057E-01 -1.14162E-01
    9032.841     36.865   3.440  8.99617E-01  9.98154E-01 -9.85371E-02
    9033.896     37.920   3.480  9.15342E-01  9.97278E-01 -8.19366E-02
    9034.963     38.987   3.520  9.31714E-01  9.96412E-01 -6.46981E-02
    9036.042     40.066   3.560  9.48559E-01  9.95578E-01 -4.70190E-02
    9037.133     41.157   3.600  9.65781E-01  9.94778E-01 -2.89972E-02
    9038.236     42.260   3.640  9.83147E-01  9.93993E-01 -1.08455E-02
    9039.352     43.376   3.680  1.00028E+00  9.93267E-01  7.01512E-03
    9040.479     44.504   3.720  1.01668E+00  9.92561E-01  2.41176E-02
    9041.619     45.644   3.760  1.03196E+00  9.91918E-01  4.00385E-02
    9042.772     46.796   3.800  1.04563E+00  9.91317E-01  5.43122E-02
    9043.936     47.960   3.840  1.05725E+00  9.90759E-01  6.64867E-02
    9045.112     49.137   3.880  1.06640E+00  9.90266E-01  7.61368E-02
    9046.301     50.325   3.920  1.07266E+00  9.89797E-01  8.28675E-02
    9047.502     51.526   3.960  1.07585E+00  9.89394E-01  8.64572E-02
    9048.715     52.739   4.000  1.07618E+00  9.89058E-01  8.71266E-02
    9049.940     53.965   4.040  1.07419E+00  9.88745E-01  8.54447E-02
    9051.178     55.202   4.080  1.07070E+00  9.88497E-01  8.22014E-02
    9052.428     56.452   4.120  1.06656E+00  9.88296E-01  7.82670E-02
    9053.689     57.714   4.160  1.06258E+00  9.88163E-01  7.44182E-02
    9054.964     58.988   4.200  1.05911E+00  9.88073E-01  7.10409E-02
    9056.250     60.274   4.240  1.05607E+00  9.88026E-01  6.80408E-02
    9057.548     61.572   4.280  1.05298E+00  9.88021E-01  6.49589E-02
    9058.859     62.883   4.320  1.04916E+00  9.88058E-01  6.11007E-02
    9060.182     64.206   4.360  1.04404E+00  9.88158E-01  5.58805E-02
    9061.517     65.541   4.400  1.03746E+00  9.88278E-01  4.91868E-02
    9062.864     66.888   4.440  1.02994E+00  9.88457E-01  4.14866E-02
    9064.223     68.248   4.480  1.02225E+00  9.88654E-01  3.35953E-02
    9065.595     69.619   4.520  1.01530E+00  9.88886E-01  2.64187E-02
    9066.979     71.003   4.560  1.00985E+00  9.89154E-01  2.06964E-02
    9068.375     72.399   4.600  1.00626E+00  9.89459E-01  1.67980E-02
    9069.783     73.807   4.640  1.00443E+00  9.89797E-01  1.46290E-02
    9071.203     75.227   4.680  1.00370E+00  9.90143E-01  1.35608E-02
    9072.636     76.660   4.720  1.00298E+00  9.90497E-01  1.24798E-02
    9074.080     78.105   4.760  1.00096E+00  9.90880E-01  1.00800E-02
    9075.537     79.562   4.800  9.96592E-01  9.91271E-01  5.32135E-03
    9077.007     81.031   4.840  9.89550E-01  9.91689E-01 -2.13859E-03
    9078.488     82.512   4.880  9.80344E-01  9.92109E-01 -1.17649E-02
    9079.981     84.006   4.920  9.70072E-01  9.92531E-01 -2.24596E-02
    9081.487     85.511   4.960  9.59946E-01  9.92953E-01 -3.30073E-02
    9083.005     87.029   5.000  9.50936E-01  9.93373E-01 -4.24368E-02
    9084.535     88.559   5.040  9.43621E-01  9.93789E-01 -5.01687E-02
    9086.077     90.102   5.080  9.38267E-01  9.94181E-01 -5.59132E-02
    9087.632     91.656   5.120  9.35012E-01  9.94589E-01 -5.95772E-02
    9089.198     93.223   5.160  9.33798E-01  9.94970E-01 -6.11722E-02
    9090.777     94.802   5.200  9.34592E-01  9.95342E-01 -6.07500E-02
    9092.368     96.393   5.240  9.37251E-01  9.95683E-01 -5.84316E-02
    9093.972     97.996   5.280  9.41552E-01  9.96013E-01 -5.44606E-02
    9095.587     99.611   5.320  9.47037E-01  9.96309E-01 -4.92723E-02
    9097.215    101.239   5.360  9.53117E-01  9.96570E-01 -4.34530E-02
    9098.855    102.879   5.400  9.59056E-01  9.96819E-01 -3.77628E-02
    9100.507    104.531   5.440  9.64097E-01  9.97035E-01 -3.29377E-02
    9102.171    106.195   5.480  9.67889E-01  9.97236E-01 -2.93469E-02
    9103.847    107.871   5.520  9.70659E-01  9.97377E-01 -2.67180E-02
    9105.536    109.560   5.560  9.73214E-01  9.97503E-01 -2.42892E-02
    9107.236    111.261   5.600  9.76422E-01  9.97591E-01 -2.11690E-02
    9108.949    112.974   5.640  9.80904E-01  9.97640E-01 -1.67357E-02
    9110.675    114.699   5.680  9.86770E-01  9.97651E-01 -1.08806E-02
    9112.412    116.436   5.720  9.93543E-01  9.97623E-01 -4.08067E-03
    9114.162    118.186   5.760  1.00039E+00  9.97581E-01  2.80810E-03
    9115.923    119.948   5.800  1.00644E+00  9.97475E-01  8.96559E-03
    9117.697    121.721   5.840  1.01131E+00  9.97331E-01  1.39798E-02
    9119.483    123.508   5.880  1.01504E+00  9.97173E-01  1.78633E-02
    9121.282    125.306   5.920  1.01770E+00  9.96955E-01  2.07412E-02
    9123.092    127.116   5.960  1.01928E+00  9.96722E-01  2.25536E-02
    9124.915    128.939   6.000  1.01954E+00  9.96401E-01  2.31415E-02
