# # comment:                                                     FEFF 9.9.1  
# # Source:
# # Structure
# # Reduced
# # space
# # abc:
# # angles:
# # sites:
# # POT  SCF 100  7.0000   0, screened core-hole, AFOLP (folp(0)= 1.150)
# # Abs   Z=29 Rmt= 1.267 Rnm= 1.356 K  shell
# # Pot 1 Z=29 Rmt= 1.267 Rnm= 1.356
# # Pot 2 Z=83 Rmt= 1.654 Rnm= 1.731
# # Pot 3 Z=34 Rmt= 1.106 Rnm= 1.332
# # Pot 4 Z= 8 Rmt= 0.930 Rnm= 1.075
# # Gam_ch=1.729E+00 H-L exch Vi= 0.000E+00 Vr= 0.000E+00
# # Mu=-4.783E+00eV kf=2.289E+00 Vint=-1.503E+01eV Rs_int= 1.585
# FMS rfms= 9.0000
# # PATH  Rmax=-1.000,  Keep_limit= 0.00, Heap_limit 0.00  Pwcrit= 2.50%
#  S02=0.950  Temp=   0.00  Debye_temp=   0.00  Global_sig2= 0.00000
#  Energy zero shift, vr, vi    0.00000E+00   0.00000E+00
#  Curved wave amplitude ratio filter   4.000%
#     file         sig2 tot  cw amp ratio   deg  nlegs   reff  inp sig2
#     0/   0 paths used
#  xsedge+ 50, used to normalize mu           2.4549E-04
#  -----------------------------------------------------------------------
#  omega    e    k    mu    mu0     chi     @#
    8983.232     -8.593  -1.000  4.91213E-02  5.82787E-02 -9.15743E-03
    8983.531     -8.295  -0.960  5.23561E-02  6.26667E-02 -1.03106E-02
    8983.818     -8.008  -0.920  5.59133E-02  6.75567E-02 -1.16434E-02
    8984.092     -7.734  -0.880  5.98350E-02  7.30238E-02 -1.31888E-02
    8984.354     -7.472  -0.840  6.41694E-02  7.91555E-02 -1.49861E-02
    8984.604     -7.222  -0.800  6.89711E-02  8.60537E-02 -1.70827E-02
    8984.842     -6.984  -0.760  7.43009E-02  9.38352E-02 -1.95343E-02
    8985.067     -6.759  -0.720  8.02260E-02  1.02632E-01 -2.24062E-02
    8985.281     -6.545  -0.680  8.68180E-02  1.12590E-01 -2.57724E-02
    8985.482     -6.344  -0.640  9.41503E-02  1.23864E-01 -2.97140E-02
    8985.671     -6.155  -0.600  1.02292E-01  1.36606E-01 -3.43135E-02
    8985.848     -5.978  -0.560  1.11299E-01  1.50945E-01 -3.96451E-02
    8986.012     -5.814  -0.520  1.21201E-01  1.66959E-01 -4.57586E-02
    8986.165     -5.661  -0.480  1.31979E-01  1.84635E-01 -5.26564E-02
    8986.305     -5.521  -0.440  1.43548E-01  2.03816E-01 -6.02674E-02
    8986.433     -5.393  -0.400  1.55739E-01  2.24164E-01 -6.84247E-02
    8986.549     -5.277  -0.360  1.68287E-01  2.45148E-01 -7.68611E-02
    8986.652     -5.174  -0.320  1.80846E-01  2.66078E-01 -8.52320E-02
    8986.744     -5.082  -0.280  1.93020E-01  2.86187E-01 -9.31672E-02
    8986.823     -5.003  -0.240  2.04408E-01  3.04742E-01 -1.00334E-01
    8986.890     -4.936  -0.200  2.14640E-01  3.21129E-01 -1.06489E-01
    8986.945     -4.881  -0.160  2.23405E-01  3.34903E-01 -1.11498E-01
    8986.988     -4.838  -0.120  2.30461E-01  3.45782E-01 -1.15321E-01
    8987.018     -4.808  -0.080  2.35632E-01  3.53614E-01 -1.17982E-01
    8987.042     -4.783   0.000  2.39877E-01  3.59902E-01 -1.20025E-01
    8987.097     -4.729   0.120  2.49587E-01  3.74091E-01 -1.24504E-01
    8987.140     -4.686   0.160  2.57220E-01  3.85077E-01 -1.27857E-01
    8987.195     -4.631   0.200  2.67238E-01  3.99105E-01 -1.31867E-01
    8987.262     -4.564   0.240  2.79720E-01  4.15927E-01 -1.36208E-01
    8987.341     -4.485   0.280  2.94808E-01  4.35202E-01 -1.40394E-01
    8987.433     -4.393   0.320  3.12571E-01  4.56383E-01 -1.43812E-01
    8987.536     -4.290   0.360  3.33064E-01  4.78801E-01 -1.45737E-01
    8987.652     -4.174   0.400  3.56291E-01  5.01790E-01 -1.45499E-01
    8987.780     -4.046   0.440  3.82028E-01  5.24703E-01 -1.42675E-01
    8987.920     -3.906   0.480  4.09794E-01  5.47033E-01 -1.37239E-01
    8988.073     -3.753   0.520  4.38718E-01  5.68472E-01 -1.29754E-01
    8988.237     -3.589   0.560  4.67590E-01  5.88859E-01 -1.21269E-01
    8988.414     -3.412   0.600  4.95146E-01  6.08177E-01 -1.13031E-01
    8988.603     -3.223   0.640  5.20338E-01  6.26453E-01 -1.06115E-01
    8988.804     -3.022   0.680  5.42520E-01  6.43803E-01 -1.01283E-01
    8989.018     -2.808   0.720  5.61112E-01  6.60335E-01 -9.92231E-02
    8989.243     -2.583   0.760  5.75056E-01  6.76180E-01 -1.01124E-01
    8989.481     -2.345   0.800  5.82347E-01  6.91394E-01 -1.09047E-01
    8989.731     -2.095   0.840  5.81277E-01  7.06104E-01 -1.24827E-01
    8989.993     -1.833   0.880  5.72770E-01  7.20376E-01 -1.47606E-01
    8990.267     -1.559   0.920  5.60779E-01  7.34243E-01 -1.73464E-01
    8990.554     -1.272   0.960  5.49530E-01  7.47745E-01 -1.98216E-01
    8990.852     -0.973   1.000  5.41433E-01  7.60930E-01 -2.19497E-01
    8991.163     -0.663   1.040  5.36895E-01  7.73812E-01 -2.36917E-01
    8991.486     -0.339   1.080  5.34589E-01  7.86400E-01 -2.51810E-01
    8991.822     -0.004   1.120  5.33105E-01  7.98675E-01 -2.65569E-01
    8992.169      0.343   1.160  5.33752E-01  8.10652E-01 -2.76900E-01
    8992.529      0.703   1.200  5.39987E-01  8.22322E-01 -2.82335E-01
    8992.901      1.075   1.240  5.55071E-01  8.33652E-01 -2.78581E-01
    8993.285      1.459   1.280  5.81849E-01  8.44688E-01 -2.62839E-01
    8993.681      1.855   1.320  6.22402E-01  8.55371E-01 -2.32969E-01
    8994.089      2.263   1.360  6.75587E-01  8.65683E-01 -1.90096E-01
    8994.510      2.684   1.400  7.34898E-01  8.75643E-01 -1.40745E-01
    8994.943      3.117   1.440  7.94229E-01  8.85231E-01 -9.10012E-02
    8995.388      3.562   1.480  8.54519E-01  8.94428E-01 -3.99087E-02
    8995.845      4.019   1.520  9.17879E-01  9.03231E-01  1.46482E-02
    8996.314      4.489   1.560  9.81909E-01  9.11621E-01  7.02883E-02
    8996.796      4.970   1.600  1.04001E+00  9.19619E-01  1.20389E-01
    8997.290      5.464   1.640  1.08008E+00  9.27185E-01  1.52893E-01
    8997.796      5.970   1.680  1.10047E+00  9.34338E-01  1.66129E-01
    8998.314      6.488   1.720  1.12470E+00  9.41084E-01  1.83621E-01
    8998.844      7.018   1.760  1.17180E+00  9.47404E-01  2.24392E-01
    8999.387      7.561   1.800  1.23335E+00  9.53320E-01  2.80026E-01
    8999.942      8.116   1.840  1.28512E+00  9.58839E-01  3.26280E-01
    9000.508      8.683   1.880  1.30467E+00  9.63944E-01  3.40725E-01
    9001.088      9.262   1.920  1.28909E+00  9.68681E-01  3.20408E-01
    9001.679      9.853   1.960  1.25262E+00  9.73017E-01  2.79600E-01
    9002.282     10.456   2.000  1.21746E+00  9.76997E-01  2.40464E-01
    9002.898     11.072   2.040  1.20473E+00  9.80629E-01  2.24097E-01
    9003.526     11.700   2.080  1.21988E+00  9.83922E-01  2.35956E-01
    9004.166     12.340   2.120  1.25072E+00  9.86882E-01  2.63837E-01
    9004.818     12.992   2.160  1.27766E+00  9.89537E-01  2.88126E-01
    9005.483     13.657   2.200  1.28998E+00  9.91875E-01  2.98106E-01
    9006.159     14.334   2.240  1.29036E+00  9.93946E-01  2.96410E-01
    9006.848     15.022   2.280  1.27888E+00  9.95758E-01  2.83119E-01
    9007.549     15.723   2.320  1.25330E+00  9.97320E-01  2.55983E-01
    9008.263     16.437   2.360  1.21803E+00  9.98660E-01  2.19373E-01
    9008.988     17.162   2.400  1.17602E+00  9.99766E-01  1.76254E-01
    9009.726     17.900   2.440  1.12760E+00  1.00067E+00  1.26930E-01
    9010.475     18.649   2.480  1.07649E+00  1.00141E+00  7.50764E-02
    9011.237     19.411   2.520  1.02926E+00  1.00196E+00  2.72938E-02
    9012.012     20.186   2.560  9.92835E-01  1.00235E+00 -9.51903E-03
    9012.798     20.972   2.600  9.67864E-01  1.00261E+00 -3.47480E-02
    9013.597     21.771   2.640  9.47393E-01  1.00277E+00 -5.53733E-02
    9014.407     22.581   2.680  9.27954E-01  1.00278E+00 -7.48256E-02
    9015.230     23.404   2.720  9.17365E-01  1.00272E+00 -8.53550E-02
    9016.065     24.239   2.760  9.12770E-01  1.00255E+00 -8.97826E-02
    9016.913     25.087   2.800  9.10080E-01  1.00231E+00 -9.22259E-02
    9017.772     25.946   2.840  9.07328E-01  1.00200E+00 -9.46761E-02
    9018.644     26.818   2.880  9.03445E-01  1.00166E+00 -9.82098E-02
    9019.528     27.702   2.920  8.97941E-01  1.00126E+00 -1.03323E-01
    9020.424     28.598   2.960  8.90964E-01  1.00083E+00 -1.09868E-01
    9021.332     29.506   3.000  8.83349E-01  1.00039E+00 -1.17037E-01
    9022.253     30.427   3.040  8.75926E-01  9.99910E-01 -1.23984E-01
    9023.185     31.360   3.080  8.69483E-01  9.99427E-01 -1.29944E-01
    9024.130     32.304   3.120  8.64999E-01  9.98941E-01 -1.33942E-01
    9025.087     33.262   3.160  8.62551E-01  9.98458E-01 -1.35906E-01
    9026.057     34.231   3.200  8.62196E-01  9.97998E-01 -1.35802E-01
    9027.038     35.212   3.240  8.63808E-01  9.97543E-01 -1.33735E-01
    9028.032     36.206   3.280  8.67031E-01  9.97097E-01 -1.30066E-01
    9029.038     37.212   3.320  8.71622E-01  9.96682E-01 -1.25060E-01
    9030.056     38.230   3.360  8.77685E-01  9.96303E-01 -1.18617E-01
    9031.086     39.260   3.400  8.85635E-01  9.95958E-01 -1.10323E-01
    9032.128     40.302   3.440  8.95450E-01  9.95649E-01 -1.00198E-01
    9033.183     41.357   3.480  9.07049E-01  9.95358E-01 -8.83085E-02
    9034.250     42.424   3.520  9.20194E-01  9.95126E-01 -7.49314E-02
    9035.329     43.503   3.560  9.34506E-01  9.94911E-01 -6.04053E-02
    9036.420     44.594   3.600  9.49761E-01  9.94758E-01 -4.49969E-02
    9037.523     45.697   3.640  9.65711E-01  9.94646E-01 -2.89346E-02
    9038.639     46.813   3.680  9.82000E-01  9.94553E-01 -1.25529E-02
    9039.767     47.941   3.720  9.98233E-01  9.94521E-01  3.71227E-03
    9040.906     49.081   3.760  1.01398E+00  9.94531E-01  1.94531E-02
    9042.059     50.233   3.800  1.02866E+00  9.94584E-01  3.40788E-02
    9043.223     51.397   3.840  1.04149E+00  9.94699E-01  4.67869E-02
    9044.399     52.574   3.880  1.05181E+00  9.94832E-01  5.69757E-02
    9045.588     53.762   3.920  1.05947E+00  9.95002E-01  6.44729E-02
    9046.789     54.963   3.960  1.06479E+00  9.95211E-01  6.95756E-02
    9048.002     56.176   4.000  1.06838E+00  9.95458E-01  7.29198E-02
    9049.227     57.402   4.040  1.07089E+00  9.95741E-01  7.51460E-02
    9050.465     58.639   4.080  1.07270E+00  9.96061E-01  7.66389E-02
    9051.715     59.889   4.120  1.07382E+00  9.96392E-01  7.74275E-02
    9052.977     61.151   4.160  1.07411E+00  9.96758E-01  7.73547E-02
    9054.251     62.425   4.200  1.07329E+00  9.97156E-01  7.61356E-02
    9055.537     63.711   4.240  1.07108E+00  9.97566E-01  7.35181E-02
    9056.835     65.009   4.280  1.06746E+00  9.98005E-01  6.94578E-02
    9058.146     66.320   4.320  1.06268E+00  9.98472E-01  6.42033E-02
    9059.469     67.643   4.360  1.05716E+00  9.98924E-01  5.82400E-02
    9060.804     68.978   4.400  1.05167E+00  9.99401E-01  5.22698E-02
    9062.151     70.325   4.440  1.04700E+00  9.99882E-01  4.71190E-02
    9063.510     71.684   4.480  1.04377E+00  1.00039E+00  4.33825E-02
    9064.882     73.056   4.520  1.04214E+00  1.00087E+00  4.12687E-02
    9066.266     74.440   4.560  1.04186E+00  1.00135E+00  4.05038E-02
    9067.662     75.836   4.600  1.04222E+00  1.00185E+00  4.03689E-02
    9069.070     77.244   4.640  1.04224E+00  1.00233E+00  3.99075E-02
    9070.490     78.664   4.680  1.04101E+00  1.00280E+00  3.82153E-02
    9071.923     80.097   4.720  1.03787E+00  1.00324E+00  3.46316E-02
    9073.368     81.542   4.760  1.03249E+00  1.00369E+00  2.87954E-02
    9074.824     82.999   4.800  1.02471E+00  1.00410E+00  2.06135E-02
    9076.294     84.468   4.840  1.01474E+00  1.00451E+00  1.02343E-02
    9077.775     85.949   4.880  1.00303E+00  1.00487E+00 -1.83956E-03
    9079.268     87.443   4.920  9.90524E-01  1.00524E+00 -1.47137E-02
    9080.774     88.948   4.960  9.78223E-01  1.00555E+00 -2.73276E-02
    9082.292     90.466   5.000  9.67137E-01  1.00585E+00 -3.87115E-02
    9083.822     91.996   5.040  9.57919E-01  1.00611E+00 -4.81910E-02
    9085.364     93.539   5.080  9.50899E-01  1.00633E+00 -5.54348E-02
    9086.919     95.093   5.120  9.46131E-01  1.00654E+00 -6.04120E-02
    9088.486     96.660   5.160  9.43317E-01  1.00671E+00 -6.33963E-02
    9090.064     98.239   5.200  9.42124E-01  1.00682E+00 -6.46974E-02
    9091.655     99.830   5.240  9.42390E-01  1.00691E+00 -6.45217E-02
    9093.259    101.433   5.280  9.44094E-01  1.00696E+00 -6.28690E-02
    9094.874    103.048   5.320  9.47362E-01  1.00698E+00 -5.96141E-02
    9096.502    104.676   5.360  9.52330E-01  1.00695E+00 -5.46195E-02
    9098.142    106.316   5.400  9.59004E-01  1.00691E+00 -4.79016E-02
    9099.794    107.968   5.440  9.66992E-01  1.00680E+00 -3.98066E-02
    9101.458    109.632   5.480  9.75638E-01  1.00665E+00 -3.10126E-02
    9103.134    111.308   5.520  9.84125E-01  1.00649E+00 -2.23615E-02
    9104.823    112.997   5.560  9.91640E-01  1.00626E+00 -1.46212E-02
    9106.524    114.698   5.600  9.97760E-01  1.00602E+00 -8.26024E-03
    9108.237    116.411   5.640  1.00238E+00  1.00574E+00 -3.36394E-03
    9109.962    118.136   5.680  1.00571E+00  1.00542E+00  2.84827E-04
    9111.699    119.873   5.720  1.00809E+00  1.00507E+00  3.02544E-03
    9113.449    121.623   5.760  1.00984E+00  1.00468E+00  5.15928E-03
    9115.210    123.384   5.800  1.01111E+00  1.00428E+00  6.83788E-03
    9116.984    125.158   5.840  1.01185E+00  1.00384E+00  8.00364E-03
    9118.770    126.944   5.880  1.01177E+00  1.00338E+00  8.39582E-03
    9120.569    128.743   5.920  1.01061E+00  1.00291E+00  7.70003E-03
    9122.379    130.553   5.960  1.00825E+00  1.00241E+00  5.83641E-03
    9124.202    132.376   6.000  1.00496E+00  1.00187E+00  3.08875E-03
