# # comment:                                                     FEFF 9.9.1  
# # Source:
# # Structure
# # Reduced
# # space
# # abc:
# # angles:120.000000
# # sites:
# # POT  SCF 100  7.0000   0, screened core-hole, AFOLP (folp(0)= 1.150)
# # Abs   Z=29 Rmt= 1.239 Rnm= 1.310 K  shell
# # Pot 1 Z=67 Rmt= 1.661 Rnm= 1.706
# # Pot 2 Z=22 Rmt= 1.267 Rnm= 1.396
# # Pot 3 Z=29 Rmt= 1.224 Rnm= 1.301
# # Pot 4 Z= 8 Rmt= 1.030 Rnm= 1.099
# # Gam_ch=1.729E+00 H-L exch Vi= 0.000E+00 Vr= 0.000E+00
# # Mu=-1.041E+01eV kf=2.197E+00 Vint=-1.932E+01eV Rs_int= 1.651
# FMS rfms= 9.0000
# # PATH  Rmax=-1.000,  Keep_limit= 0.00, Heap_limit 0.00  Pwcrit= 2.50%
#  S02=0.950  Temp=   0.00  Debye_temp=   0.00  Global_sig2= 0.00000
#  Energy zero shift, vr, vi    0.00000E+00   0.00000E+00
#  Curved wave amplitude ratio filter   4.000%
#     file         sig2 tot  cw amp ratio   deg  nlegs   reff  inp sig2
#     0/   0 paths used
#  xsedge+ 50, used to normalize mu           2.4865E-04
#  -----------------------------------------------------------------------
#  omega    e    k    mu    mu0     chi     @#
    8984.974    -14.223  -1.000  3.57857E-02  4.92120E-02 -1.34263E-02
    8985.273    -13.925  -0.960  3.75550E-02  5.26743E-02 -1.51194E-02
    8985.559    -13.638  -0.920  3.94400E-02  5.65140E-02 -1.70740E-02
    8985.834    -13.364  -0.880  4.14503E-02  6.07859E-02 -1.93356E-02
    8986.096    -13.102  -0.840  4.35965E-02  6.55542E-02 -2.19578E-02
    8986.346    -12.852  -0.800  4.58899E-02  7.08931E-02 -2.50032E-02
    8986.583    -12.614  -0.760  4.83428E-02  7.68876E-02 -2.85448E-02
    8986.809    -12.389  -0.720  5.09680E-02  8.36337E-02 -3.26657E-02
    8987.022    -12.175  -0.680  5.37788E-02  9.12371E-02 -3.74584E-02
    8987.223    -11.974  -0.640  5.67876E-02  9.98095E-02 -4.30219E-02
    8987.412    -11.785  -0.600  6.00050E-02  1.09460E-01 -4.94550E-02
    8987.589    -11.608  -0.560  6.34372E-02  1.20282E-01 -5.68448E-02
    8987.754    -11.444  -0.520  6.70829E-02  1.32330E-01 -6.52473E-02
    8987.906    -11.291  -0.480  7.09291E-02  1.45592E-01 -7.46626E-02
    8988.046    -11.151  -0.440  7.49455E-02  1.59950E-01 -8.50044E-02
    8988.174    -11.023  -0.400  7.90810E-02  1.75156E-01 -9.60755E-02
    8988.290    -10.907  -0.360  8.32608E-02  1.90821E-01 -1.07560E-01
    8988.394    -10.804  -0.320  8.73894E-02  2.06436E-01 -1.19047E-01
    8988.485    -10.712  -0.280  9.13573E-02  2.21439E-01 -1.30082E-01
    8988.565    -10.633  -0.240  9.50517E-02  2.35288E-01 -1.40236E-01
    8988.632    -10.566  -0.200  9.83662E-02  2.47528E-01 -1.49162E-01
    8988.686    -10.511  -0.160  1.01209E-01  2.57827E-01 -1.56618E-01
    8988.729    -10.468  -0.120  1.03505E-01  2.65969E-01 -1.62464E-01
    8988.760    -10.438  -0.080  1.05199E-01  2.71837E-01 -1.66638E-01
    8988.784    -10.413   0.000  1.06615E-01  2.76553E-01 -1.69938E-01
    8988.839    -10.359   0.120  1.09771E-01  2.87193E-01 -1.77422E-01
    8988.882    -10.316   0.160  1.12218E-01  2.95456E-01 -1.83238E-01
    8988.936    -10.261   0.200  1.15427E-01  3.06027E-01 -1.90600E-01
    8989.003    -10.194   0.240  1.19396E-01  3.18746E-01 -1.99350E-01
    8989.083    -10.115   0.280  1.24165E-01  3.33366E-01 -2.09201E-01
    8989.174    -10.023   0.320  1.29749E-01  3.49524E-01 -2.19775E-01
    8989.278     -9.920   0.360  1.36145E-01  3.66769E-01 -2.30624E-01
    8989.394     -9.804   0.400  1.43303E-01  3.84601E-01 -2.41299E-01
    8989.522     -9.676   0.440  1.51176E-01  4.02603E-01 -2.51427E-01
    8989.662     -9.536   0.480  1.59662E-01  4.20415E-01 -2.60753E-01
    8989.814     -9.383   0.520  1.68599E-01  4.37823E-01 -2.69224E-01
    8989.979     -9.219   0.560  1.77801E-01  4.54711E-01 -2.76910E-01
    8990.156     -9.042   0.600  1.87148E-01  4.71070E-01 -2.83922E-01
    8990.345     -8.853   0.640  1.96658E-01  4.86952E-01 -2.90294E-01
    8990.546     -8.652   0.680  2.06934E-01  5.02419E-01 -2.95485E-01
    8990.759     -8.438   0.720  2.19644E-01  5.17566E-01 -2.97921E-01
    8990.985     -8.213   0.760  2.37564E-01  5.32464E-01 -2.94900E-01
    8991.222     -7.975   0.800  2.64026E-01  5.47197E-01 -2.83172E-01
    8991.472     -7.725   0.840  3.01940E-01  5.61800E-01 -2.59861E-01
    8991.734     -7.463   0.880  3.52115E-01  5.76335E-01 -2.24220E-01
    8992.009     -7.189   0.920  4.10037E-01  5.90850E-01 -1.80813E-01
    8992.295     -6.902   0.960  4.65927E-01  6.05345E-01 -1.39418E-01
    8992.594     -6.603   1.000  5.14229E-01  6.19851E-01 -1.05622E-01
    8992.905     -6.293   1.040  5.59543E-01  6.34370E-01 -7.48273E-02
    8993.228     -5.970   1.080  6.06814E-01  6.48898E-01 -4.20832E-02
    8993.563     -5.634   1.120  6.54848E-01  6.63441E-01 -8.59308E-03
    8993.911     -5.287   1.160  7.02284E-01  6.77947E-01  2.43373E-02
    8994.270     -4.927   1.200  7.43520E-01  6.92436E-01  5.10838E-02
    8994.642     -4.555   1.240  7.51267E-01  7.06865E-01  4.44023E-02
    8995.026     -4.171   1.280  7.05898E-01  7.21207E-01 -1.53086E-02
    8995.422     -3.775   1.320  6.36040E-01  7.35457E-01 -9.94161E-02
    8995.831     -3.367   1.360  5.79661E-01  7.49564E-01 -1.69903E-01
    8996.252     -2.946   1.400  5.58362E-01  7.63499E-01 -2.05137E-01
    8996.684     -2.513   1.440  5.83938E-01  7.77252E-01 -1.93313E-01
    8997.129     -2.068   1.480  6.57346E-01  7.90788E-01 -1.33442E-01
    8997.587     -1.611   1.520  7.57841E-01  8.04057E-01 -4.62158E-02
    8998.056     -1.141   1.560  8.46352E-01  8.17048E-01  2.93038E-02
    8998.538     -0.660   1.600  9.08886E-01  8.29747E-01  7.91386E-02
    8999.031     -0.166   1.640  9.41635E-01  8.42085E-01  9.95499E-02
    8999.537      0.340   1.680  9.25516E-01  8.54090E-01  7.14265E-02
    9000.055      0.858   1.720  8.62239E-01  8.65692E-01 -3.45238E-03
    9000.586      1.388   1.760  7.93099E-01  8.76923E-01 -8.38244E-02
    9001.128      1.931   1.800  7.62674E-01  8.87713E-01 -1.25039E-01
    9001.683      2.486   1.840  7.78551E-01  8.98056E-01 -1.19504E-01
    9002.250      3.053   1.880  8.26145E-01  9.07967E-01 -8.18219E-02
    9002.829      3.632   1.920  8.95404E-01  9.17419E-01 -2.20156E-02
    9003.420      4.223   1.960  9.78378E-01  9.26410E-01  5.19687E-02
    9004.024      4.826   2.000  1.06054E+00  9.34916E-01  1.25623E-01
    9004.640      5.442   2.040  1.11973E+00  9.42935E-01  1.76797E-01
    9005.267      6.070   2.080  1.15910E+00  9.50488E-01  2.08615E-01
    9005.908      6.710   2.120  1.20316E+00  9.57555E-01  2.45609E-01
    9006.560      7.362   2.160  1.26220E+00  9.64138E-01  2.98066E-01
    9007.224      8.027   2.200  1.33486E+00  9.70238E-01  3.64619E-01
    9007.901      8.704   2.240  1.39361E+00  9.75900E-01  4.17715E-01
    9008.590      9.392   2.280  1.39415E+00  9.81070E-01  4.13084E-01
    9009.291     10.093   2.320  1.35258E+00  9.85812E-01  3.66771E-01
    9010.004     10.807   2.360  1.32658E+00  9.90132E-01  3.36448E-01
    9010.729     11.532   2.400  1.32105E+00  9.94017E-01  3.27034E-01
    9011.467     12.270   2.440  1.28969E+00  9.97492E-01  2.92196E-01
    9012.217     13.019   2.480  1.20911E+00  1.00057E+00  2.08546E-01
    9012.979     13.781   2.520  1.11024E+00  1.00327E+00  1.06971E-01
    9013.753     14.556   2.560  1.02754E+00  1.00561E+00  2.19353E-02
    9014.539     15.342   2.600  9.77291E-01  1.00759E+00 -3.02974E-02
    9015.338     16.141   2.640  9.54560E-01  1.00926E+00 -5.47039E-02
    9016.149     16.951   2.680  9.41112E-01  1.01062E+00 -6.95106E-02
    9016.972     17.774   2.720  9.31282E-01  1.01167E+00 -8.03880E-02
    9017.807     18.609   2.760  9.25414E-01  1.01246E+00 -8.70454E-02
    9018.654     19.457   2.800  9.23488E-01  1.01300E+00 -8.95110E-02
    9019.514     20.316   2.840  9.24240E-01  1.01330E+00 -8.90574E-02
    9020.386     21.188   2.880  9.24686E-01  1.01336E+00 -8.86779E-02
    9021.269     22.072   2.920  9.22026E-01  1.01325E+00 -9.12220E-02
    9022.166     22.968   2.960  9.14980E-01  1.01294E+00 -9.79564E-02
    9023.074     23.876   3.000  9.04102E-01  1.01246E+00 -1.08357E-01
    9023.994     24.797   3.040  8.91046E-01  1.01182E+00 -1.20777E-01
    9024.927     25.730   3.080  8.77797E-01  1.01106E+00 -1.33261E-01
    9025.872     26.674   3.120  8.66388E-01  1.01017E+00 -1.43783E-01
    9026.829     27.632   3.160  8.58197E-01  1.00917E+00 -1.50971E-01
    9027.798     28.601   3.200  8.54412E-01  1.00808E+00 -1.53665E-01
    9028.780     29.582   3.240  8.55779E-01  1.00690E+00 -1.51125E-01
    9029.773     30.576   3.280  8.62206E-01  1.00568E+00 -1.43473E-01
    9030.779     31.582   3.320  8.72851E-01  1.00438E+00 -1.31533E-01
    9031.797     32.600   3.360  8.86594E-01  1.00305E+00 -1.16454E-01
    9032.827     33.630   3.400  9.02010E-01  1.00170E+00 -9.96857E-02
    9033.870     34.672   3.440  9.17183E-01  1.00031E+00 -8.31290E-02
    9034.924     35.727   3.480  9.30958E-01  9.98922E-01 -6.79640E-02
    9035.991     36.794   3.520  9.43150E-01  9.97528E-01 -5.43782E-02
    9037.070     37.873   3.560  9.54486E-01  9.96137E-01 -4.16502E-02
    9038.161     38.964   3.600  9.66066E-01  9.94751E-01 -2.86852E-02
    9039.265     40.067   3.640  9.78803E-01  9.93395E-01 -1.45918E-02
    9040.380     41.183   3.680  9.92910E-01  9.92072E-01  8.37704E-04
    9041.508     42.311   3.720  1.00778E+00  9.90766E-01  1.70174E-02
    9042.648     43.451   3.760  1.02226E+00  9.89521E-01  3.27427E-02
    9043.800     44.603   3.800  1.03447E+00  9.88318E-01  4.61540E-02
    9044.964     45.767   3.840  1.04205E+00  9.87160E-01  5.48866E-02
    9046.141     46.944   3.880  1.04304E+00  9.86068E-01  5.69752E-02
    9047.330     48.132   3.920  1.03659E+00  9.85023E-01  5.15641E-02
    9048.531     49.333   3.960  1.02365E+00  9.84027E-01  3.96188E-02
    9049.744     50.546   4.000  1.00696E+00  9.83103E-01  2.38556E-02
    9050.969     51.772   4.040  9.90169E-01  9.82253E-01  7.91581E-03
    9052.206     53.009   4.080  9.76953E-01  9.81478E-01 -4.52448E-03
    9053.456     54.259   4.120  9.70174E-01  9.80755E-01 -1.05810E-02
    9054.718     55.521   4.160  9.71534E-01  9.80107E-01 -8.57233E-03
    9055.992     56.795   4.200  9.81227E-01  9.79535E-01  1.69201E-03
    9057.278     58.081   4.240  9.97943E-01  9.79038E-01  1.89047E-02
    9058.577     59.379   4.280  1.01903E+00  9.78597E-01  4.04326E-02
    9059.887     60.690   4.320  1.04103E+00  9.78252E-01  6.27824E-02
    9061.210     62.013   4.360  1.06032E+00  9.77961E-01  8.23569E-02
    9062.545     63.348   4.400  1.07397E+00  9.77744E-01  9.62264E-02
    9063.892     64.695   4.440  1.08036E+00  9.77577E-01  1.02782E-01
    9065.252     66.054   4.480  1.07908E+00  9.77484E-01  1.01593E-01
    9066.623     67.426   4.520  1.07089E+00  9.77466E-01  9.34288E-02
    9068.007     68.810   4.560  1.05793E+00  9.77518E-01  8.04107E-02
    9069.403     70.206   4.600  1.04328E+00  9.77599E-01  6.56843E-02
    9070.811     71.614   4.640  1.03023E+00  9.77771E-01  5.24614E-02
    9072.232     73.034   4.680  1.02091E+00  9.77990E-01  4.29161E-02
    9073.664     74.467   4.720  1.01574E+00  9.78252E-01  3.74910E-02
    9075.109     75.912   4.760  1.01367E+00  9.78556E-01  3.51136E-02
    9076.566     77.369   4.800  1.01289E+00  9.78903E-01  3.39879E-02
    9078.035     78.838   4.840  1.01174E+00  9.79312E-01  3.24239E-02
    9079.516     80.319   4.880  1.00915E+00  9.79741E-01  2.94088E-02
    9081.010     81.813   4.920  1.00467E+00  9.80228E-01  2.44461E-02
    9082.516     83.318   4.960  9.97995E-01  9.80727E-01  1.72675E-02
    9084.034     84.836   5.000  9.89039E-01  9.81237E-01  7.80196E-03
    9085.564     86.366   5.040  9.77984E-01  9.81801E-01 -3.81734E-03
    9087.106     87.909   5.080  9.65070E-01  9.82352E-01 -1.72819E-02
    9088.660     89.463   5.120  9.50798E-01  9.82952E-01 -3.21541E-02
    9090.227     91.030   5.160  9.35703E-01  9.83535E-01 -4.78315E-02
    9091.806     92.608   5.200  9.20635E-01  9.84119E-01 -6.34840E-02
    9093.397     94.200   5.240  9.06547E-01  9.84727E-01 -7.81797E-02
    9095.000     95.803   5.280  8.94320E-01  9.85333E-01 -9.10137E-02
    9096.616     97.418   5.320  8.84758E-01  9.85913E-01 -1.01155E-01
    9098.243     99.046   5.360  8.78614E-01  9.86488E-01 -1.07874E-01
    9099.883    100.686   5.400  8.76414E-01  9.87056E-01 -1.10642E-01
    9101.535    102.338   5.440  8.78319E-01  9.87595E-01 -1.09275E-01
    9103.199    104.002   5.480  8.84032E-01  9.88122E-01 -1.04089E-01
    9104.876    105.678   5.520  8.92908E-01  9.88617E-01 -9.57083E-02
    9106.564    107.367   5.560  9.04539E-01  9.89098E-01 -8.45582E-02
    9108.265    109.068   5.600  9.19175E-01  9.89520E-01 -7.03450E-02
    9109.978    110.781   5.640  9.37670E-01  9.89926E-01 -5.22559E-02
    9111.703    112.506   5.680  9.60530E-01  9.90294E-01 -2.97639E-02
    9113.441    114.243   5.720  9.87090E-01  9.90621E-01 -3.53153E-03
    9115.190    115.993   5.760  1.01532E+00  9.90906E-01  2.44162E-02
    9116.952    117.754   5.800  1.04248E+00  9.91127E-01  5.13524E-02
    9118.726    119.528   5.840  1.06610E+00  9.91326E-01  7.47707E-02
    9120.512    121.314   5.880  1.08431E+00  9.91459E-01  9.28537E-02
    9122.310    123.113   5.920  1.09581E+00  9.91546E-01  1.04259E-01
    9124.121    124.923   5.960  1.09907E+00  9.91583E-01  1.07485E-01
    9125.943    126.746   6.000  1.09200E+00  9.91547E-01  1.00453E-01
