# # comment:                                                     FEFF 9.9.1  
# # Source:
# # Structure
# # Reduced
# # space
# # abc:
# # angles:
# # sites:
# # POT  SCF 100  7.0000   0, screened core-hole, AFOLP (folp(0)= 1.150)
# # Abs   Z=29 Rmt= 1.272 Rnm= 1.382 K  shell
# # Pot 1 Z=20 Rmt= 1.637 Rnm= 1.719
# # Pot 2 Z=29 Rmt= 1.339 Rnm= 1.411
# # Pot 3 Z=74 Rmt= 1.198 Rnm= 1.411
# # Pot 4 Z= 8 Rmt= 0.921 Rnm= 1.071
# # Gam_ch=1.729E+00 H-L exch Vi= 0.000E+00 Vr= 0.000E+00
# # Mu=-5.673E+00eV kf=2.246E+00 Vint=-1.572E+01eV Rs_int= 1.615
# FMS rfms= 9.0000
# # PATH  Rmax=-1.000,  Keep_limit= 0.00, Heap_limit 0.00  Pwcrit= 2.50%
#  S02=0.950  Temp=   0.00  Debye_temp=   0.00  Global_sig2= 0.00000
#  Energy zero shift, vr, vi    0.00000E+00   0.00000E+00
#  Curved wave amplitude ratio filter   4.000%
#     file         sig2 tot  cw amp ratio   deg  nlegs   reff  inp sig2
#     0/   0 paths used
#  xsedge+ 50, used to normalize mu           2.4574E-04
#  -----------------------------------------------------------------------
#  omega    e    k    mu    mu0     chi     @#
    8983.755     -9.483  -1.000  5.26811E-02  5.87459E-02 -6.06484E-03
    8984.054     -9.185  -0.960  5.62389E-02  6.31676E-02 -6.92862E-03
    8984.340     -8.898  -0.920  6.01659E-02  6.80943E-02 -7.92840E-03
    8984.614     -8.624  -0.880  6.45152E-02  7.36015E-02 -9.08629E-03
    8984.877     -8.362  -0.840  6.93496E-02  7.97774E-02 -1.04278E-02
    8985.127     -8.112  -0.800  7.47418E-02  8.67241E-02 -1.19822E-02
    8985.364     -7.874  -0.760  8.07761E-02  9.45589E-02 -1.37827E-02
    8985.590     -7.649  -0.720  8.75482E-02  1.03415E-01 -1.58663E-02
    8985.803     -7.435  -0.680  9.51644E-02  1.13438E-01 -1.82732E-02
    8986.004     -7.234  -0.640  1.03738E-01  1.24783E-01 -2.10453E-02
    8986.193     -7.045  -0.600  1.13379E-01  1.37603E-01 -2.42236E-02
    8986.370     -6.868  -0.560  1.24185E-01  1.52028E-01 -2.78430E-02
    8986.535     -6.704  -0.520  1.36210E-01  1.68136E-01 -3.19260E-02
    8986.687     -6.551  -0.480  1.49442E-01  1.85913E-01 -3.64719E-02
    8986.827     -6.411  -0.440  1.63755E-01  2.05202E-01 -4.14468E-02
    8986.955     -6.283  -0.400  1.78890E-01  2.25664E-01 -4.67733E-02
    8987.071     -6.167  -0.360  1.94438E-01  2.46764E-01 -5.23263E-02
    8987.175     -6.064  -0.320  2.09870E-01  2.67810E-01 -5.79394E-02
    8987.266     -5.972  -0.280  2.24611E-01  2.88031E-01 -6.34203E-02
    8987.345     -5.893  -0.240  2.38117E-01  3.06690E-01 -6.85729E-02
    8987.413     -5.826  -0.200  2.49953E-01  3.23170E-01 -7.32170E-02
    8987.467     -5.771  -0.160  2.59822E-01  3.37023E-01 -7.72007E-02
    8987.510     -5.728  -0.120  2.67559E-01  3.47965E-01 -8.04058E-02
    8987.541     -5.698  -0.080  2.73092E-01  3.55842E-01 -8.27500E-02
    8987.565     -5.673   0.000  2.77494E-01  3.62166E-01 -8.46718E-02
    8987.620     -5.619   0.120  2.87174E-01  3.76425E-01 -8.92510E-02
    8987.662     -5.576   0.160  2.94679E-01  3.87498E-01 -9.28185E-02
    8987.717     -5.521   0.200  3.04153E-01  4.01603E-01 -9.74502E-02
    8987.784     -5.454   0.240  3.15374E-01  4.18533E-01 -1.03158E-01
    8987.864     -5.375   0.280  3.28028E-01  4.37945E-01 -1.09917E-01
    8987.955     -5.283   0.320  3.41659E-01  4.59274E-01 -1.17615E-01
    8988.059     -5.180   0.360  3.55809E-01  4.81872E-01 -1.26062E-01
    8988.175     -5.064   0.400  3.70144E-01  5.05070E-01 -1.34926E-01
    8988.303     -4.936   0.440  3.84400E-01  5.28200E-01 -1.43800E-01
    8988.443     -4.796   0.480  3.98546E-01  5.50757E-01 -1.52210E-01
    8988.595     -4.643   0.520  4.12694E-01  5.72451E-01 -1.59757E-01
    8988.760     -4.479   0.560  4.26821E-01  5.93099E-01 -1.66277E-01
    8988.937     -4.302   0.600  4.40810E-01  6.12685E-01 -1.71876E-01
    8989.125     -4.113   0.640  4.54324E-01  6.31258E-01 -1.76935E-01
    8989.327     -3.912   0.680  4.67002E-01  6.48931E-01 -1.81929E-01
    8989.540     -3.698   0.720  4.78800E-01  6.65771E-01 -1.86971E-01
    8989.766     -3.473   0.760  4.90586E-01  6.81948E-01 -1.91362E-01
    8990.003     -3.235   0.800  5.04049E-01  6.97500E-01 -1.93451E-01
    8990.253     -2.985   0.840  5.21457E-01  7.12551E-01 -1.91094E-01
    8990.515     -2.723   0.880  5.44584E-01  7.27167E-01 -1.82583E-01
    8990.790     -2.449   0.920  5.73683E-01  7.41401E-01 -1.67717E-01
    8991.076     -2.162   0.960  6.07297E-01  7.55269E-01 -1.47973E-01
    8991.375     -1.864   1.000  6.44253E-01  7.68798E-01 -1.24545E-01
    8991.686     -1.553   1.040  6.85065E-01  7.82023E-01 -9.69582E-02
    8992.009     -1.230   1.080  7.30021E-01  7.94932E-01 -6.49107E-02
    8992.344     -0.894   1.120  7.77762E-01  8.07543E-01 -2.97816E-02
    8992.692     -0.547   1.160  8.26419E-01  8.19832E-01  6.58699E-03
    8993.051     -0.187   1.200  8.74087E-01  8.31808E-01  4.22789E-02
    8993.423      0.185   1.240  9.19824E-01  8.43457E-01  7.63666E-02
    8993.807      0.569   1.280  9.65662E-01  8.54743E-01  1.10919E-01
    8994.203      0.965   1.320  1.01435E+00  8.65687E-01  1.48666E-01
    8994.612      1.373   1.360  1.06328E+00  8.76250E-01  1.87026E-01
    8995.032      1.794   1.400  1.10399E+00  8.86431E-01  2.17562E-01
    8995.465      2.227   1.440  1.13027E+00  8.96209E-01  2.34060E-01
    8995.910      2.672   1.480  1.14128E+00  9.05563E-01  2.35716E-01
    8996.367      3.129   1.520  1.13737E+00  9.14512E-01  2.22854E-01
    8996.837      3.598   1.560  1.12235E+00  9.23036E-01  1.99317E-01
    8997.318      4.080   1.600  1.10455E+00  9.31114E-01  1.73440E-01
    8997.812      4.574   1.640  1.08877E+00  9.38746E-01  1.50026E-01
    8998.318      5.080   1.680  1.07553E+00  9.45934E-01  1.29599E-01
    8998.836      5.598   1.720  1.06672E+00  9.52702E-01  1.14015E-01
    8999.367      6.128   1.760  1.06637E+00  9.59012E-01  1.07363E-01
    8999.909      6.671   1.800  1.07562E+00  9.64906E-01  1.10713E-01
    9000.464      7.226   1.840  1.08896E+00  9.70349E-01  1.18614E-01
    9001.031      7.793   1.880  1.09916E+00  9.75389E-01  1.23767E-01
    9001.610      8.372   1.920  1.10201E+00  9.80009E-01  1.21998E-01
    9002.201      8.963   1.960  1.09639E+00  9.84236E-01  1.12149E-01
    9002.805      9.566   2.000  1.08479E+00  9.88058E-01  9.67317E-02
    9003.421     10.182   2.040  1.07165E+00  9.91522E-01  8.01310E-02
    9004.048     10.810   2.080  1.05748E+00  9.94639E-01  6.28429E-02
    9004.689     11.450   2.120  1.04286E+00  9.97394E-01  4.54626E-02
    9005.341     12.102   2.160  1.03246E+00  9.99836E-01  3.26242E-02
    9006.005     12.767   2.200  1.03182E+00  1.00196E+00  2.98655E-02
    9006.682     13.443   2.240  1.04183E+00  1.00378E+00  3.80504E-02
    9007.371     14.132   2.280  1.05670E+00  1.00534E+00  5.13582E-02
    9008.072     14.833   2.320  1.06948E+00  1.00662E+00  6.28524E-02
    9008.785     15.547   2.360  1.07827E+00  1.00768E+00  7.05905E-02
    9009.510     16.272   2.400  1.08556E+00  1.00850E+00  7.70659E-02
    9010.248     17.010   2.440  1.09343E+00  1.00913E+00  8.42968E-02
    9010.998     17.759   2.480  1.09945E+00  1.00956E+00  8.98851E-02
    9011.760     18.521   2.520  1.09672E+00  1.00982E+00  8.69042E-02
    9012.534     19.296   2.560  1.07783E+00  1.00992E+00  6.79170E-02
    9013.320     20.082   2.600  1.04212E+00  1.00988E+00  3.22483E-02
    9014.119     20.881   2.640  9.98232E-01  1.00969E+00 -1.14542E-02
    9014.930     21.691   2.680  9.63323E-01  1.00940E+00 -4.60750E-02
    9015.753     22.514   2.720  9.42832E-01  1.00902E+00 -6.61861E-02
    9016.588     23.349   2.760  9.30600E-01  1.00855E+00 -7.79509E-02
    9017.435     24.197   2.800  9.23167E-01  1.00798E+00 -8.48161E-02
    9018.295     25.056   2.840  9.19201E-01  1.00738E+00 -8.81823E-02
    9019.166     25.928   2.880  9.18011E-01  1.00671E+00 -8.87040E-02
    9020.050     26.812   2.920  9.19431E-01  1.00600E+00 -8.65712E-02
    9020.946     27.708   2.960  9.23222E-01  1.00527E+00 -8.20519E-02
    9021.855     28.616   3.000  9.28780E-01  1.00451E+00 -7.57331E-02
    9022.775     29.537   3.040  9.35617E-01  1.00374E+00 -6.81254E-02
    9023.708     30.470   3.080  9.43360E-01  1.00297E+00 -5.96103E-02
    9024.653     31.414   3.120  9.51529E-01  1.00220E+00 -5.06682E-02
    9025.610     32.371   3.160  9.59683E-01  1.00143E+00 -4.17434E-02
    9026.579     33.341   3.200  9.67372E-01  1.00068E+00 -3.33102E-02
    9027.561     34.322   3.240  9.74143E-01  9.99947E-01 -2.58035E-02
    9028.554     35.316   3.280  9.79663E-01  9.99244E-01 -1.95807E-02
    9029.560     36.322   3.320  9.83701E-01  9.98575E-01 -1.48735E-02
    9030.578     37.340   3.360  9.86135E-01  9.97922E-01 -1.17864E-02
    9031.608     38.370   3.400  9.87091E-01  9.97326E-01 -1.02351E-02
    9032.651     39.412   3.440  9.86832E-01  9.96750E-01 -9.91806E-03
    9033.705     40.467   3.480  9.85807E-01  9.96236E-01 -1.04294E-02
    9034.772     41.534   3.520  9.84390E-01  9.95764E-01 -1.13741E-02
    9035.851     42.613   3.560  9.82881E-01  9.95335E-01 -1.24544E-02
    9036.942     43.704   3.600  9.81487E-01  9.94950E-01 -1.34636E-02
    9038.046     44.807   3.640  9.80363E-01  9.94631E-01 -1.42683E-02
    9039.161     45.923   3.680  9.79596E-01  9.94356E-01 -1.47600E-02
    9040.289     47.051   3.720  9.79287E-01  9.94125E-01 -1.48380E-02
    9041.429     48.191   3.760  9.79562E-01  9.93938E-01 -1.43757E-02
    9042.581     49.343   3.800  9.80497E-01  9.93817E-01 -1.33201E-02
    9043.745     50.507   3.840  9.82027E-01  9.93740E-01 -1.17130E-02
    9044.922     51.684   3.880  9.84079E-01  9.93707E-01 -9.62792E-03
    9046.111     52.872   3.920  9.86590E-01  9.93717E-01 -7.12624E-03
    9047.312     54.073   3.960  9.89550E-01  9.93791E-01 -4.24058E-03
    9048.525     55.286   4.000  9.93021E-01  9.93907E-01 -8.85476E-04
    9049.750     56.512   4.040  9.97157E-01  9.94042E-01  3.11568E-03
    9050.987     57.749   4.080  1.00219E+00  9.94238E-01  7.94801E-03
    9052.237     58.999   4.120  1.00816E+00  9.94473E-01  1.36904E-02
    9053.499     60.261   4.160  1.01498E+00  9.94724E-01  2.02526E-02
    9054.773     61.535   4.200  1.02235E+00  9.95033E-01  2.73164E-02
    9056.059     62.821   4.240  1.02974E+00  9.95356E-01  3.43861E-02
    9057.358     64.119   4.280  1.03659E+00  9.95711E-01  4.08757E-02
    9058.668     65.430   4.320  1.04225E+00  9.96077E-01  4.61720E-02
    9059.991     66.753   4.360  1.04619E+00  9.96475E-01  4.97161E-02
    9061.326     68.088   4.400  1.04804E+00  9.96904E-01  5.11367E-02
    9062.673     69.435   4.440  1.04775E+00  9.97339E-01  5.04111E-02
    9064.033     70.794   4.480  1.04559E+00  9.97781E-01  4.78070E-02
    9065.404     72.166   4.520  1.04199E+00  9.98248E-01  4.37415E-02
    9066.788     73.550   4.560  1.03730E+00  9.98717E-01  3.85861E-02
    9068.184     74.946   4.600  1.03174E+00  9.99186E-01  3.25521E-02
    9069.592     76.354   4.640  1.02537E+00  9.99631E-01  2.57428E-02
    9071.013     77.774   4.680  1.01838E+00  1.00010E+00  1.82797E-02
    9072.445     79.207   4.720  1.01092E+00  1.00056E+00  1.03537E-02
    9073.890     80.652   4.760  1.00327E+00  1.00103E+00  2.24267E-03
    9075.347     82.109   4.800  9.95827E-01  1.00146E+00 -5.63099E-03
    9076.816     83.578   4.840  9.89179E-01  1.00188E+00 -1.27021E-02
    9078.297     85.059   4.880  9.83880E-01  1.00227E+00 -1.83938E-02
    9079.791     86.553   4.920  9.80374E-01  1.00266E+00 -2.22849E-02
    9081.297     88.058   4.960  9.78781E-01  1.00303E+00 -2.42522E-02
    9082.815     89.576   5.000  9.78889E-01  1.00337E+00 -2.44855E-02
    9084.345     91.106   5.040  9.80304E-01  1.00368E+00 -2.33770E-02
    9085.887     92.648   5.080  9.82605E-01  1.00397E+00 -2.13690E-02
    9087.441     94.203   5.120  9.85381E-01  1.00423E+00 -1.88497E-02
    9089.008     95.770   5.160  9.88285E-01  1.00445E+00 -1.61657E-02
    9090.587     97.348   5.200  9.91049E-01  1.00463E+00 -1.35842E-02
    9092.178     98.940   5.240  9.93534E-01  1.00480E+00 -1.12674E-02
    9093.781    100.543   5.280  9.95708E-01  1.00493E+00 -9.22319E-03
    9095.397    102.158   5.320  9.97689E-01  1.00502E+00 -7.33348E-03
    9097.024    103.786   5.360  9.99656E-01  1.00507E+00 -5.41654E-03
    9098.664    105.426   5.400  1.00181E+00  1.00508E+00 -3.27703E-03
    9100.316    107.078   5.440  1.00429E+00  1.00505E+00 -7.67723E-04
    9101.980    108.742   5.480  1.00710E+00  1.00498E+00  2.11353E-03
    9103.657    110.418   5.520  1.01000E+00  1.00487E+00  5.12674E-03
    9105.345    112.107   5.560  1.01253E+00  1.00475E+00  7.77692E-03
    9107.046    113.808   5.600  1.01399E+00  1.00456E+00  9.42505E-03
    9108.759    115.521   5.640  1.01384E+00  1.00436E+00  9.47643E-03
    9110.484    117.246   5.680  1.01168E+00  1.00413E+00  7.55523E-03
    9112.221    118.983   5.720  1.00745E+00  1.00385E+00  3.59785E-03
    9113.971    120.733   5.760  1.00140E+00  1.00354E+00 -2.13747E-03
    9115.733    122.494   5.800  9.94076E-01  1.00319E+00 -9.10948E-03
    9117.507    124.268   5.840  9.86249E-01  1.00282E+00 -1.65750E-02
    9119.293    126.054   5.880  9.78676E-01  1.00241E+00 -2.37317E-02
    9121.091    127.853   5.920  9.72140E-01  1.00201E+00 -2.98692E-02
    9122.902    129.663   5.960  9.67192E-01  1.00156E+00 -3.43661E-02
    9124.724    131.486   6.000  9.64587E-01  1.00108E+00 -3.64932E-02
