# # comment:                                                     FEFF 9.9.1  
# # Source:
# # Structure
# # Reduced
# # space
# # abc:
# # angles:
# # sites:
# # POT  SCF 100  7.0000   0, screened core-hole, AFOLP (folp(0)= 1.150)
# # Abs   Z=29 Rmt= 1.178 Rnm= 1.336 K  shell
# # Pot 1 Z= 3 Rmt= 1.234 Rnm= 1.295
# # Pot 2 Z=29 Rmt= 1.178 Rnm= 1.336
# # Pot 3 Z= 8 Rmt= 1.013 Rnm= 1.097
# # Gam_ch=1.729E+00 H-L exch Vi= 0.000E+00 Vr= 0.000E+00
# # Mu=-7.475E+00eV kf=2.040E+00 Vint=-1.662E+01eV Rs_int= 1.778
# FMS rfms= 9.0000
# # PATH  Rmax=-1.000,  Keep_limit= 0.00, Heap_limit 0.00  Pwcrit= 2.50%
#  S02=0.950  Temp=   0.00  Debye_temp=   0.00  Global_sig2= 0.00000
#  Energy zero shift, vr, vi    0.00000E+00   0.00000E+00
#  Curved wave amplitude ratio filter   4.000%
#     file         sig2 tot  cw amp ratio   deg  nlegs   reff  inp sig2
#     0/   0 paths used
#  xsedge+ 50, used to normalize mu           2.4549E-04
#  -----------------------------------------------------------------------
#  omega    e    k    mu    mu0     chi     @#
    8984.307    -11.285  -1.000  4.61197E-02  5.73499E-02 -1.12302E-02
    8984.606    -10.986  -0.960  4.90902E-02  6.16020E-02 -1.25118E-02
    8984.893    -10.700  -0.920  5.23650E-02  6.63332E-02 -1.39682E-02
    8985.167    -10.425  -0.880  5.59884E-02  7.16145E-02 -1.56261E-02
    8985.429    -10.163  -0.840  6.00125E-02  7.75288E-02 -1.75163E-02
    8985.679     -9.913  -0.800  6.44978E-02  8.41717E-02 -1.96739E-02
    8985.917     -9.675  -0.760  6.95145E-02  9.16534E-02 -2.21389E-02
    8986.142     -9.450  -0.720  7.51423E-02  1.00098E-01 -2.49560E-02
    8986.356     -9.237  -0.680  8.14698E-02  1.09643E-01 -2.81736E-02
    8986.557     -9.035  -0.640  8.85913E-02  1.20434E-01 -3.18422E-02
    8986.746     -8.846  -0.600  9.66000E-02  1.32611E-01 -3.60110E-02
    8986.922     -8.670  -0.560  1.05576E-01  1.46297E-01 -4.07215E-02
    8987.087     -8.505  -0.520  1.15566E-01  1.61565E-01 -4.59988E-02
    8987.239     -8.353  -0.480  1.26560E-01  1.78399E-01 -5.18389E-02
    8987.380     -8.212  -0.440  1.38457E-01  1.96651E-01 -5.81945E-02
    8987.508     -8.084  -0.400  1.51040E-01  2.16003E-01 -6.49625E-02
    8987.624     -7.969  -0.360  1.63973E-01  2.35952E-01 -7.19795E-02
    8987.727     -7.865  -0.320  1.76817E-01  2.55848E-01 -7.90302E-02
    8987.819     -7.773  -0.280  1.89096E-01  2.74965E-01 -8.58697E-02
    8987.898     -7.694  -0.240  2.00357E-01  2.92610E-01 -9.22537E-02
    8987.965     -7.627  -0.200  2.10236E-01  3.08201E-01 -9.79653E-02
    8988.020     -7.572  -0.160  2.18482E-01  3.21313E-01 -1.02831E-01
    8988.062     -7.530  -0.120  2.24949E-01  3.31675E-01 -1.06726E-01
    8988.093     -7.499  -0.080  2.29573E-01  3.39138E-01 -1.09565E-01
    8988.117     -7.475   0.000  2.33249E-01  3.45133E-01 -1.11884E-01
    8988.172     -7.420   0.120  2.41527E-01  3.58635E-01 -1.17107E-01
    8988.215     -7.377   0.160  2.47913E-01  3.69134E-01 -1.21221E-01
    8988.270     -7.322   0.200  2.55947E-01  3.82531E-01 -1.26583E-01
    8988.337     -7.255   0.240  2.65434E-01  3.98638E-01 -1.33204E-01
    8988.416     -7.176   0.280  2.76026E-01  4.17126E-01 -1.41100E-01
    8988.507     -7.085   0.320  2.87247E-01  4.37496E-01 -1.50249E-01
    8988.611     -6.981   0.360  2.98537E-01  4.59151E-01 -1.60614E-01
    8988.727     -6.865   0.400  3.09314E-01  4.81440E-01 -1.72126E-01
    8988.855     -6.737   0.440  3.19129E-01  5.03784E-01 -1.84654E-01
    8988.995     -6.597   0.480  3.27828E-01  5.25735E-01 -1.97907E-01
    8989.148     -6.445   0.520  3.35621E-01  5.46968E-01 -2.11347E-01
    8989.312     -6.280   0.560  3.43245E-01  5.67372E-01 -2.24127E-01
    8989.489     -6.103   0.600  3.51719E-01  5.86889E-01 -2.35171E-01
    8989.678     -5.914   0.640  3.62300E-01  6.05584E-01 -2.43284E-01
    8989.879     -5.713   0.680  3.76172E-01  6.23516E-01 -2.47344E-01
    8990.092     -5.500   0.720  3.94404E-01  6.40804E-01 -2.46401E-01
    8990.318     -5.274   0.760  4.17662E-01  6.57544E-01 -2.39882E-01
    8990.556     -5.036   0.800  4.46025E-01  6.73821E-01 -2.27796E-01
    8990.806     -4.786   0.840  4.78623E-01  6.89708E-01 -2.11085E-01
    8991.068     -4.524   0.880  5.12974E-01  7.05239E-01 -1.92265E-01
    8991.342     -4.250   0.920  5.44827E-01  7.20477E-01 -1.75650E-01
    8991.629     -3.963   0.960  5.69268E-01  7.35452E-01 -1.66184E-01
    8991.927     -3.665   1.000  5.82824E-01  7.50140E-01 -1.67316E-01
    8992.238     -3.354   1.040  5.85184E-01  7.64588E-01 -1.79405E-01
    8992.561     -3.031   1.080  5.80364E-01  7.78757E-01 -1.98393E-01
    8992.897     -2.696   1.120  5.76376E-01  7.92680E-01 -2.16304E-01
    8993.244     -2.348   1.160  5.81432E-01  8.06302E-01 -2.24871E-01
    8993.604     -1.988   1.200  6.00244E-01  8.19609E-01 -2.19365E-01
    8993.976     -1.617   1.240  6.32332E-01  8.32601E-01 -2.00269E-01
    8994.360     -1.232   1.280  6.72035E-01  8.45256E-01 -1.73221E-01
    8994.756     -0.836   1.320  7.11478E-01  8.57532E-01 -1.46053E-01
    8995.164     -0.428   1.360  7.44245E-01  8.69402E-01 -1.25157E-01
    8995.585     -0.007   1.400  7.64768E-01  8.80882E-01 -1.16114E-01
    8996.018      0.426   1.440  7.71436E-01  8.91928E-01 -1.20492E-01
    8996.463      0.871   1.480  7.72349E-01  9.02515E-01 -1.30166E-01
    8996.920      1.328   1.520  7.80382E-01  9.12659E-01 -1.32277E-01
    8997.389      1.797   1.560  8.03395E-01  9.22294E-01 -1.18899E-01
    8997.871      2.279   1.600  8.39996E-01  9.31459E-01 -9.14635E-02
    8998.365      2.773   1.640  8.85153E-01  9.40133E-01 -5.49806E-02
    8998.871      3.279   1.680  9.37553E-01  9.48296E-01 -1.07426E-02
    8999.389      3.797   1.720  9.93357E-01  9.55946E-01  3.74106E-02
    8999.919      4.327   1.760  1.04590E+00  9.63107E-01  8.27902E-02
    9000.462      4.870   1.800  1.09976E+00  9.69762E-01  1.30001E-01
    9001.016      5.424   1.840  1.15920E+00  9.75935E-01  1.83266E-01
    9001.583      5.991   1.880  1.21409E+00  9.81610E-01  2.32482E-01
    9002.162      6.570   1.920  1.26083E+00  9.86814E-01  2.74016E-01
    9002.754      7.162   1.960  1.30395E+00  9.91553E-01  3.12394E-01
    9003.357      7.765   2.000  1.33439E+00  9.95835E-01  3.38554E-01
    9003.973      8.381   2.040  1.34058E+00  9.99690E-01  3.40891E-01
    9004.601      9.009   2.080  1.32290E+00  1.00312E+00  3.19775E-01
    9005.241      9.649   2.120  1.29148E+00  1.00615E+00  2.85330E-01
    9005.893     10.301   2.160  1.25314E+00  1.00879E+00  2.44352E-01
    9006.558     10.966   2.200  1.20193E+00  1.01108E+00  1.90846E-01
    9007.234     11.642   2.240  1.13405E+00  1.01302E+00  1.21033E-01
    9007.923     12.331   2.280  1.06257E+00  1.01462E+00  4.79500E-02
    9008.624     13.032   2.320  1.00141E+00  1.01592E+00 -1.45126E-02
    9009.337     13.745   2.360  9.59963E-01  1.01693E+00 -5.69716E-02
    9010.063     14.471   2.400  9.41567E-01  1.01769E+00 -7.61264E-02
    9010.800     15.208   2.440  9.42858E-01  1.01820E+00 -7.53459E-02
    9011.550     15.958   2.480  9.61435E-01  1.01850E+00 -5.70622E-02
    9012.312     16.720   2.520  9.80518E-01  1.01858E+00 -3.80641E-02
    9013.086     17.494   2.560  9.97639E-01  1.01847E+00 -2.08297E-02
    9013.873     18.281   2.600  1.01135E+00  1.01819E+00 -6.83492E-03
    9014.671     19.079   2.640  1.02176E+00  1.01777E+00  3.99808E-03
    9015.482     19.890   2.680  1.02953E+00  1.01719E+00  1.23334E-02
    9016.305     20.713   2.720  1.03581E+00  1.01652E+00  1.92911E-02
    9017.140     21.548   2.760  1.04167E+00  1.01573E+00  2.59380E-02
    9017.988     22.396   2.800  1.04765E+00  1.01485E+00  3.27959E-02
    9018.847     23.255   2.840  1.05363E+00  1.01390E+00  3.97350E-02
    9019.719     24.127   2.880  1.05890E+00  1.01288E+00  4.60130E-02
    9020.603     25.011   2.920  1.06182E+00  1.01181E+00  5.00188E-02
    9021.499     25.907   2.960  1.06052E+00  1.01071E+00  4.98096E-02
    9022.407     26.815   3.000  1.05399E+00  1.00957E+00  4.44125E-02
    9023.328     27.736   3.040  1.04279E+00  1.00843E+00  3.43568E-02
    9024.260     28.668   3.080  1.02814E+00  1.00728E+00  2.08612E-02
    9025.205     29.613   3.120  1.01156E+00  1.00611E+00  5.44614E-03
    9026.162     30.570   3.160  9.94352E-01  1.00497E+00 -1.06141E-02
    9027.132     31.539   3.200  9.77406E-01  1.00385E+00 -2.64437E-02
    9028.113     32.521   3.240  9.61503E-01  1.00274E+00 -4.12417E-02
    9029.107     33.515   3.280  9.47440E-01  1.00167E+00 -5.42340E-02
    9030.112     34.520   3.320  9.35417E-01  1.00064E+00 -6.52236E-02
    9031.130     35.538   3.360  9.25347E-01  9.99648E-01 -7.43006E-02
    9032.161     36.569   3.400  9.17095E-01  9.98719E-01 -8.16241E-02
    9033.203     37.611   3.440  9.10465E-01  9.97812E-01 -8.73470E-02
    9034.258     38.666   3.480  9.05524E-01  9.96971E-01 -9.14468E-02
    9035.325     39.732   3.520  9.02471E-01  9.96178E-01 -9.37068E-02
    9036.404     40.811   3.560  9.01633E-01  9.95454E-01 -9.38206E-02
    9037.495     41.903   3.600  9.02994E-01  9.94778E-01 -9.17844E-02
    9038.598     43.006   3.640  9.06604E-01  9.94175E-01 -8.75704E-02
    9039.714     44.122   3.680  9.12495E-01  9.93621E-01 -8.11253E-02
    9040.841     45.249   3.720  9.20752E-01  9.93138E-01 -7.23856E-02
    9041.981     46.389   3.760  9.31334E-01  9.92708E-01 -6.13736E-02
    9043.133     47.541   3.800  9.44085E-01  9.92371E-01 -4.82856E-02
    9044.298     48.706   3.840  9.58302E-01  9.92065E-01 -3.37623E-02
    9045.474     49.882   3.880  9.72857E-01  9.91852E-01 -1.89952E-02
    9046.663     51.071   3.920  9.86110E-01  9.91689E-01 -5.57836E-03
    9047.864     52.272   3.960  9.96442E-01  9.91574E-01  4.86706E-03
    9049.077     53.485   4.000  1.00283E+00  9.91530E-01  1.13014E-02
    9050.302     54.710   4.040  1.00544E+00  9.91534E-01  1.39096E-02
    9051.540     55.948   4.080  1.00566E+00  9.91607E-01  1.40560E-02
    9052.789     57.197   4.120  1.00544E+00  9.91726E-01  1.37115E-02
    9054.051     58.459   4.160  1.00653E+00  9.91890E-01  1.46402E-02
    9055.325     59.733   4.200  1.00989E+00  9.92121E-01  1.77714E-02
    9056.612     61.020   4.240  1.01537E+00  9.92394E-01  2.29733E-02
    9057.910     62.318   4.280  1.02194E+00  9.92708E-01  2.92370E-02
    9059.221     63.629   4.320  1.02832E+00  9.93039E-01  3.52827E-02
    9060.544     64.952   4.360  1.03338E+00  9.93429E-01  3.99507E-02
    9061.879     66.287   4.400  1.03643E+00  9.93858E-01  4.25739E-02
    9063.226     67.634   4.440  1.03751E+00  9.94301E-01  4.32106E-02
    9064.585     68.993   4.480  1.03734E+00  9.94776E-01  4.25653E-02
    9065.957     70.365   4.520  1.03679E+00  9.95283E-01  4.15084E-02
    9067.341     71.749   4.560  1.03637E+00  9.95798E-01  4.05732E-02
    9068.737     73.144   4.600  1.03608E+00  9.96319E-01  3.97607E-02
    9070.145     74.553   4.640  1.03563E+00  9.96867E-01  3.87638E-02
    9071.565     75.973   4.680  1.03475E+00  9.97417E-01  3.73324E-02
    9072.998     77.406   4.720  1.03345E+00  9.97969E-01  3.54774E-02
    9074.442     78.850   4.760  1.03195E+00  9.98521E-01  3.34333E-02
    9075.899     80.307   4.800  1.03056E+00  9.99072E-01  3.14924E-02
    9077.368     81.776   4.840  1.02950E+00  9.99620E-01  2.98817E-02
    9078.850     83.258   4.880  1.02883E+00  1.00016E+00  2.86649E-02
    9080.343     84.751   4.920  1.02840E+00  1.00068E+00  2.77238E-02
    9081.849     86.257   4.960  1.02801E+00  1.00118E+00  2.68248E-02
    9083.367     87.775   5.000  1.02743E+00  1.00168E+00  2.57462E-02
    9084.897     89.305   5.040  1.02650E+00  1.00215E+00  2.43533E-02
    9086.439     90.847   5.080  1.02510E+00  1.00261E+00  2.24997E-02
    9087.994     92.402   5.120  1.02284E+00  1.00302E+00  1.98183E-02
    9089.560     93.968   5.160  1.01917E+00  1.00341E+00  1.57616E-02
    9091.139     95.547   5.200  1.01363E+00  1.00375E+00  9.88172E-03
    9092.730     97.138   5.240  1.00632E+00  1.00408E+00  2.23471E-03
    9094.334     98.741   5.280  9.97841E-01  1.00435E+00 -6.50802E-03
    9095.949    100.357   5.320  9.89294E-01  1.00460E+00 -1.53058E-02
    9097.577    101.985   5.360  9.81661E-01  1.00481E+00 -2.31517E-02
    9099.216    103.624   5.400  9.75580E-01  1.00499E+00 -2.94051E-02
    9100.868    105.276   5.440  9.71163E-01  1.00512E+00 -3.39543E-02
    9102.533    106.941   5.480  9.68183E-01  1.00521E+00 -3.70233E-02
    9104.209    108.617   5.520  9.66470E-01  1.00525E+00 -3.87848E-02
    9105.898    110.306   5.560  9.66121E-01  1.00526E+00 -3.91397E-02
    9107.598    112.006   5.600  9.67378E-01  1.00520E+00 -3.78233E-02
    9109.311    113.719   5.640  9.70455E-01  1.00512E+00 -3.46689E-02
    9111.037    115.444   5.680  9.75141E-01  1.00501E+00 -2.98654E-02
    9112.774    117.182   5.720  9.80867E-01  1.00485E+00 -2.39805E-02
    9114.523    118.931   5.760  9.86885E-01  1.00463E+00 -1.77408E-02
    9116.285    120.693   5.800  9.92521E-01  1.00439E+00 -1.18660E-02
    9118.059    122.467   5.840  9.96971E-01  1.00411E+00 -7.13823E-03
    9119.845    124.253   5.880  9.99474E-01  1.00377E+00 -4.29801E-03
    9121.644    126.051   5.920  9.99742E-01  1.00342E+00 -3.67869E-03
    9123.454    127.862   5.960  9.98163E-01  1.00304E+00 -4.87504E-03
    9125.277    129.685   6.000  9.95677E-01  1.00259E+00 -6.91633E-03
