# # comment:                                                     FEFF 9.9.1  
# # Source:
# # Structure
# # Reduced
# # space
# # abc:
# # angles:
# # sites:
# # POT  SCF 100  7.0000   0, screened core-hole, AFOLP (folp(0)= 1.150)
# # Abs   Z=29 Rmt= 1.256 Rnm= 1.325 K  shell
# # Pot 1 Z= 3 Rmt= 1.242 Rnm= 1.311
# # Pot 2 Z=24 Rmt= 1.026 Rnm= 1.243
# # Pot 3 Z=29 Rmt= 1.256 Rnm= 1.325
# # Pot 4 Z= 8 Rmt= 0.924 Rnm= 1.081
# # Gam_ch=1.729E+00 H-L exch Vi= 0.000E+00 Vr= 0.000E+00
# # Mu=-8.874E+00eV kf=2.311E+00 Vint=-1.696E+01eV Rs_int= 1.570
# FMS rfms= 9.0000
# # PATH  Rmax=-1.000,  Keep_limit= 0.00, Heap_limit 0.00  Pwcrit= 2.50%
#  S02=0.950  Temp=   0.00  Debye_temp=   0.00  Global_sig2= 0.00000
#  Energy zero shift, vr, vi    0.00000E+00   0.00000E+00
#  Curved wave amplitude ratio filter   4.000%
#     file         sig2 tot  cw amp ratio   deg  nlegs   reff  inp sig2
#     0/   0 paths used
#  xsedge+ 50, used to normalize mu           2.4766E-04
#  -----------------------------------------------------------------------
#  omega    e    k    mu    mu0     chi     @#
    8983.907    -12.684  -1.000  3.40256E-02  4.94459E-02 -1.54203E-02
    8984.206    -12.385  -0.960  3.57499E-02  5.29132E-02 -1.71633E-02
    8984.493    -12.099  -0.920  3.76140E-02  5.67560E-02 -1.91420E-02
    8984.767    -11.825  -0.880  3.96359E-02  6.10289E-02 -2.13930E-02
    8985.029    -11.562  -0.840  4.18364E-02  6.57950E-02 -2.39587E-02
    8985.279    -11.312  -0.800  4.42395E-02  7.11279E-02 -2.68884E-02
    8985.517    -11.075  -0.760  4.68726E-02  7.71113E-02 -3.02387E-02
    8985.742    -10.849  -0.720  4.97664E-02  8.38401E-02 -3.40738E-02
    8985.956    -10.636  -0.680  5.29544E-02  9.14186E-02 -3.84642E-02
    8986.157    -10.435  -0.640  5.64715E-02  9.99565E-02 -4.34850E-02
    8986.346    -10.246  -0.600  6.03514E-02  1.09562E-01 -4.92102E-02
    8986.522    -10.069  -0.560  6.46216E-02  1.20325E-01 -5.57037E-02
    8986.687     -9.904  -0.520  6.92966E-02  1.32301E-01 -6.30049E-02
    8986.839     -9.752  -0.480  7.43676E-02  1.45476E-01 -7.11088E-02
    8986.980     -9.612  -0.440  7.97913E-02  1.59735E-01 -7.99436E-02
    8987.108     -9.484  -0.400  8.54803E-02  1.74831E-01 -8.93508E-02
    8987.224     -9.368  -0.360  9.12996E-02  1.90379E-01 -9.90795E-02
    8987.327     -9.264  -0.320  9.70746E-02  2.05878E-01 -1.08803E-01
    8987.419     -9.173  -0.280  1.02611E-01  2.20771E-01 -1.18159E-01
    8987.498     -9.094  -0.240  1.07721E-01  2.34521E-01 -1.26800E-01
    8987.565     -9.026  -0.200  1.12244E-01  2.46678E-01 -1.34434E-01
    8987.620     -8.972  -0.160  1.16062E-01  2.56911E-01 -1.40849E-01
    8987.662     -8.929  -0.120  1.19095E-01  2.65004E-01 -1.45909E-01
    8987.693     -8.898  -0.080  1.21296E-01  2.70839E-01 -1.49543E-01
    8987.717     -8.874   0.000  1.23090E-01  2.75530E-01 -1.52440E-01
    8987.772     -8.819   0.120  1.27033E-01  2.86115E-01 -1.59082E-01
    8987.815     -8.777   0.160  1.30081E-01  2.94329E-01 -1.64248E-01
    8987.870     -8.722   0.200  1.34005E-01  3.04857E-01 -1.70852E-01
    8987.937     -8.655   0.240  1.38777E-01  3.17530E-01 -1.78754E-01
    8988.016     -8.575   0.280  1.44365E-01  3.32132E-01 -1.87767E-01
    8988.107     -8.484   0.320  1.50755E-01  3.48290E-01 -1.97535E-01
    8988.211     -8.380   0.360  1.57966E-01  3.65570E-01 -2.07604E-01
    8988.327     -8.264   0.400  1.66126E-01  3.83502E-01 -2.17376E-01
    8988.455     -8.136   0.440  1.75452E-01  4.01642E-01 -2.26190E-01
    8988.595     -7.996   0.480  1.86281E-01  4.19681E-01 -2.33400E-01
    8988.748     -7.844   0.520  1.98824E-01  4.37390E-01 -2.38566E-01
    8988.912     -7.679   0.560  2.12892E-01  4.54652E-01 -2.41760E-01
    8989.089     -7.502   0.600  2.27712E-01  4.71459E-01 -2.43747E-01
    8989.278     -7.314   0.640  2.41638E-01  4.87839E-01 -2.46202E-01
    8989.479     -7.112   0.680  2.52400E-01  5.03892E-01 -2.51492E-01
    8989.692     -6.899   0.720  2.57574E-01  5.19645E-01 -2.62071E-01
    8989.918     -6.673   0.760  2.55595E-01  5.35205E-01 -2.79609E-01
    8990.156     -6.436   0.800  2.46793E-01  5.50651E-01 -3.03858E-01
    8990.406     -6.186   0.840  2.33868E-01  5.65992E-01 -3.32124E-01
    8990.668     -5.924   0.880  2.21073E-01  5.81284E-01 -3.60211E-01
    8990.942     -5.649   0.920  2.12097E-01  5.96570E-01 -3.84473E-01
    8991.229     -5.363   0.960  2.08844E-01  6.11847E-01 -4.03003E-01
    8991.527     -5.064   1.000  2.11894E-01  6.27118E-01 -4.15223E-01
    8991.838     -4.753   1.040  2.21312E-01  6.42400E-01 -4.21087E-01
    8992.161     -4.430   1.080  2.37086E-01  6.57663E-01 -4.20577E-01
    8992.497     -4.095   1.120  2.58855E-01  6.72893E-01 -4.14038E-01
    8992.844     -3.747   1.160  2.85282E-01  6.88070E-01 -4.02788E-01
    8993.204     -3.388   1.200  3.14369E-01  7.03170E-01 -3.88801E-01
    8993.576     -3.016   1.240  3.45572E-01  7.18167E-01 -3.72595E-01
    8993.960     -2.632   1.280  3.81735E-01  7.33033E-01 -3.51298E-01
    8994.356     -2.236   1.320  4.27294E-01  7.47715E-01 -3.20421E-01
    8994.764     -1.827   1.360  4.85050E-01  7.62203E-01 -2.77153E-01
    8995.185     -1.407   1.400  5.54906E-01  7.76466E-01 -2.21560E-01
    8995.618     -0.974   1.440  6.34142E-01  7.90448E-01 -1.56306E-01
    8996.063     -0.529   1.480  7.15101E-01  8.04138E-01 -8.90370E-02
    8996.520     -0.071   1.520  7.87326E-01  8.17502E-01 -3.01760E-02
    8996.989      0.398   1.560  8.53068E-01  8.30507E-01  2.25600E-02
    8997.471      0.879   1.600  9.22559E-01  8.43124E-01  7.94349E-02
    8997.965      1.373   1.640  9.94236E-01  8.55320E-01  1.38916E-01
    8998.471      1.879   1.680  1.05713E+00  8.67085E-01  1.90041E-01
    8998.989      2.397   1.720  1.10907E+00  8.78412E-01  2.30653E-01
    8999.519      2.928   1.760  1.16478E+00  8.89252E-01  2.75523E-01
    9000.062      3.470   1.800  1.23897E+00  8.99621E-01  3.39348E-01
    9000.616      4.025   1.840  1.32199E+00  9.09493E-01  4.12494E-01
    9001.183      4.592   1.880  1.37958E+00  9.18865E-01  4.60717E-01
    9001.762      5.171   1.920  1.38840E+00  9.27735E-01  4.60664E-01
    9002.354      5.762   1.960  1.36411E+00  9.36081E-01  4.28026E-01
    9002.957      6.366   2.000  1.33663E+00  9.43947E-01  3.92685E-01
    9003.573      6.982   2.040  1.32030E+00  9.51270E-01  3.69026E-01
    9004.201      7.609   2.080  1.30907E+00  9.58117E-01  3.50951E-01
    9004.841      8.250   2.120  1.28709E+00  9.64450E-01  3.22639E-01
    9005.493      8.902   2.160  1.24506E+00  9.70314E-01  2.74744E-01
    9006.158      9.566   2.200  1.18996E+00  9.75696E-01  2.14261E-01
    9006.834     10.243   2.240  1.13593E+00  9.80621E-01  1.55309E-01
    9007.523     10.932   2.280  1.09369E+00  9.85098E-01  1.08596E-01
    9008.224     11.633   2.320  1.06913E+00  9.89132E-01  7.99988E-02
    9008.937     12.346   2.360  1.06231E+00  9.92775E-01  6.95350E-02
    9009.663     13.071   2.400  1.06740E+00  9.95995E-01  7.14089E-02
    9010.400     13.809   2.440  1.07613E+00  9.98839E-01  7.72876E-02
    9011.150     14.559   2.480  1.08285E+00  1.00134E+00  8.15108E-02
    9011.912     15.321   2.520  1.08667E+00  1.00348E+00  8.31869E-02
    9012.686     16.095   2.560  1.08343E+00  1.00530E+00  7.81277E-02
    9013.473     16.881   2.600  1.06314E+00  1.00680E+00  5.63343E-02
    9014.271     17.680   2.640  1.02524E+00  1.00804E+00  1.71946E-02
    9015.082     18.491   2.680  9.82318E-01  1.00900E+00 -2.66828E-02
    9015.905     19.314   2.720  9.52648E-01  1.00971E+00 -5.70659E-02
    9016.740     20.149   2.760  9.37084E-01  1.01019E+00 -7.31048E-02
    9017.588     20.996   2.800  9.26343E-01  1.01048E+00 -8.41361E-02
    9018.447     21.856   2.840  9.17477E-01  1.01055E+00 -9.30724E-02
    9019.319     22.727   2.880  9.10181E-01  1.01047E+00 -1.00286E-01
    9020.203     23.611   2.920  9.04255E-01  1.01021E+00 -1.05951E-01
    9021.099     24.507   2.960  8.99612E-01  1.00981E+00 -1.10199E-01
    9022.007     25.416   3.000  8.95774E-01  1.00929E+00 -1.13517E-01
    9022.928     26.336   3.040  8.92497E-01  1.00865E+00 -1.16155E-01
    9023.860     27.269   3.080  8.89979E-01  1.00792E+00 -1.17943E-01
    9024.805     28.214   3.120  8.88086E-01  1.00711E+00 -1.19025E-01
    9025.762     29.171   3.160  8.86699E-01  1.00622E+00 -1.19523E-01
    9026.732     30.140   3.200  8.86002E-01  1.00528E+00 -1.19280E-01
    9027.713     31.122   3.240  8.86419E-01  1.00430E+00 -1.17879E-01
    9028.707     32.115   3.280  8.88352E-01  1.00325E+00 -1.14901E-01
    9029.712     33.121   3.320  8.92277E-01  1.00221E+00 -1.09935E-01
    9030.730     34.139   3.360  8.98433E-01  1.00112E+00 -1.02688E-01
    9031.761     35.169   3.400  9.06645E-01  1.00005E+00 -9.34012E-02
    9032.803     36.212   3.440  9.16497E-01  9.98948E-01 -8.24509E-02
    9033.858     37.266   3.480  9.27526E-01  9.97873E-01 -7.03474E-02
    9034.925     38.333   3.520  9.39068E-01  9.96806E-01 -5.77371E-02
    9036.004     39.412   3.560  9.50515E-01  9.95769E-01 -4.52542E-02
    9037.095     40.503   3.600  9.61366E-01  9.94765E-01 -3.33997E-02
    9038.198     41.607   3.640  9.71195E-01  9.93775E-01 -2.25803E-02
    9039.314     42.722   3.680  9.79703E-01  9.92823E-01 -1.31201E-02
    9040.441     43.850   3.720  9.86799E-01  9.91931E-01 -5.13176E-03
    9041.581     44.990   3.760  9.92614E-01  9.91060E-01  1.55478E-03
    9042.733     46.142   3.800  9.97570E-01  9.90250E-01  7.31946E-03
    9043.898     47.306   3.840  1.00222E+00  9.89465E-01  1.27544E-02
    9045.074     48.483   3.880  1.00723E+00  9.88767E-01  1.84593E-02
    9046.263     49.672   3.920  1.01292E+00  9.88096E-01  2.48259E-02
    9047.464     50.873   3.960  1.01942E+00  9.87492E-01  3.19261E-02
    9048.677     52.086   4.000  1.02647E+00  9.86959E-01  3.95151E-02
    9049.902     53.311   4.040  1.03368E+00  9.86476E-01  4.71989E-02
    9051.140     54.548   4.080  1.04063E+00  9.86061E-01  5.45710E-02
    9052.389     55.798   4.120  1.04701E+00  9.85694E-01  6.13199E-02
    9053.651     57.060   4.160  1.05258E+00  9.85374E-01  6.72086E-02
    9054.925     58.334   4.200  1.05709E+00  9.85122E-01  7.19639E-02
    9056.212     59.620   4.240  1.06024E+00  9.84919E-01  7.53162E-02
    9057.510     60.919   4.280  1.06196E+00  9.84786E-01  7.71767E-02
    9058.821     62.229   4.320  1.06230E+00  9.84700E-01  7.76035E-02
    9060.144     63.552   4.360  1.06140E+00  9.84682E-01  7.67178E-02
    9061.479     64.887   4.400  1.05931E+00  9.84709E-01  7.45959E-02
    9062.826     66.234   4.440  1.05595E+00  9.84780E-01  7.11702E-02
    9064.185     67.594   4.480  1.05118E+00  9.84893E-01  6.62874E-02
    9065.557     68.965   4.520  1.04503E+00  9.85069E-01  5.99562E-02
    9066.941     70.349   4.560  1.03775E+00  9.85265E-01  5.24860E-02
    9068.337     71.745   4.600  1.02983E+00  9.85522E-01  4.43109E-02
    9069.745     73.153   4.640  1.02163E+00  9.85794E-01  3.58343E-02
    9071.165     74.574   4.680  1.01342E+00  9.86102E-01  2.73222E-02
    9072.598     76.006   4.720  1.00528E+00  9.86448E-01  1.88334E-02
    9074.042     77.451   4.760  9.97145E-01  9.86829E-01  1.03160E-02
    9075.499     78.908   4.800  9.88957E-01  9.87242E-01  1.71531E-03
    9076.968     80.377   4.840  9.80705E-01  9.87642E-01 -6.93696E-03
    9078.450     81.858   4.880  9.72662E-01  9.88093E-01 -1.54310E-02
    9079.943     83.352   4.920  9.65135E-01  9.88551E-01 -2.34158E-02
    9081.449     84.858   4.960  9.58554E-01  9.89012E-01 -3.04572E-02
    9082.967     86.376   5.000  9.53367E-01  9.89475E-01 -3.61078E-02
    9084.497     87.906   5.040  9.49919E-01  9.89938E-01 -4.00192E-02
    9086.039     89.448   5.080  9.48380E-01  9.90402E-01 -4.20221E-02
    9087.594     91.002   5.120  9.48660E-01  9.90886E-01 -4.22264E-02
    9089.160     92.569   5.160  9.50288E-01  9.91345E-01 -4.10574E-02
    9090.739     94.148   5.200  9.52616E-01  9.91776E-01 -3.91605E-02
    9092.330     95.739   5.240  9.54997E-01  9.92223E-01 -3.72260E-02
    9093.934     97.342   5.280  9.56884E-01  9.92641E-01 -3.57569E-02
    9095.549     98.958   5.320  9.58048E-01  9.93050E-01 -3.50021E-02
    9097.177    100.585   5.360  9.58543E-01  9.93425E-01 -3.48820E-02
    9098.816    102.225   5.400  9.58689E-01  9.93767E-01 -3.50780E-02
    9100.468    103.877   5.440  9.58980E-01  9.94096E-01 -3.51162E-02
    9102.133    105.541   5.480  9.59816E-01  9.94392E-01 -3.45762E-02
    9103.809    107.218   5.520  9.61417E-01  9.94674E-01 -3.32563E-02
    9105.498    108.906   5.560  9.63630E-01  9.94896E-01 -3.12659E-02
    9107.198    110.607   5.600  9.66243E-01  9.95101E-01 -2.88579E-02
    9108.911    112.320   5.640  9.69050E-01  9.95270E-01 -2.62200E-02
    9110.637    114.045   5.680  9.72026E-01  9.95399E-01 -2.33733E-02
    9112.374    115.782   5.720  9.75219E-01  9.95487E-01 -2.02681E-02
    9114.123    117.532   5.760  9.78659E-01  9.95534E-01 -1.68745E-02
    9115.885    119.294   5.800  9.82282E-01  9.95517E-01 -1.32342E-02
    9117.659    121.068   5.840  9.86004E-01  9.95483E-01 -9.47923E-03
    9119.445    122.854   5.880  9.89550E-01  9.95412E-01 -5.86164E-03
    9121.244    124.652   5.920  9.92541E-01  9.95302E-01 -2.76019E-03
    9123.054    126.463   5.960  9.94545E-01  9.95149E-01 -6.04184E-04
    9124.877    128.285   6.000  9.95319E-01  9.94901E-01  4.17863E-04
