# # comment:                                                     FEFF 9.9.1  
# # Source:
# # Structure
# # Reduced
# # space
# # abc:
# # angles:
# # sites:
# # POT  SCF 100  7.0000   0, screened core-hole, AFOLP (folp(0)= 1.150)
# # Abs   Z=29 Rmt= 1.228 Rnm= 1.317 K  shell
# # Pot 1 Z=29 Rmt= 1.228 Rnm= 1.317
# # Pot 2 Z=14 Rmt= 1.017 Rnm= 1.225
# # Pot 3 Z= 8 Rmt= 0.935 Rnm= 1.066
# # Gam_ch=1.729E+00 H-L exch Vi= 0.000E+00 Vr= 0.000E+00
# # Mu=-7.176E+00eV kf=2.368E+00 Vint=-1.712E+01eV Rs_int= 1.531
# FMS rfms= 9.0000
# # PATH  Rmax=-1.000,  Keep_limit= 0.00, Heap_limit 0.00  Pwcrit= 2.50%
#  S02=0.950  Temp=   0.00  Debye_temp=   0.00  Global_sig2= 0.00000
#  Energy zero shift, vr, vi    0.00000E+00   0.00000E+00
#  Curved wave amplitude ratio filter   4.000%
#     file         sig2 tot  cw amp ratio   deg  nlegs   reff  inp sig2
#     0/   0 paths used
#  xsedge+ 50, used to normalize mu           2.4898E-04
#  -----------------------------------------------------------------------
#  omega    e    k    mu    mu0     chi     @#
    8983.418    -10.986  -1.000  4.08450E-02  5.05310E-02 -9.68595E-03
    8983.716    -10.687  -0.960  4.34839E-02  5.41589E-02 -1.06750E-02
    8984.003    -10.401  -0.920  4.64087E-02  5.81893E-02 -1.17806E-02
    8984.277    -10.126  -0.880  4.96641E-02  6.26817E-02 -1.30176E-02
    8984.539     -9.864  -0.840  5.33021E-02  6.77053E-02 -1.44032E-02
    8984.789     -9.614  -0.800  5.73841E-02  7.33403E-02 -1.59562E-02
    8985.027     -9.377  -0.760  6.19810E-02  7.96788E-02 -1.76978E-02
    8985.252     -9.151  -0.720  6.71738E-02  8.68250E-02 -1.96512E-02
    8985.466     -8.938  -0.680  7.30524E-02  9.48935E-02 -2.18411E-02
    8985.667     -8.736  -0.640  7.97132E-02  1.04006E-01 -2.42924E-02
    8985.856     -8.548  -0.600  8.72524E-02  1.14280E-01 -2.70279E-02
    8986.033     -8.371  -0.560  9.57548E-02  1.25819E-01 -3.00645E-02
    8986.197     -8.206  -0.520  1.05276E-01  1.38683E-01 -3.34073E-02
    8986.350     -8.054  -0.480  1.15817E-01  1.52858E-01 -3.70415E-02
    8986.490     -7.914  -0.440  1.27297E-01  1.68221E-01 -4.09241E-02
    8986.618     -7.786  -0.400  1.39524E-01  1.84502E-01 -4.49779E-02
    8986.734     -7.670  -0.360  1.52188E-01  2.01281E-01 -4.90934E-02
    8986.837     -7.566  -0.320  1.64871E-01  2.18011E-01 -5.31402E-02
    8986.929     -7.475  -0.280  1.77098E-01  2.34084E-01 -5.69860E-02
    8987.008     -7.395  -0.240  1.88401E-01  2.48916E-01 -6.05151E-02
    8987.075     -7.328  -0.200  1.98384E-01  2.62020E-01 -6.36365E-02
    8987.130     -7.273  -0.160  2.06760E-01  2.73040E-01 -6.62802E-02
    8987.173     -7.231  -0.120  2.13360E-01  2.81749E-01 -6.83892E-02
    8987.203     -7.200  -0.080  2.18104E-01  2.88021E-01 -6.99174E-02
    8987.227     -7.176   0.000  2.21919E-01  2.93060E-01 -7.11413E-02
    8987.282     -7.121   0.120  2.29986E-01  3.04429E-01 -7.44432E-02
    8987.325     -7.078   0.160  2.36221E-01  3.13250E-01 -7.70295E-02
    8987.380     -7.024   0.200  2.44027E-01  3.24504E-01 -8.04765E-02
    8987.447     -6.956   0.240  2.53167E-01  3.38033E-01 -8.48662E-02
    8987.526     -6.877   0.280  2.63224E-01  3.53559E-01 -9.03351E-02
    8987.618     -6.786   0.320  2.73658E-01  3.70678E-01 -9.70201E-02
    8987.721     -6.682   0.360  2.83939E-01  3.88889E-01 -1.04950E-01
    8987.837     -6.566   0.400  2.93663E-01  4.07640E-01 -1.13978E-01
    8987.965     -6.438   0.440  3.02846E-01  4.26428E-01 -1.23581E-01
    8988.105     -6.298   0.480  3.11992E-01  4.44916E-01 -1.32924E-01
    8988.258     -6.146   0.520  3.21732E-01  4.62829E-01 -1.41096E-01
    8988.422     -5.981   0.560  3.32481E-01  4.80057E-01 -1.47576E-01
    8988.599     -5.804   0.600  3.43882E-01  4.96573E-01 -1.52691E-01
    8988.788     -5.615   0.640  3.54707E-01  5.12452E-01 -1.57745E-01
    8988.989     -5.414   0.680  3.63021E-01  5.27747E-01 -1.64727E-01
    8989.203     -5.201   0.720  3.66986E-01  5.42582E-01 -1.75595E-01
    8989.428     -4.975   0.760  3.65514E-01  5.57019E-01 -1.91505E-01
    8989.666     -4.738   0.800  3.58987E-01  5.71152E-01 -2.12164E-01
    8989.916     -4.488   0.840  3.49249E-01  5.85065E-01 -2.35815E-01
    8990.178     -4.225   0.880  3.39170E-01  5.98788E-01 -2.59619E-01
    8990.452     -3.951   0.920  3.32015E-01  6.12380E-01 -2.80365E-01
    8990.739     -3.665   0.960  3.30673E-01  6.25888E-01 -2.95215E-01
    8991.037     -3.366   1.000  3.36724E-01  6.39307E-01 -3.02584E-01
    8991.348     -3.055   1.040  3.50076E-01  6.52667E-01 -3.02591E-01
    8991.671     -2.732   1.080  3.68772E-01  6.65968E-01 -2.97196E-01
    8992.007     -2.397   1.120  3.89980E-01  6.79225E-01 -2.89244E-01
    8992.354     -2.049   1.160  4.12104E-01  6.92386E-01 -2.80283E-01
    8992.714     -1.690   1.200  4.36127E-01  7.05480E-01 -2.69353E-01
    8993.086     -1.318   1.240  4.62214E-01  7.18488E-01 -2.56274E-01
    8993.470     -0.934   1.280  4.85919E-01  7.31390E-01 -2.45470E-01
    8993.866     -0.537   1.320  5.03916E-01  7.44160E-01 -2.40244E-01
    8994.274     -0.129   1.360  5.21933E-01  7.56777E-01 -2.34844E-01
    8994.695      0.292   1.400  5.49828E-01  7.69235E-01 -2.19407E-01
    8995.128      0.724   1.440  5.91188E-01  7.81486E-01 -1.90298E-01
    8995.573      1.169   1.480  6.42219E-01  7.93544E-01 -1.51324E-01
    8996.030      1.627   1.520  6.99659E-01  8.05339E-01 -1.05680E-01
    8996.499      2.096   1.560  7.60854E-01  8.16904E-01 -5.60501E-02
    8996.981      2.578   1.600  8.18294E-01  8.28173E-01 -9.87898E-03
    8997.475      3.071   1.640  8.64785E-01  8.39157E-01  2.56280E-02
    8997.981      3.577   1.680  9.02346E-01  8.49829E-01  5.25174E-02
    8998.499      4.096   1.720  9.35826E-01  8.60181E-01  7.56451E-02
    8999.029      4.626   1.760  9.60629E-01  8.70171E-01  9.04582E-02
    8999.572      5.168   1.800  9.74662E-01  8.79808E-01  9.48541E-02
    9000.127      5.723   1.840  9.88623E-01  8.89070E-01  9.95529E-02
    9000.693      6.290   1.880  1.01122E+00  8.97955E-01  1.13269E-01
    9001.273      6.869   1.920  1.04254E+00  9.06456E-01  1.36085E-01
    9001.864      7.461   1.960  1.08432E+00  9.14575E-01  1.69746E-01
    9002.467      8.064   2.000  1.14255E+00  9.22289E-01  2.20257E-01
    9003.083      8.680   2.040  1.21458E+00  9.29615E-01  2.84961E-01
    9003.711      9.308   2.080  1.27601E+00  9.36516E-01  3.39498E-01
    9004.351      9.948   2.120  1.30084E+00  9.43052E-01  3.57788E-01
    9005.003     10.600   2.160  1.28893E+00  9.49164E-01  3.39766E-01
    9005.668     11.264   2.200  1.26347E+00  9.54896E-01  3.08570E-01
    9006.344     11.941   2.240  1.25147E+00  9.60251E-01  2.91221E-01
    9007.033     12.630   2.280  1.26319E+00  9.65211E-01  2.97983E-01
    9007.734     13.331   2.320  1.28661E+00  9.69801E-01  3.16806E-01
    9008.448     14.044   2.360  1.29651E+00  9.74048E-01  3.22457E-01
    9009.173     14.770   2.400  1.27697E+00  9.77935E-01  2.99039E-01
    9009.911     15.507   2.440  1.23693E+00  9.81467E-01  2.55458E-01
    9010.660     16.257   2.480  1.19006E+00  9.84692E-01  2.05372E-01
    9011.422     17.019   2.520  1.14029E+00  9.87575E-01  1.52714E-01
    9012.197     17.793   2.560  1.09013E+00  9.90183E-01  9.99444E-02
    9012.983     18.580   2.600  1.04457E+00  9.92484E-01  5.20884E-02
    9013.782     19.378   2.640  1.00359E+00  9.94503E-01  9.08436E-03
    9014.592     20.189   2.680  9.64099E-01  9.96267E-01 -3.21683E-02
    9015.415     21.012   2.720  9.31233E-01  9.97785E-01 -6.65517E-02
    9016.250     21.847   2.760  9.15265E-01  9.99064E-01 -8.37986E-02
    9017.098     22.694   2.800  9.17154E-01  1.00013E+00 -8.29758E-02
    9017.957     23.554   2.840  9.25378E-01  1.00097E+00 -7.55922E-02
    9018.829     24.426   2.880  9.32861E-01  1.00163E+00 -6.87712E-02
    9019.713     25.310   2.920  9.36274E-01  1.00212E+00 -6.58481E-02
    9020.609     26.206   2.960  9.35215E-01  1.00243E+00 -6.72123E-02
    9021.517     27.114   3.000  9.30554E-01  1.00259E+00 -7.20402E-02
    9022.438     28.034   3.040  9.23004E-01  1.00261E+00 -7.96056E-02
    9023.371     28.967   3.080  9.13418E-01  1.00252E+00 -8.91016E-02
    9024.315     29.912   3.120  9.03380E-01  1.00229E+00 -9.89083E-02
    9025.272     30.869   3.160  8.94425E-01  1.00196E+00 -1.07540E-01
    9026.242     31.838   3.200  8.87526E-01  1.00153E+00 -1.14007E-01
    9027.223     32.820   3.240  8.83121E-01  1.00104E+00 -1.17917E-01
    9028.217     33.813   3.280  8.81029E-01  1.00046E+00 -1.19435E-01
    9029.223     34.819   3.320  8.80594E-01  9.99818E-01 -1.19224E-01
    9030.241     35.837   3.360  8.81019E-01  9.99125E-01 -1.18106E-01
    9031.271     36.867   3.400  8.81694E-01  9.98387E-01 -1.16694E-01
    9032.313     37.910   3.440  8.82137E-01  9.97612E-01 -1.15475E-01
    9033.368     38.965   3.480  8.82538E-01  9.96822E-01 -1.14284E-01
    9034.435     40.031   3.520  8.83555E-01  9.95999E-01 -1.12444E-01
    9035.514     41.110   3.560  8.86087E-01  9.95148E-01 -1.09061E-01
    9036.605     42.201   3.600  8.91005E-01  9.94313E-01 -1.03308E-01
    9037.708     43.305   3.640  8.98862E-01  9.93477E-01 -9.46147E-02
    9038.824     44.420   3.680  9.09788E-01  9.92620E-01 -8.28316E-02
    9039.952     45.548   3.720  9.23448E-01  9.91788E-01 -6.83407E-02
    9041.092     46.688   3.760  9.39265E-01  9.90986E-01 -5.17215E-02
    9042.244     47.840   3.800  9.56569E-01  9.90193E-01 -3.36236E-02
    9043.408     49.005   3.840  9.74620E-01  9.89429E-01 -1.48093E-02
    9044.585     50.181   3.880  9.92669E-01  9.88677E-01  3.99146E-03
    9045.773     51.370   3.920  1.01014E+00  9.87958E-01  2.21845E-02
    9046.974     52.571   3.960  1.02646E+00  9.87276E-01  3.91800E-02
    9048.187     53.784   4.000  1.04091E+00  9.86632E-01  5.42769E-02
    9049.413     55.009   4.040  1.05270E+00  9.86024E-01  6.66809E-02
    9050.650     56.247   4.080  1.06111E+00  9.85433E-01  7.56738E-02
    9051.900     57.496   4.120  1.06584E+00  9.84903E-01  8.09391E-02
    9053.162     58.758   4.160  1.06741E+00  9.84415E-01  8.29934E-02
    9054.436     60.032   4.200  1.06680E+00  9.83969E-01  8.28265E-02
    9055.722     61.318   4.240  1.06487E+00  9.83563E-01  8.13062E-02
    9057.020     62.617   4.280  1.06196E+00  9.83220E-01  7.87367E-02
    9058.331     63.928   4.320  1.05776E+00  9.82898E-01  7.48644E-02
    9059.654     65.250   4.360  1.05194E+00  9.82637E-01  6.93077E-02
    9060.989     66.585   4.400  1.04455E+00  9.82397E-01  6.21552E-02
    9062.336     67.933   4.440  1.03648E+00  9.82219E-01  5.42628E-02
    9063.695     69.292   4.480  1.02883E+00  9.82082E-01  4.67477E-02
    9065.067     70.664   4.520  1.02246E+00  9.81985E-01  4.04741E-02
    9066.451     72.047   4.560  1.01773E+00  9.81928E-01  3.58003E-02
    9067.847     73.443   4.600  1.01455E+00  9.81910E-01  3.26431E-02
    9069.255     74.852   4.640  1.01265E+00  9.81928E-01  3.07250E-02
    9070.675     76.272   4.680  1.01173E+00  9.81963E-01  2.97690E-02
    9072.108     77.704   4.720  1.01158E+00  9.82054E-01  2.95290E-02
    9073.553     79.149   4.760  1.01191E+00  9.82162E-01  2.97468E-02
    9075.010     80.606   4.800  1.01248E+00  9.82326E-01  3.01541E-02
    9076.479     82.075   4.840  1.01293E+00  9.82480E-01  3.04452E-02
    9077.960     83.557   4.880  1.01291E+00  9.82689E-01  3.02223E-02
    9079.453     85.050   4.920  1.01185E+00  9.82909E-01  2.89454E-02
    9080.959     86.556   4.960  1.00912E+00  9.83159E-01  2.59568E-02
    9082.477     88.074   5.000  1.00408E+00  9.83415E-01  2.06689E-02
    9084.007     89.604   5.040  9.96476E-01  9.83679E-01  1.27977E-02
    9085.549     91.146   5.080  9.86504E-01  9.83970E-01  2.53382E-03
    9087.104     92.701   5.120  9.74899E-01  9.84267E-01 -9.36742E-03
    9088.671     94.267   5.160  9.62879E-01  9.84587E-01 -2.17086E-02
    9090.249     95.846   5.200  9.51842E-01  9.84889E-01 -3.30462E-02
    9091.841     97.437   5.240  9.43190E-01  9.85210E-01 -4.20206E-02
    9093.444     99.040   5.280  9.37801E-01  9.85510E-01 -4.77091E-02
    9095.059    100.656   5.320  9.35920E-01  9.85808E-01 -4.98876E-02
    9096.687    102.283   5.360  9.37102E-01  9.86125E-01 -4.90228E-02
    9098.327    103.923   5.400  9.40323E-01  9.86417E-01 -4.60935E-02
    9099.979    105.575   5.440  9.44428E-01  9.86703E-01 -4.22743E-02
    9101.643    107.239   5.480  9.48350E-01  9.86960E-01 -3.86099E-02
    9103.319    108.916   5.520  9.51557E-01  9.87209E-01 -3.56521E-02
    9105.008    110.604   5.560  9.54115E-01  9.87451E-01 -3.33357E-02
    9106.709    112.305   5.600  9.56501E-01  9.87663E-01 -3.11618E-02
    9108.422    114.018   5.640  9.59207E-01  9.87865E-01 -2.86584E-02
    9110.147    115.743   5.680  9.62335E-01  9.88034E-01 -2.56996E-02
    9111.884    117.481   5.720  9.65569E-01  9.88191E-01 -2.26227E-02
    9113.634    119.230   5.760  9.68279E-01  9.88292E-01 -2.00130E-02
    9115.395    120.992   5.800  9.69978E-01  9.88379E-01 -1.84013E-02
    9117.169    122.766   5.840  9.70474E-01  9.88457E-01 -1.79835E-02
    9118.955    124.552   5.880  9.69892E-01  9.88500E-01 -1.86074E-02
    9120.754    126.350   5.920  9.68529E-01  9.88479E-01 -1.99506E-02
    9122.564    128.161   5.960  9.66819E-01  9.88443E-01 -2.16234E-02
    9124.387    129.983   6.000  9.65210E-01  9.88382E-01 -2.31723E-02
