# # comment:                                                     FEFF 9.9.1  
# # Source:
# # Structure
# # Reduced
# # space
# # abc:
# # angles:106.436465
# # sites:
# # POT  SCF 100  7.0000   0, screened core-hole, AFOLP (folp(0)= 1.150)
# # Abs   Z=29 Rmt= 1.222 Rnm= 1.299 K  shell
# # Pot 1 Z=56 Rmt= 1.928 Rnm= 1.989
# # Pot 2 Z=39 Rmt= 1.633 Rnm= 1.704
# # Pot 3 Z=29 Rmt= 1.218 Rnm= 1.299
# # Pot 4 Z= 8 Rmt= 1.052 Rnm= 1.108
# # Gam_ch=1.729E+00 H-L exch Vi= 0.000E+00 Vr= 0.000E+00
# # Mu=-8.157E+00eV kf=2.004E+00 Vint=-1.715E+01eV Rs_int= 1.810
# FMS rfms= 9.0000
# # PATH  Rmax=-1.000,  Keep_limit= 0.00, Heap_limit 0.00  Pwcrit= 2.50%
#  S02=0.950  Temp=   0.00  Debye_temp=   0.00  Global_sig2= 0.00000
#  Energy zero shift, vr, vi    0.00000E+00   0.00000E+00
#  Curved wave amplitude ratio filter   4.000%
#     file         sig2 tot  cw amp ratio   deg  nlegs   reff  inp sig2
#     0/   0 paths used
#  xsedge+ 50, used to normalize mu           2.4356E-04
#  -----------------------------------------------------------------------
#  omega    e    k    mu    mu0     chi     @#
    8984.939    -11.967  -1.000  4.10313E-02  5.88979E-02 -1.78667E-02
    8985.237    -11.669  -0.960  4.32499E-02  6.33025E-02 -2.00526E-02
    8985.524    -11.382  -0.920  4.56488E-02  6.82061E-02 -2.25572E-02
    8985.798    -11.108  -0.880  4.82500E-02  7.36827E-02 -2.54327E-02
    8986.060    -10.846  -0.840  5.10787E-02  7.98187E-02 -2.87400E-02
    8986.310    -10.596  -0.800  5.41643E-02  8.67142E-02 -3.25499E-02
    8986.548    -10.358  -0.760  5.75398E-02  9.44840E-02 -3.69442E-02
    8986.774    -10.133  -0.720  6.12427E-02  1.03258E-01 -4.20153E-02
    8986.987     -9.919  -0.680  6.53137E-02  1.13179E-01 -4.78658E-02
    8987.188     -9.718  -0.640  6.97951E-02  1.24399E-01 -5.46043E-02
    8987.377     -9.529  -0.600  7.47277E-02  1.37067E-01 -6.23388E-02
    8987.554     -9.352  -0.560  8.01443E-02  1.51308E-01 -7.11636E-02
    8987.718     -9.188  -0.520  8.60604E-02  1.67200E-01 -8.11391E-02
    8987.871     -9.035  -0.480  9.24615E-02  1.84726E-01 -9.22642E-02
    8988.011     -8.895  -0.440  9.92882E-02  2.03732E-01 -1.04444E-01
    8988.139     -8.767  -0.400  1.06424E-01  2.23887E-01 -1.17463E-01
    8988.255     -8.651  -0.360  1.13693E-01  2.44667E-01 -1.30973E-01
    8988.358     -8.548  -0.320  1.20874E-01  2.65392E-01 -1.44518E-01
    8988.450     -8.456  -0.280  1.27723E-01  2.85307E-01 -1.57584E-01
    8988.529     -8.377  -0.240  1.34014E-01  3.03689E-01 -1.69674E-01
    8988.596     -8.310  -0.200  1.39559E-01  3.19930E-01 -1.80371E-01
    8988.651     -8.255  -0.160  1.44221E-01  3.33589E-01 -1.89368E-01
    8988.694     -8.212  -0.120  1.47910E-01  3.44383E-01 -1.96472E-01
    8988.724     -8.182  -0.080  1.50572E-01  3.52157E-01 -2.01586E-01
    8988.749     -8.157   0.000  1.52708E-01  3.58402E-01 -2.05694E-01
    8988.803     -8.103   0.120  1.57627E-01  3.72483E-01 -2.14856E-01
    8988.846     -8.060   0.160  1.61427E-01  3.83403E-01 -2.21977E-01
    8988.901     -8.005   0.200  1.66333E-01  3.97351E-01 -2.31018E-01
    8988.968     -7.938   0.240  1.72296E-01  4.14131E-01 -2.41834E-01
    8989.047     -7.859   0.280  1.79259E-01  4.33357E-01 -2.54098E-01
    8989.139     -7.767   0.320  1.87159E-01  4.54549E-01 -2.67391E-01
    8989.242     -7.664   0.360  1.95909E-01  4.77086E-01 -2.81177E-01
    8989.358     -7.548   0.400  2.05349E-01  5.00264E-01 -2.94915E-01
    8989.486     -7.420   0.440  2.15317E-01  5.23480E-01 -3.08163E-01
    8989.626     -7.280   0.480  2.25549E-01  5.46244E-01 -3.20696E-01
    8989.779     -7.127   0.520  2.35726E-01  5.68258E-01 -3.32532E-01
    8989.943     -6.963   0.560  2.45581E-01  5.89362E-01 -3.43781E-01
    8990.120     -6.786   0.600  2.55144E-01  6.09540E-01 -3.54396E-01
    8990.309     -6.597   0.640  2.64832E-01  6.28792E-01 -3.63960E-01
    8990.510     -6.396   0.680  2.75446E-01  6.47245E-01 -3.71799E-01
    8990.724     -6.182   0.720  2.88050E-01  6.64978E-01 -3.76929E-01
    8990.949     -5.957   0.760  3.04159E-01  6.82113E-01 -3.77955E-01
    8991.187     -5.719   0.800  3.25596E-01  6.98697E-01 -3.73101E-01
    8991.437     -5.469   0.840  3.53833E-01  7.14824E-01 -3.60991E-01
    8991.699     -5.207   0.880  3.88593E-01  7.30553E-01 -3.41960E-01
    8991.973     -4.933   0.920  4.26571E-01  7.45905E-01 -3.19334E-01
    8992.260     -4.646   0.960  4.60495E-01  7.60933E-01 -3.00438E-01
    8992.559     -4.347   1.000  4.80893E-01  7.75635E-01 -2.94742E-01
    8992.869     -4.037   1.040  4.83643E-01  7.89996E-01 -3.06354E-01
    8993.193     -3.713   1.080  4.75682E-01  8.04038E-01 -3.28357E-01
    8993.528     -3.378   1.120  4.68704E-01  8.17734E-01 -3.49030E-01
    8993.875     -3.031   1.160  4.70801E-01  8.31093E-01 -3.60292E-01
    8994.235     -2.671   1.200  4.84782E-01  8.44077E-01 -3.59296E-01
    8994.607     -2.299   1.240  5.09436E-01  8.56650E-01 -3.47214E-01
    8994.991     -1.915   1.280  5.41542E-01  8.68831E-01 -3.27289E-01
    8995.387     -1.519   1.320  5.78274E-01  8.80596E-01 -3.02322E-01
    8995.796     -1.111   1.360  6.20361E-01  8.91882E-01 -2.71521E-01
    8996.216     -0.690   1.400  6.73191E-01  9.02707E-01 -2.29515E-01
    8996.649     -0.257   1.440  7.43475E-01  9.13046E-01 -1.69572E-01
    8997.094      0.188   1.480  8.36445E-01  9.22900E-01 -8.64543E-02
    8997.551      0.645   1.520  9.57778E-01  9.32243E-01  2.55346E-02
    8998.021      1.115   1.560  1.11513E+00  9.41056E-01  1.74073E-01
    8998.502      1.596   1.600  1.28440E+00  9.49360E-01  3.35040E-01
    8998.996      2.090   1.640  1.38783E+00  9.57114E-01  4.30711E-01
    8999.502      2.596   1.680  1.42371E+00  9.64362E-01  4.59352E-01
    9000.020      3.114   1.720  1.50040E+00  9.71086E-01  5.29312E-01
    9000.550      3.644   1.760  1.63527E+00  9.77292E-01  6.57978E-01
    9001.093      4.187   1.800  1.69800E+00  9.83005E-01  7.14990E-01
    9001.648      4.742   1.840  1.61676E+00  9.88213E-01  6.28546E-01
    9002.215      5.309   1.880  1.48120E+00  9.92922E-01  4.88274E-01
    9002.794      5.888   1.920  1.36701E+00  9.97181E-01  3.69827E-01
    9003.385      6.479   1.960  1.28148E+00  1.00098E+00  2.80502E-01
    9003.989      7.082   2.000  1.21018E+00  1.00435E+00  2.05835E-01
    9004.604      7.698   2.040  1.15887E+00  1.00729E+00  1.51576E-01
    9005.232      8.326   2.080  1.14140E+00  1.00983E+00  1.31571E-01
    9005.872      8.966   2.120  1.14935E+00  1.01201E+00  1.37342E-01
    9006.524      9.618   2.160  1.15687E+00  1.01385E+00  1.43025E-01
    9007.189     10.283   2.200  1.13604E+00  1.01532E+00  1.20713E-01
    9007.866     10.960   2.240  1.08394E+00  1.01652E+00  6.74265E-02
    9008.554     11.648   2.280  1.02782E+00  1.01740E+00  1.04165E-02
    9009.255     12.349   2.320  9.94623E-01  1.01802E+00 -2.33990E-02
    9009.969     13.063   2.360  9.91251E-01  1.01842E+00 -2.71648E-02
    9010.694     13.788   2.400  1.00748E+00  1.01857E+00 -1.10895E-02
    9011.432     14.526   2.440  1.03937E+00  1.01851E+00  2.08510E-02
    9012.182     15.275   2.480  1.07066E+00  1.01828E+00  5.23802E-02
    9012.944     16.037   2.520  1.09250E+00  1.01789E+00  7.46103E-02
    9013.718     16.812   2.560  1.09796E+00  1.01735E+00  8.06118E-02
    9014.504     17.598   2.600  1.08637E+00  1.01667E+00  6.96978E-02
    9015.303     18.397   2.640  1.06242E+00  1.01591E+00  4.65106E-02
    9016.113     19.207   2.680  1.03287E+00  1.01502E+00  1.78544E-02
    9016.936     20.030   2.720  1.00387E+00  1.01408E+00 -1.02132E-02
    9017.772     20.865   2.760  9.78508E-01  1.01305E+00 -3.45455E-02
    9018.619     21.713   2.800  9.57526E-01  1.01200E+00 -5.44704E-02
    9019.478     22.572   2.840  9.40553E-01  1.01088E+00 -7.03250E-02
    9020.350     23.444   2.880  9.26317E-01  1.00975E+00 -8.34289E-02
    9021.234     24.328   2.920  9.13063E-01  1.00860E+00 -9.55422E-02
    9022.130     25.224   2.960  8.99800E-01  1.00746E+00 -1.07662E-01
    9023.038     26.132   3.000  8.86889E-01  1.00632E+00 -1.19432E-01
    9023.959     27.053   3.040  8.75769E-01  1.00521E+00 -1.29438E-01
    9024.892     27.986   3.080  8.67839E-01  1.00410E+00 -1.36266E-01
    9025.837     28.930   3.120  8.64126E-01  1.00304E+00 -1.38909E-01
    9026.794     29.888   3.160  8.64476E-01  1.00201E+00 -1.37529E-01
    9027.763     30.857   3.200  8.68071E-01  1.00102E+00 -1.32945E-01
    9028.744     31.838   3.240  8.73791E-01  1.00009E+00 -1.26301E-01
    9029.738     32.832   3.280  8.80315E-01  9.99194E-01 -1.18879E-01
    9030.744     33.838   3.320  8.86999E-01  9.98386E-01 -1.11387E-01
    9031.762     34.856   3.360  8.93926E-01  9.97608E-01 -1.03682E-01
    9032.792     35.886   3.400  9.02098E-01  9.96924E-01 -9.48258E-02
    9033.834     36.928   3.440  9.12264E-01  9.96294E-01 -8.40301E-02
    9034.889     37.983   3.480  9.25024E-01  9.95739E-01 -7.07154E-02
    9035.956     39.050   3.520  9.40460E-01  9.95262E-01 -5.48023E-02
    9037.035     40.129   3.560  9.58106E-01  9.94861E-01 -3.67552E-02
    9038.126     41.220   3.600  9.77148E-01  9.94515E-01 -1.73662E-02
    9039.229     42.323   3.640  9.96464E-01  9.94246E-01  2.21733E-03
    9040.345     43.439   3.680  1.01463E+00  9.94056E-01  2.05695E-02
    9041.473     44.567   3.720  1.03010E+00  9.93943E-01  3.61535E-02
    9042.613     45.707   3.760  1.04168E+00  9.93908E-01  4.77702E-02
    9043.765     46.859   3.800  1.04859E+00  9.93949E-01  5.46409E-02
    9044.929     48.023   3.840  1.05048E+00  9.94045E-01  5.64353E-02
    9046.106     49.200   3.880  1.04787E+00  9.94216E-01  5.36587E-02
    9047.294     50.388   3.920  1.04202E+00  9.94461E-01  4.75586E-02
    9048.495     51.589   3.960  1.03456E+00  9.94757E-01  3.98018E-02
    9049.708     52.802   4.000  1.02711E+00  9.95123E-01  3.19890E-02
    9050.934     54.028   4.040  1.02082E+00  9.95537E-01  2.52828E-02
    9052.171     55.265   4.080  1.01635E+00  9.96019E-01  2.03341E-02
    9053.421     56.515   4.120  1.01398E+00  9.96525E-01  1.74545E-02
    9054.683     57.777   4.160  1.01391E+00  9.97098E-01  1.68110E-02
    9055.957     59.051   4.200  1.01591E+00  9.97735E-01  1.81780E-02
    9057.243     60.337   4.240  1.01951E+00  9.98391E-01  2.11237E-02
    9058.541     61.635   4.280  1.02450E+00  9.99083E-01  2.54151E-02
    9059.852     62.946   4.320  1.03078E+00  9.99810E-01  3.09712E-02
    9061.175     64.269   4.360  1.03803E+00  1.00055E+00  3.74835E-02
    9062.510     65.604   4.400  1.04565E+00  1.00132E+00  4.43311E-02
    9063.857     66.951   4.440  1.05313E+00  1.00213E+00  5.10041E-02
    9065.217     68.310   4.480  1.06022E+00  1.00294E+00  5.72816E-02
    9066.588     69.682   4.520  1.06697E+00  1.00375E+00  6.32182E-02
    9067.972     71.066   4.560  1.07346E+00  1.00459E+00  6.88732E-02
    9069.368     72.462   4.600  1.07927E+00  1.00540E+00  7.38656E-02
    9070.776     73.870   4.640  1.08338E+00  1.00624E+00  7.71365E-02
    9072.196     75.290   4.680  1.08425E+00  1.00705E+00  7.72013E-02
    9073.629     76.723   4.720  1.08067E+00  1.00786E+00  7.28095E-02
    9075.074     78.168   4.760  1.07223E+00  1.00865E+00  6.35742E-02
    9076.531     79.625   4.800  1.05945E+00  1.00942E+00  5.00303E-02
    9078.000     81.094   4.840  1.04340E+00  1.01014E+00  3.32584E-02
    9079.481     82.575   4.880  1.02550E+00  1.01086E+00  1.46443E-02
    9080.975     84.069   4.920  1.00739E+00  1.01154E+00 -4.14775E-03
    9082.480     85.574   4.960  9.90808E-01  1.01220E+00 -2.13946E-02
    9083.998     87.092   5.000  9.77218E-01  1.01281E+00 -3.55875E-02
    9085.528     88.622   5.040  9.67700E-01  1.01339E+00 -4.56872E-02
    9087.071     90.165   5.080  9.62604E-01  1.01390E+00 -5.12984E-02
    9088.625     91.719   5.120  9.61491E-01  1.01437E+00 -5.28827E-02
    9090.192     93.286   5.160  9.63176E-01  1.01480E+00 -5.16247E-02
    9091.771     94.865   5.200  9.66241E-01  1.01518E+00 -4.89418E-02
    9093.362     96.456   5.240  9.69513E-01  1.01552E+00 -4.60066E-02
    9094.965     98.059   5.280  9.72353E-01  1.01579E+00 -4.34334E-02
    9096.580     99.674   5.320  9.74689E-01  1.01600E+00 -4.13148E-02
    9098.208    101.302   5.360  9.76696E-01  1.01618E+00 -3.94798E-02
    9099.848    102.942   5.400  9.78478E-01  1.01628E+00 -3.77979E-02
    9101.500    104.594   5.440  9.80150E-01  1.01633E+00 -3.61781E-02
    9103.164    106.258   5.480  9.81898E-01  1.01633E+00 -3.44349E-02
    9104.840    107.934   5.520  9.83985E-01  1.01627E+00 -3.22823E-02
    9106.529    109.623   5.560  9.86675E-01  1.01615E+00 -2.94769E-02
    9108.230    111.324   5.600  9.90022E-01  1.01597E+00 -2.59465E-02
    9109.943    113.037   5.640  9.93675E-01  1.01576E+00 -2.20858E-02
    9111.668    114.762   5.680  9.96945E-01  1.01548E+00 -1.85395E-02
    9113.405    116.499   5.720  9.99058E-01  1.01514E+00 -1.60819E-02
    9115.155    118.249   5.760  9.99589E-01  1.01478E+00 -1.51865E-02
    9116.916    120.010   5.800  9.98381E-01  1.01435E+00 -1.59660E-02
    9118.690    121.784   5.840  9.95697E-01  1.01390E+00 -1.82047E-02
    9120.477    123.570   5.880  9.92066E-01  1.01339E+00 -2.13286E-02
    9122.275    125.369   5.920  9.88445E-01  1.01285E+00 -2.44072E-02
    9124.085    127.179   5.960  9.86156E-01  1.01228E+00 -2.61199E-02
    9125.908    129.002   6.000  9.86449E-01  1.01166E+00 -2.52133E-02
