# # comment:                                                     FEFF 9.9.1  
# # Source:
# # Structure
# # Reduced
# # space
# # abc:
# # angles:
# # sites:
# # POT  SCF 100  7.0000   0, screened core-hole, AFOLP (folp(0)= 1.150)
# # Abs   Z=29 Rmt= 1.260 Rnm= 1.350 K  shell
# # Pot 1 Z=29 Rmt= 1.260 Rnm= 1.350
# # Pot 2 Z=32 Rmt= 1.133 Rnm= 1.326
# # Pot 3 Z=82 Rmt= 1.698 Rnm= 1.782
# # Pot 4 Z= 8 Rmt= 0.997 Rnm= 1.094
# # Gam_ch=1.729E+00 H-L exch Vi= 0.000E+00 Vr= 0.000E+00
# # Mu=-6.175E+00eV kf=2.161E+00 Vint=-1.568E+01eV Rs_int= 1.679
# FMS rfms= 9.0000
# # PATH  Rmax=-1.000,  Keep_limit= 0.00, Heap_limit 0.00  Pwcrit= 2.50%
#  S02=0.950  Temp=   0.00  Debye_temp=   0.00  Global_sig2= 0.00000
#  Energy zero shift, vr, vi    0.00000E+00   0.00000E+00
#  Curved wave amplitude ratio filter   4.000%
#     file         sig2 tot  cw amp ratio   deg  nlegs   reff  inp sig2
#     0/   0 paths used
#  xsedge+ 50, used to normalize mu           2.4669E-04
#  -----------------------------------------------------------------------
#  omega    e    k    mu    mu0     chi     @#
    8983.363     -9.985  -1.000  4.04387E-02  5.35311E-02 -1.30924E-02
    8983.662     -9.687  -0.960  4.26662E-02  5.74300E-02 -1.47639E-02
    8983.948     -9.400  -0.920  4.50704E-02  6.17645E-02 -1.66941E-02
    8984.223     -9.126  -0.880  4.76705E-02  6.65989E-02 -1.89284E-02
    8984.485     -8.864  -0.840  5.04881E-02  7.20081E-02 -2.15200E-02
    8984.735     -8.614  -0.800  5.35474E-02  7.80791E-02 -2.45318E-02
    8984.972     -8.376  -0.760  5.68751E-02  8.49116E-02 -2.80365E-02
    8985.198     -8.150  -0.720  6.05005E-02  9.26184E-02 -3.21179E-02
    8985.411     -7.937  -0.680  6.44546E-02  1.01324E-01 -3.68692E-02
    8985.612     -7.736  -0.640  6.87683E-02  1.11159E-01 -4.23906E-02
    8985.801     -7.547  -0.600  7.34702E-02  1.22253E-01 -4.87825E-02
    8985.978     -7.370  -0.560  7.85817E-02  1.34715E-01 -5.61337E-02
    8986.143     -7.206  -0.520  8.41101E-02  1.48613E-01 -6.45024E-02
    8986.295     -7.053  -0.480  9.00396E-02  1.63930E-01 -7.38905E-02
    8986.435     -6.913  -0.440  9.63204E-02  1.80533E-01 -8.42129E-02
    8986.563     -6.785  -0.400  1.02860E-01  1.98132E-01 -9.52726E-02
    8986.679     -6.669  -0.360  1.09519E-01  2.16272E-01 -1.06753E-01
    8986.783     -6.565  -0.320  1.16120E-01  2.34360E-01 -1.18240E-01
    8986.874     -6.474  -0.280  1.22462E-01  2.51739E-01 -1.29277E-01
    8986.954     -6.395  -0.240  1.28345E-01  2.67779E-01 -1.39434E-01
    8987.021     -6.328  -0.200  1.33590E-01  2.81950E-01 -1.48361E-01
    8987.076     -6.273  -0.160  1.38053E-01  2.93869E-01 -1.55815E-01
    8987.118     -6.230  -0.120  1.41628E-01  3.03288E-01 -1.61660E-01
    8987.149     -6.200  -0.080  1.44240E-01  3.10072E-01 -1.65832E-01
    8987.173     -6.175   0.000  1.46385E-01  3.15523E-01 -1.69138E-01
    8987.228     -6.120   0.120  1.51161E-01  3.27795E-01 -1.76634E-01
    8987.271     -6.078   0.160  1.54892E-01  3.37341E-01 -1.82448E-01
    8987.325     -6.023   0.200  1.59748E-01  3.49533E-01 -1.89785E-01
    8987.393     -5.956   0.240  1.65705E-01  3.64161E-01 -1.98456E-01
    8987.472     -5.877   0.280  1.72801E-01  3.80966E-01 -2.08165E-01
    8987.563     -5.785   0.320  1.81026E-01  3.99492E-01 -2.18466E-01
    8987.667     -5.682   0.360  1.90377E-01  4.19178E-01 -2.28801E-01
    8987.783     -5.566   0.400  2.00919E-01  4.39471E-01 -2.38551E-01
    8987.911     -5.438   0.440  2.12720E-01  4.59804E-01 -2.47084E-01
    8988.051     -5.297   0.480  2.26040E-01  4.79795E-01 -2.53755E-01
    8988.203     -5.145   0.520  2.41170E-01  4.99185E-01 -2.58015E-01
    8988.368     -4.980   0.560  2.58287E-01  5.17794E-01 -2.59507E-01
    8988.545     -4.804   0.600  2.77493E-01  5.35654E-01 -2.58161E-01
    8988.734     -4.615   0.640  2.98405E-01  5.52782E-01 -2.54377E-01
    8988.935     -4.414   0.680  3.20336E-01  5.69273E-01 -2.48937E-01
    8989.148     -4.200   0.720  3.42660E-01  5.85239E-01 -2.42578E-01
    8989.374     -3.975   0.760  3.65411E-01  6.00725E-01 -2.35315E-01
    8989.611     -3.737   0.800  3.89725E-01  6.15855E-01 -2.26130E-01
    8989.861     -3.487   0.840  4.17091E-01  6.30694E-01 -2.13602E-01
    8990.124     -3.225   0.880  4.48048E-01  6.45292E-01 -1.97244E-01
    8990.398     -2.951   0.920  4.80861E-01  6.59690E-01 -1.78829E-01
    8990.684     -2.664   0.960  5.10952E-01  6.73915E-01 -1.62963E-01
    8990.983     -2.365   1.000  5.32365E-01  6.88005E-01 -1.55640E-01
    8991.294     -2.054   1.040  5.41681E-01  7.01927E-01 -1.60246E-01
    8991.617     -1.731   1.080  5.41742E-01  7.15721E-01 -1.73979E-01
    8991.952     -1.396   1.120  5.39434E-01  7.29380E-01 -1.89946E-01
    8992.300     -1.049   1.160  5.40257E-01  7.42853E-01 -2.02596E-01
    8992.659     -0.689   1.200  5.47142E-01  7.56165E-01 -2.09023E-01
    8993.031     -0.317   1.240  5.62838E-01  7.69296E-01 -2.06458E-01
    8993.415      0.067   1.280  5.89217E-01  7.82204E-01 -1.92987E-01
    8993.812      0.463   1.320  6.22593E-01  7.94885E-01 -1.72292E-01
    8994.220      0.872   1.360  6.56116E-01  8.07294E-01 -1.51178E-01
    8994.641      1.292   1.400  6.90093E-01  8.19446E-01 -1.29354E-01
    8995.073      1.725   1.440  7.28169E-01  8.31295E-01 -1.03126E-01
    8995.518      2.170   1.480  7.69201E-01  8.42810E-01 -7.36095E-02
    8995.976      2.627   1.520  8.13705E-01  8.53987E-01 -4.02820E-02
    8996.445      3.097   1.560  8.69364E-01  8.64800E-01  4.56436E-03
    8996.927      3.578   1.600  9.44195E-01  8.75241E-01  6.89538E-02
    8997.420      4.072   1.640  1.03648E+00  8.85285E-01  1.51190E-01
    8997.926      4.578   1.680  1.13476E+00  8.94929E-01  2.39831E-01
    8998.445      5.096   1.720  1.22882E+00  9.04147E-01  3.24671E-01
    8998.975      5.627   1.760  1.31312E+00  9.12937E-01  4.00184E-01
    8999.517      6.169   1.800  1.37655E+00  9.21317E-01  4.55236E-01
    9000.072      6.724   1.840  1.40795E+00  9.29224E-01  4.78727E-01
    9000.639      7.291   1.880  1.41057E+00  9.36720E-01  4.73846E-01
    9001.218      7.870   1.920  1.38999E+00  9.43766E-01  4.46224E-01
    9001.809      8.461   1.960  1.34434E+00  9.50384E-01  3.93957E-01
    9002.413      9.065   2.000  1.27490E+00  9.56555E-01  3.18345E-01
    9003.029      9.680   2.040  1.19347E+00  9.62324E-01  2.31148E-01
    9003.657     10.308   2.080  1.11787E+00  9.67655E-01  1.50218E-01
    9004.297     10.948   2.120  1.06194E+00  9.72572E-01  8.93654E-02
    9004.949     11.601   2.160  1.02596E+00  9.77101E-01  4.88560E-02
    9005.613     12.265   2.200  1.00072E+00  9.81229E-01  1.94933E-02
    9006.290     12.942   2.240  9.79263E-01  9.84982E-01 -5.71912E-03
    9006.979     13.631   2.280  9.62024E-01  9.88389E-01 -2.63654E-02
    9007.680     14.332   2.320  9.51369E-01  9.91436E-01 -4.00668E-02
    9008.393     15.045   2.360  9.48055E-01  9.94152E-01 -4.60965E-02
    9009.119     15.770   2.400  9.53273E-01  9.96544E-01 -4.32704E-02
    9009.856     16.508   2.440  9.71994E-01  9.98662E-01 -2.66673E-02
    9010.606     17.258   2.480  1.00793E+00  1.00047E+00  7.45811E-03
    9011.368     18.020   2.520  1.05567E+00  1.00202E+00  5.36499E-02
    9012.142     18.794   2.560  1.09788E+00  1.00333E+00  9.45518E-02
    9012.929     19.580   2.600  1.11225E+00  1.00439E+00  1.07863E-01
    9013.727     20.379   2.640  1.10538E+00  1.00524E+00  1.00137E-01
    9014.538     21.190   2.680  1.08619E+00  1.00588E+00  8.03042E-02
    9015.361     22.013   2.720  1.05993E+00  1.00633E+00  5.36032E-02
    9016.196     22.848   2.760  1.03099E+00  1.00660E+00  2.43852E-02
    9017.043     23.695   2.800  1.00299E+00  1.00674E+00 -3.75051E-03
    9017.903     24.555   2.840  9.78570E-01  1.00672E+00 -2.81541E-02
    9018.775     25.426   2.880  9.58596E-01  1.00658E+00 -4.79834E-02
    9019.659     26.310   2.920  9.42288E-01  1.00632E+00 -6.40285E-02
    9020.555     27.206   2.960  9.28692E-01  1.00596E+00 -7.72682E-02
    9021.463     28.115   3.000  9.16827E-01  1.00552E+00 -8.86905E-02
    9022.383     29.035   3.040  9.05926E-01  1.00497E+00 -9.90468E-02
    9023.316     29.968   3.080  8.95988E-01  1.00440E+00 -1.08407E-01
    9024.261     30.913   3.120  8.87398E-01  1.00375E+00 -1.16351E-01
    9025.218     31.870   3.160  8.80606E-01  1.00306E+00 -1.22450E-01
    9026.187     32.839   3.200  8.76015E-01  1.00232E+00 -1.26308E-01
    9027.169     33.820   3.240  8.74006E-01  1.00155E+00 -1.27549E-01
    9028.162     34.814   3.280  8.74709E-01  1.00078E+00 -1.26068E-01
    9029.168     35.820   3.320  8.78201E-01  9.99994E-01 -1.21793E-01
    9030.186     36.838   3.360  8.84609E-01  9.99208E-01 -1.14599E-01
    9031.216     37.868   3.400  8.93984E-01  9.98422E-01 -1.04439E-01
    9032.259     38.911   3.440  9.06042E-01  9.97640E-01 -9.15977E-02
    9033.313     39.965   3.480  9.20358E-01  9.96885E-01 -7.65265E-02
    9034.380     41.032   3.520  9.36334E-01  9.96138E-01 -5.98048E-02
    9035.459     42.111   3.560  9.53312E-01  9.95423E-01 -4.21113E-02
    9036.550     43.202   3.600  9.70598E-01  9.94721E-01 -2.41226E-02
    9037.654     44.305   3.640  9.87367E-01  9.94077E-01 -6.70944E-03
    9038.769     45.421   3.680  1.00235E+00  9.93449E-01  8.90415E-03
    9039.897     46.549   3.720  1.01430E+00  9.92880E-01  2.14224E-02
    9041.037     47.689   3.760  1.02230E+00  9.92332E-01  2.99683E-02
    9042.189     48.841   3.800  1.02613E+00  9.91844E-01  3.42849E-02
    9043.354     50.005   3.840  1.02622E+00  9.91377E-01  3.48468E-02
    9044.530     51.182   3.880  1.02383E+00  9.90974E-01  3.28519E-02
    9045.719     52.370   3.920  1.02047E+00  9.90614E-01  2.98595E-02
    9046.920     53.571   3.960  1.01762E+00  9.90320E-01  2.72960E-02
    9048.133     54.784   4.000  1.01609E+00  9.90049E-01  2.60430E-02
    9049.358     56.010   4.040  1.01614E+00  9.89841E-01  2.62946E-02
    9050.596     57.247   4.080  1.01746E+00  9.89676E-01  2.77793E-02
    9051.845     58.497   4.120  1.01967E+00  9.89554E-01  3.01186E-02
    9053.107     59.759   4.160  1.02263E+00  9.89475E-01  3.31555E-02
    9054.381     61.033   4.200  1.02642E+00  9.89462E-01  3.69621E-02
    9055.667     62.319   4.240  1.03108E+00  9.89489E-01  4.15893E-02
    9056.966     63.618   4.280  1.03641E+00  9.89536E-01  4.68704E-02
    9058.277     64.928   4.320  1.04206E+00  9.89644E-01  5.24142E-02
    9059.599     66.251   4.360  1.04738E+00  9.89793E-01  5.75895E-02
    9060.934     67.586   4.400  1.05169E+00  9.89979E-01  6.17091E-02
    9062.282     68.933   4.440  1.05441E+00  9.90182E-01  6.42330E-02
    9063.641     70.293   4.480  1.05523E+00  9.90442E-01  6.47874E-02
    9065.013     71.664   4.520  1.05396E+00  9.90715E-01  6.32408E-02
    9066.396     73.048   4.560  1.05078E+00  9.91022E-01  5.97600E-02
    9067.792     74.444   4.600  1.04601E+00  9.91338E-01  5.46689E-02
    9069.200     75.852   4.640  1.04009E+00  9.91687E-01  4.84008E-02
    9070.621     77.273   4.680  1.03353E+00  9.92069E-01  4.14644E-02
    9072.053     78.705   4.720  1.02681E+00  9.92458E-01  3.43513E-02
    9073.498     80.150   4.760  1.02032E+00  9.92874E-01  2.74417E-02
    9074.955     81.607   4.800  1.01415E+00  9.93271E-01  2.08815E-02
    9076.424     83.076   4.840  1.00818E+00  9.93692E-01  1.44877E-02
    9077.906     84.557   4.880  1.00204E+00  9.94116E-01  7.92504E-03
    9079.399     86.051   4.920  9.95480E-01  9.94541E-01  9.38479E-04
    9080.905     87.556   4.960  9.88449E-01  9.94967E-01 -6.51829E-03
    9082.423     89.074   5.000  9.81139E-01  9.95412E-01 -1.42727E-02
    9083.953     90.604   5.040  9.73768E-01  9.95808E-01 -2.20395E-02
    9085.495     92.147   5.080  9.66761E-01  9.96220E-01 -2.94595E-02
    9087.050     93.701   5.120  9.60496E-01  9.96606E-01 -3.61095E-02
    9088.616     95.268   5.160  9.55368E-01  9.96985E-01 -4.16161E-02
    9090.195     96.847   5.200  9.51536E-01  9.97356E-01 -4.58201E-02
    9091.786     98.438   5.240  9.48815E-01  9.97696E-01 -4.88809E-02
    9093.389    100.041   5.280  9.46904E-01  9.98025E-01 -5.11201E-02
    9095.005    101.656   5.320  9.45412E-01  9.98319E-01 -5.29071E-02
    9096.632    103.284   5.360  9.44049E-01  9.98577E-01 -5.45276E-02
    9098.272    104.924   5.400  9.42746E-01  9.98799E-01 -5.60529E-02
    9099.924    106.576   5.440  9.41802E-01  9.99010E-01 -5.72078E-02
    9101.588    108.240   5.480  9.41765E-01  9.99207E-01 -5.74416E-02
    9103.265    109.916   5.520  9.43122E-01  9.99344E-01 -5.62220E-02
    9104.953    111.605   5.560  9.46148E-01  9.99443E-01 -5.32946E-02
    9106.654    113.306   5.600  9.50845E-01  9.99528E-01 -4.86829E-02
    9108.367    115.019   5.640  9.57010E-01  9.99574E-01 -4.25634E-02
    9110.092    116.744   5.680  9.64435E-01  9.99581E-01 -3.51460E-02
    9111.830    118.481   5.720  9.72820E-01  9.99549E-01 -2.67290E-02
    9113.579    120.231   5.760  9.81693E-01  9.99478E-01 -1.77846E-02
    9115.341    121.993   5.800  9.90415E-01  9.99367E-01 -8.95278E-03
    9117.115    123.767   5.840  9.98425E-01  9.99219E-01 -7.94613E-04
    9118.901    125.553   5.880  1.00553E+00  9.99034E-01  6.50011E-03
    9120.699    127.351   5.920  1.01197E+00  9.98837E-01  1.31373E-02
    9122.510    129.161   5.960  1.01794E+00  9.98579E-01  1.93599E-02
    9124.332    130.984   6.000  1.02353E+00  9.98286E-01  2.52394E-02
