# # comment:                                                     FEFF 9.9.1  
# # Source:
# # Structure
# # Reduced
# # space
# # abc:
# # angles:111.439692
# # sites:
# # POT  SCF 100  7.0000   0, screened core-hole, AFOLP (folp(0)= 1.150)
# # Abs   Z=29 Rmt= 1.202 Rnm= 1.290 K  shell
# # Pot 1 Z=29 Rmt= 1.178 Rnm= 1.278
# # Pot 2 Z=15 Rmt= 0.940 Rnm= 1.157
# # Pot 3 Z= 8 Rmt= 0.888 Rnm= 1.047
# # Gam_ch=1.729E+00 H-L exch Vi= 0.000E+00 Vr= 0.000E+00
# # Mu=-6.572E+00eV kf=2.483E+00 Vint=-1.712E+01eV Rs_int= 1.461
# FMS rfms= 9.0000
# # PATH  Rmax=-1.000,  Keep_limit= 0.00, Heap_limit 0.00  Pwcrit= 2.50%
#  S02=0.950  Temp=   0.00  Debye_temp=   0.00  Global_sig2= 0.00000
#  Energy zero shift, vr, vi    0.00000E+00   0.00000E+00
#  Curved wave amplitude ratio filter   4.000%
#     file         sig2 tot  cw amp ratio   deg  nlegs   reff  inp sig2
#     0/   0 paths used
#  xsedge+ 50, used to normalize mu           2.4795E-04
#  -----------------------------------------------------------------------
#  omega    e    k    mu    mu0     chi     @#
    8983.363    -10.382  -1.000  3.92270E-02  5.26791E-02 -1.34522E-02
    8983.662    -10.083  -0.960  4.14192E-02  5.65259E-02 -1.51067E-02
    8983.948     -9.796  -0.920  4.37869E-02  6.08048E-02 -1.70180E-02
    8984.223     -9.522  -0.880  4.63477E-02  6.55802E-02 -1.92325E-02
    8984.485     -9.260  -0.840  4.91213E-02  7.09269E-02 -2.18056E-02
    8984.735     -9.010  -0.800  5.21289E-02  7.69316E-02 -2.48027E-02
    8984.972     -8.772  -0.760  5.53936E-02  8.36943E-02 -2.83007E-02
    8985.198     -8.547  -0.720  5.89395E-02  9.13276E-02 -3.23881E-02
    8985.411     -8.333  -0.680  6.27912E-02  9.99561E-02 -3.71649E-02
    8985.612     -8.132  -0.640  6.69722E-02  1.09711E-01 -4.27389E-02
    8985.801     -7.943  -0.600  7.15024E-02  1.20722E-01 -4.92196E-02
    8985.978     -7.766  -0.560  7.63945E-02  1.33099E-01 -5.67048E-02
    8986.143     -7.602  -0.520  8.16483E-02  1.46909E-01 -6.52611E-02
    8986.295     -7.449  -0.480  8.72433E-02  1.62139E-01 -7.48953E-02
    8986.435     -7.309  -0.440  9.31307E-02  1.78653E-01 -8.55220E-02
    8986.563     -7.181  -0.400  9.92265E-02  1.96163E-01 -9.69361E-02
    8986.679     -7.065  -0.360  1.05409E-01  2.14213E-01 -1.08804E-01
    8986.783     -6.962  -0.320  1.11525E-01  2.32212E-01 -1.20687E-01
    8986.874     -6.870  -0.280  1.17401E-01  2.49505E-01 -1.32104E-01
    8986.954     -6.791  -0.240  1.22864E-01  2.65460E-01 -1.42596E-01
    8987.021     -6.724  -0.200  1.27756E-01  2.79554E-01 -1.51798E-01
    8987.076     -6.669  -0.160  1.31941E-01  2.91402E-01 -1.59462E-01
    8987.118     -6.626  -0.120  1.35312E-01  3.00763E-01 -1.65451E-01
    8987.149     -6.596  -0.080  1.37791E-01  3.07504E-01 -1.69713E-01
    8987.173     -6.572   0.000  1.39846E-01  3.12917E-01 -1.73071E-01
    8987.228     -6.517   0.120  1.44511E-01  3.25121E-01 -1.80609E-01
    8987.271     -6.474   0.160  1.48124E-01  3.34576E-01 -1.86451E-01
    8987.325     -6.419   0.200  1.52891E-01  3.46663E-01 -1.93772E-01
    8987.393     -6.352   0.240  1.58848E-01  3.61167E-01 -2.02319E-01
    8987.472     -6.273   0.280  1.66101E-01  3.77801E-01 -2.11699E-01
    8987.563     -6.181   0.320  1.74782E-01  3.96100E-01 -2.21318E-01
    8987.667     -6.078   0.360  1.85091E-01  4.15517E-01 -2.30426E-01
    8987.783     -5.962   0.400  1.97317E-01  4.35465E-01 -2.38148E-01
    8987.911     -5.834   0.440  2.11861E-01  4.55395E-01 -2.43534E-01
    8988.051     -5.694   0.480  2.29260E-01  4.74897E-01 -2.45638E-01
    8988.203     -5.541   0.520  2.50124E-01  4.93710E-01 -2.43586E-01
    8988.368     -5.377   0.560  2.75129E-01  5.11715E-01 -2.36586E-01
    8988.545     -5.200   0.600  3.04753E-01  5.28862E-01 -2.24109E-01
    8988.734     -5.011   0.640  3.39080E-01  5.45235E-01 -2.06154E-01
    8988.935     -4.810   0.680  3.76995E-01  5.60890E-01 -1.83894E-01
    8989.148     -4.596   0.720  4.15588E-01  5.75962E-01 -1.60374E-01
    8989.374     -4.371   0.760  4.50111E-01  5.90544E-01 -1.40433E-01
    8989.611     -4.133   0.800  4.75913E-01  6.04720E-01 -1.28807E-01
    8989.861     -3.883   0.840  4.91411E-01  6.18561E-01 -1.27150E-01
    8990.124     -3.621   0.880  4.99318E-01  6.32145E-01 -1.32827E-01
    8990.398     -3.347   0.920  5.04280E-01  6.45537E-01 -1.41257E-01
    8990.684     -3.060   0.960  5.09174E-01  6.58728E-01 -1.49554E-01
    8990.983     -2.762   1.000  5.13703E-01  6.71781E-01 -1.58078E-01
    8991.294     -2.451   1.040  5.16440E-01  6.84706E-01 -1.68267E-01
    8991.617     -2.128   1.080  5.18030E-01  6.97511E-01 -1.79480E-01
    8991.952     -1.792   1.120  5.19898E-01  7.10213E-01 -1.90315E-01
    8992.300     -1.445   1.160  5.20367E-01  7.22763E-01 -2.02396E-01
    8992.659     -1.085   1.200  5.16257E-01  7.35212E-01 -2.18955E-01
    8993.031     -0.713   1.240  5.08021E-01  7.47502E-01 -2.39481E-01
    8993.415     -0.329   1.280  5.00609E-01  7.59637E-01 -2.59027E-01
    8993.812      0.067   1.320  5.00416E-01  7.71617E-01 -2.71200E-01
    8994.220      0.475   1.360  5.13139E-01  7.83398E-01 -2.70260E-01
    8994.641      0.896   1.400  5.40616E-01  7.94978E-01 -2.54363E-01
    8995.073      1.329   1.440  5.77426E-01  8.06353E-01 -2.28927E-01
    8995.518      1.774   1.480  6.15986E-01  8.17475E-01 -2.01489E-01
    8995.976      2.231   1.520  6.55459E-01  8.28320E-01 -1.72861E-01
    8996.445      2.700   1.560  6.99218E-01  8.38903E-01 -1.39686E-01
    8996.927      3.182   1.600  7.48346E-01  8.49199E-01 -1.00853E-01
    8997.420      3.676   1.640  8.02697E-01  8.59180E-01 -5.64834E-02
    8997.926      4.182   1.680  8.59270E-01  8.68843E-01 -9.57341E-03
    8998.445      4.700   1.720  9.10036E-01  8.78185E-01  3.18512E-02
    8998.975      5.230   1.760  9.51326E-01  8.87179E-01  6.41476E-02
    8999.517      5.773   1.800  9.87048E-01  8.95801E-01  9.12473E-02
    9000.072      6.328   1.840  1.02623E+00  9.04070E-01  1.22165E-01
    9000.639      6.894   1.880  1.07920E+00  9.11964E-01  1.67240E-01
    9001.218      7.474   1.920  1.14994E+00  9.19501E-01  2.30438E-01
    9001.809      8.065   1.960  1.22667E+00  9.26641E-01  3.00026E-01
    9002.413      8.668   2.000  1.28629E+00  9.33424E-01  3.52869E-01
    9003.029      9.284   2.040  1.31464E+00  9.39831E-01  3.74810E-01
    9003.657      9.912   2.080  1.31394E+00  9.45843E-01  3.68098E-01
    9004.297     10.552   2.120  1.29383E+00  9.51505E-01  3.42322E-01
    9004.949     11.204   2.160  1.26344E+00  9.56797E-01  3.06647E-01
    9005.613     11.869   2.200  1.22931E+00  9.61743E-01  2.67569E-01
    9006.290     12.545   2.240  1.19621E+00  9.66328E-01  2.29880E-01
    9006.979     13.234   2.280  1.16757E+00  9.70555E-01  1.97012E-01
    9007.680     13.935   2.320  1.14383E+00  9.74469E-01  1.69357E-01
    9008.393     14.649   2.360  1.12468E+00  9.78037E-01  1.46645E-01
    9009.119     15.374   2.400  1.11133E+00  9.81303E-01  1.30029E-01
    9009.856     16.112   2.440  1.10699E+00  9.84274E-01  1.22720E-01
    9010.606     16.861   2.480  1.11214E+00  9.86957E-01  1.25182E-01
    9011.368     17.623   2.520  1.12210E+00  9.89358E-01  1.32743E-01
    9012.142     18.398   2.560  1.13175E+00  9.91482E-01  1.40272E-01
    9012.929     19.184   2.600  1.13655E+00  9.93376E-01  1.43172E-01
    9013.727     19.982   2.640  1.13299E+00  9.95007E-01  1.37981E-01
    9014.538     20.793   2.680  1.12349E+00  9.96424E-01  1.27068E-01
    9015.361     21.616   2.720  1.11195E+00  9.97631E-01  1.14322E-01
    9016.196     22.451   2.760  1.09479E+00  9.98656E-01  9.61291E-02
    9017.043     23.299   2.800  1.06593E+00  9.99467E-01  6.64625E-02
    9017.903     24.158   2.840  1.02743E+00  1.00013E+00  2.73067E-02
    9018.775     25.030   2.880  9.92048E-01  1.00061E+00 -8.55702E-03
    9019.659     25.914   2.920  9.66936E-01  1.00095E+00 -3.40115E-02
    9020.555     26.810   2.960  9.47764E-01  1.00116E+00 -5.33975E-02
    9021.463     27.718   3.000  9.32125E-01  1.00125E+00 -6.91246E-02
    9022.383     28.639   3.040  9.19297E-01  1.00122E+00 -8.19228E-02
    9023.316     29.571   3.080  9.08536E-01  1.00108E+00 -9.25402E-02
    9024.261     30.516   3.120  8.99311E-01  1.00087E+00 -1.01556E-01
    9025.218     31.473   3.160  8.91309E-01  1.00055E+00 -1.09246E-01
    9026.187     32.443   3.200  8.84331E-01  1.00018E+00 -1.15854E-01
    9027.169     33.424   3.240  8.78258E-01  9.99743E-01 -1.21485E-01
    9028.162     34.418   3.280  8.73403E-01  9.99253E-01 -1.25850E-01
    9029.168     35.424   3.320  8.69776E-01  9.98720E-01 -1.28945E-01
    9030.186     36.442   3.360  8.67529E-01  9.98148E-01 -1.30620E-01
    9031.216     37.472   3.400  8.66980E-01  9.97561E-01 -1.30581E-01
    9032.259     38.514   3.440  8.68199E-01  9.96941E-01 -1.28742E-01
    9033.313     39.569   3.480  8.71003E-01  9.96292E-01 -1.25289E-01
    9034.380     40.636   3.520  8.75147E-01  9.95657E-01 -1.20510E-01
    9035.459     41.715   3.560  8.80347E-01  9.95001E-01 -1.14654E-01
    9036.550     42.806   3.600  8.86186E-01  9.94366E-01 -1.08180E-01
    9037.654     43.909   3.640  8.92541E-01  9.93731E-01 -1.01191E-01
    9038.769     45.025   3.680  8.99528E-01  9.93101E-01 -9.35737E-02
    9039.897     46.153   3.720  9.07402E-01  9.92477E-01 -8.50754E-02
    9041.037     47.292   3.760  9.16498E-01  9.91883E-01 -7.53850E-02
    9042.189     48.445   3.800  9.27120E-01  9.91320E-01 -6.42002E-02
    9043.354     49.609   3.840  9.39412E-01  9.90769E-01 -5.13564E-02
    9044.530     50.785   3.880  9.53314E-01  9.90252E-01 -3.69383E-02
    9045.719     51.974   3.920  9.68632E-01  9.89770E-01 -2.11373E-02
    9046.920     53.175   3.960  9.84966E-01  9.89325E-01 -4.35919E-03
    9048.133     54.388   4.000  1.00161E+00  9.88918E-01  1.26947E-02
    9049.358     55.613   4.040  1.01766E+00  9.88525E-01  2.91315E-02
    9050.596     56.851   4.080  1.03218E+00  9.88191E-01  4.39920E-02
    9051.845     58.101   4.120  1.04426E+00  9.87874E-01  5.63899E-02
    9053.107     59.362   4.160  1.05341E+00  9.87617E-01  6.57933E-02
    9054.381     60.637   4.200  1.05950E+00  9.87377E-01  7.21210E-02
    9055.667     61.923   4.240  1.06273E+00  9.87175E-01  7.55517E-02
    9056.966     63.221   4.280  1.06342E+00  9.87033E-01  7.63877E-02
    9058.277     64.532   4.320  1.06199E+00  9.86908E-01  7.50816E-02
    9059.599     65.855   4.360  1.05893E+00  9.86819E-01  7.21062E-02
    9060.934     67.190   4.400  1.05474E+00  9.86769E-01  6.79680E-02
    9062.282     68.537   4.440  1.05000E+00  9.86758E-01  6.32412E-02
    9063.641     69.896   4.480  1.04523E+00  9.86783E-01  5.84434E-02
    9065.013     71.268   4.520  1.04078E+00  9.86844E-01  5.39317E-02
    9066.396     72.652   4.560  1.03678E+00  9.86919E-01  4.98635E-02
    9067.792     74.048   4.600  1.03326E+00  9.87051E-01  4.62073E-02
    9069.200     75.456   4.640  1.03001E+00  9.87194E-01  4.28116E-02
    9070.621     76.876   4.680  1.02692E+00  9.87346E-01  3.95733E-02
    9072.053     78.309   4.720  1.02402E+00  9.87531E-01  3.64910E-02
    9073.498     79.754   4.760  1.02136E+00  9.87748E-01  3.36099E-02
    9074.955     81.210   4.800  1.01901E+00  9.87973E-01  3.10335E-02
    9076.424     82.680   4.840  1.01715E+00  9.88228E-01  2.89211E-02
    9077.906     84.161   4.880  1.01591E+00  9.88490E-01  2.74155E-02
    9079.399     85.654   4.920  1.01534E+00  9.88778E-01  2.65579E-02
    9080.905     87.160   4.960  1.01517E+00  9.89049E-01  2.61214E-02
    9082.423     88.678   5.000  1.01492E+00  9.89342E-01  2.55800E-02
    9083.953     90.208   5.040  1.01390E+00  9.89638E-01  2.42586E-02
    9085.495     91.750   5.080  1.01147E+00  9.89934E-01  2.15362E-02
    9087.050     93.305   5.120  1.00729E+00  9.90229E-01  1.70619E-02
    9088.616     94.872   5.160  1.00139E+00  9.90523E-01  1.08673E-02
    9090.195     96.450   5.200  9.94192E-01  9.90815E-01  3.37789E-03
    9091.786     98.041   5.240  9.86347E-01  9.91080E-01 -4.73300E-03
    9093.389     99.645   5.280  9.78573E-01  9.91362E-01 -1.27886E-02
    9095.005    101.260   5.320  9.71376E-01  9.91617E-01 -2.02408E-02
    9096.632    102.888   5.360  9.65158E-01  9.91865E-01 -2.67064E-02
    9098.272    104.528   5.400  9.60162E-01  9.92083E-01 -3.19208E-02
    9099.924    106.180   5.440  9.56592E-01  9.92293E-01 -3.57010E-02
    9101.588    107.844   5.480  9.54534E-01  9.92495E-01 -3.79611E-02
    9103.265    109.520   5.520  9.53900E-01  9.92665E-01 -3.87651E-02
    9104.953    111.209   5.560  9.54402E-01  9.92802E-01 -3.83999E-02
    9106.654    112.910   5.600  9.55560E-01  9.92928E-01 -3.73680E-02
    9108.367    114.622   5.640  9.56718E-01  9.93043E-01 -3.63259E-02
    9110.092    116.348   5.680  9.57223E-01  9.93102E-01 -3.58782E-02
    9111.830    118.085   5.720  9.56775E-01  9.93145E-01 -3.63705E-02
    9113.579    119.835   5.760  9.55399E-01  9.93154E-01 -3.77549E-02
    9115.341    121.596   5.800  9.53466E-01  9.93127E-01 -3.96612E-02
    9117.115    123.370   5.840  9.51547E-01  9.93090E-01 -4.15427E-02
    9118.901    125.156   5.880  9.50168E-01  9.93017E-01 -4.28493E-02
    9120.699    126.955   5.920  9.49768E-01  9.92908E-01 -4.31401E-02
    9122.510    128.765   5.960  9.50666E-01  9.92761E-01 -4.20951E-02
    9124.332    130.588   6.000  9.53180E-01  9.92557E-01 -3.93766E-02
