# # comment:                                                     FEFF 9.9.1  
# # Source:
# # Structure
# # Reduced
# # space
# # abc:
# # angles:109.471221
# # sites:
# # POT  SCF 100  7.0000   0, screened core-hole, AFOLP (folp(0)= 1.150)
# # Abs   Z=29 Rmt= 1.264 Rnm= 1.358 K  shell
# # Pot 1 Z=29 Rmt= 1.264 Rnm= 1.358
# # Pot 2 Z=33 Rmt= 1.211 Rnm= 1.407
# # Pot 3 Z= 8 Rmt= 0.932 Rnm= 1.061
# # Pot 4 Z= 9 Rmt= 1.072 Rnm= 1.167
# # Gam_ch=1.729E+00 H-L exch Vi= 0.000E+00 Vr= 0.000E+00
# # Mu=-5.637E+00eV kf=2.127E+00 Vint=-1.377E+01eV Rs_int= 1.705
# FMS rfms= 9.0000
# # PATH  Rmax=-1.000,  Keep_limit= 0.00, Heap_limit 0.00  Pwcrit= 2.50%
#  S02=0.950  Temp=   0.00  Debye_temp=   0.00  Global_sig2= 0.00000
#  Energy zero shift, vr, vi    0.00000E+00   0.00000E+00
#  Curved wave amplitude ratio filter   4.000%
#     file         sig2 tot  cw amp ratio   deg  nlegs   reff  inp sig2
#     0/   0 paths used
#  xsedge+ 50, used to normalize mu           2.4379E-04
#  -----------------------------------------------------------------------
#  omega    e    k    mu    mu0     chi     @#
    8983.227     -9.447  -1.000  3.55408E-02  5.63299E-02 -2.07891E-02
    8983.526     -9.148  -0.960  3.70702E-02  6.04851E-02 -2.34149E-02
    8983.812     -8.862  -0.920  3.86784E-02  6.51061E-02 -2.64277E-02
    8984.087     -8.587  -0.880  4.03713E-02  7.02614E-02 -2.98901E-02
    8984.349     -8.325  -0.840  4.21556E-02  7.60311E-02 -3.38755E-02
    8984.599     -8.075  -0.800  4.40388E-02  8.25076E-02 -3.84687E-02
    8984.836     -7.838  -0.760  4.60297E-02  8.97971E-02 -4.37674E-02
    8985.062     -7.612  -0.720  4.81378E-02  9.80197E-02 -4.98819E-02
    8985.275     -7.399  -0.680  5.03735E-02  1.07307E-01 -5.69338E-02
    8985.476     -7.197  -0.640  5.27475E-02  1.17800E-01 -6.50521E-02
    8985.665     -7.008  -0.600  5.52693E-02  1.29633E-01 -7.43640E-02
    8985.842     -6.832  -0.560  5.79459E-02  1.42925E-01 -8.49794E-02
    8986.007     -6.667  -0.520  6.07782E-02  1.57745E-01 -9.69669E-02
    8986.159     -6.515  -0.480  6.37575E-02  1.74077E-01 -1.10320E-01
    8986.299     -6.375  -0.440  6.68605E-02  1.91779E-01 -1.24918E-01
    8986.427     -6.246  -0.400  7.00454E-02  2.10541E-01 -1.40496E-01
    8986.543     -6.131  -0.360  7.32506E-02  2.29881E-01 -1.56630E-01
    8986.647     -6.027  -0.320  7.63973E-02  2.49168E-01 -1.72771E-01
    8986.738     -5.936  -0.280  7.93977E-02  2.67704E-01 -1.88306E-01
    8986.818     -5.856  -0.240  8.21646E-02  2.84816E-01 -2.02652E-01
    8986.885     -5.789  -0.200  8.46210E-02  2.99941E-01 -2.15320E-01
    8986.939     -5.734  -0.160  8.67046E-02  3.12666E-01 -2.25962E-01
    8986.982     -5.692  -0.120  8.83684E-02  3.22726E-01 -2.34358E-01
    8987.013     -5.661  -0.080  8.95799E-02  3.29975E-01 -2.40395E-01
    8987.037     -5.637   0.000  9.05708E-02  3.35799E-01 -2.45228E-01
    8987.092     -5.582   0.120  9.28972E-02  3.48933E-01 -2.56035E-01
    8987.135     -5.539   0.160  9.46635E-02  3.59124E-01 -2.64460E-01
    8987.189     -5.485   0.200  9.69469E-02  3.72174E-01 -2.75227E-01
    8987.256     -5.417   0.240  9.96838E-02  3.87849E-01 -2.88165E-01
    8987.336     -5.338   0.280  1.02897E-01  4.05881E-01 -3.02984E-01
    8987.427     -5.247   0.320  1.06487E-01  4.25777E-01 -3.19289E-01
    8987.531     -5.143   0.360  1.10378E-01  4.46973E-01 -3.36595E-01
    8987.647     -5.027   0.400  1.14420E-01  4.68848E-01 -3.54428E-01
    8987.775     -4.899   0.440  1.18485E-01  4.90873E-01 -3.72388E-01
    8987.915     -4.759   0.480  1.22433E-01  5.12581E-01 -3.90148E-01
    8988.067     -4.607   0.520  1.26160E-01  5.33680E-01 -4.07519E-01
    8988.232     -4.442   0.560  1.29749E-01  5.54039E-01 -4.24290E-01
    8988.409     -4.265   0.600  1.33417E-01  5.73645E-01 -4.40228E-01
    8988.598     -4.076   0.640  1.37414E-01  5.92489E-01 -4.55075E-01
    8988.799     -3.875   0.680  1.42103E-01  6.10665E-01 -4.68562E-01
    8989.012     -3.662   0.720  1.47768E-01  6.28239E-01 -4.80472E-01
    8989.238     -3.436   0.760  1.54861E-01  6.45340E-01 -4.90480E-01
    8989.475     -3.199   0.800  1.63789E-01  6.62000E-01 -4.98211E-01
    8989.725     -2.949   0.840  1.75218E-01  6.78279E-01 -5.03061E-01
    8989.987     -2.686   0.880  1.90044E-01  6.94228E-01 -5.04183E-01
    8990.262     -2.412   0.920  2.09390E-01  7.09876E-01 -5.00486E-01
    8990.548     -2.126   0.960  2.34661E-01  7.25225E-01 -4.90564E-01
    8990.847     -1.827   1.000  2.67526E-01  7.40264E-01 -4.72739E-01
    8991.158     -1.516   1.040  3.09701E-01  7.55037E-01 -4.45336E-01
    8991.481     -1.193   1.080  3.62023E-01  7.69495E-01 -4.07472E-01
    8991.816     -0.858   1.120  4.22930E-01  7.83626E-01 -3.60696E-01
    8992.164     -0.510   1.160  4.86398E-01  7.97394E-01 -3.10995E-01
    8992.523     -0.151   1.200  5.44667E-01  8.10819E-01 -2.66152E-01
    8992.895      0.221   1.240  5.98808E-01  8.23839E-01 -2.25031E-01
    8993.279      0.605   1.280  6.58170E-01  8.36431E-01 -1.78260E-01
    8993.676      1.002   1.320  7.23114E-01  8.48609E-01 -1.25495E-01
    8994.084      1.410   1.360  7.89661E-01  8.60309E-01 -7.06483E-02
    8994.505      1.831   1.400  8.70989E-01  8.71526E-01 -5.37747E-04
    8994.937      2.263   1.440  9.84201E-01  8.82236E-01  1.01965E-01
    8995.382      2.708   1.480  1.12269E+00  8.92457E-01  2.30228E-01
    8995.840      3.166   1.520  1.25260E+00  9.02146E-01  3.50456E-01
    8996.309      3.635   1.560  1.33436E+00  9.11301E-01  4.23059E-01
    8996.791      4.117   1.600  1.35659E+00  9.19926E-01  4.36664E-01
    8997.284      4.610   1.640  1.34284E+00  9.28018E-01  4.14819E-01
    8997.790      5.116   1.680  1.32938E+00  9.35584E-01  3.93794E-01
    8998.308      5.635   1.720  1.34472E+00  9.42627E-01  4.02090E-01
    8998.839      6.165   1.760  1.39432E+00  9.49133E-01  4.45187E-01
    8999.381      6.707   1.800  1.46598E+00  9.55149E-01  5.10835E-01
    8999.936      7.262   1.840  1.54479E+00  9.60683E-01  5.84111E-01
    9000.503      7.829   1.880  1.61362E+00  9.65723E-01  6.47896E-01
    9001.082      8.408   1.920  1.64878E+00  9.70299E-01  6.78484E-01
    9001.673      9.000   1.960  1.62447E+00  9.74441E-01  6.50031E-01
    9002.277      9.603   2.000  1.52331E+00  9.78160E-01  5.45151E-01
    9002.893     10.219   2.040  1.36251E+00  9.81468E-01  3.81042E-01
    9003.521     10.847   2.080  1.19808E+00  9.84417E-01  2.13659E-01
    9004.161     11.487   2.120  1.07522E+00  9.86997E-01  8.82250E-02
    9004.813     12.139   2.160  1.00087E+00  9.89242E-01  1.16247E-02
    9005.477     12.803   2.200  9.65551E-01  9.91183E-01 -2.56321E-02
    9006.154     13.480   2.240  9.63153E-01  9.92833E-01 -2.96799E-02
    9006.843     14.169   2.280  9.87927E-01  9.94202E-01 -6.27441E-03
    9007.544     14.870   2.320  1.02644E+00  9.95343E-01  3.10999E-02
    9008.257     15.583   2.360  1.06022E+00  9.96267E-01  6.39569E-02
    9008.983     16.309   2.400  1.07951E+00  9.96986E-01  8.25249E-02
    9009.720     17.046   2.440  1.08709E+00  9.97507E-01  8.95815E-02
    9010.470     17.796   2.480  1.08474E+00  9.97884E-01  8.68605E-02
    9011.232     18.558   2.520  1.06086E+00  9.98104E-01  6.27530E-02
    9012.006     19.332   2.560  1.01008E+00  9.98218E-01  1.18638E-02
    9012.792     20.119   2.600  9.61511E-01  9.98195E-01 -3.66837E-02
    9013.591     20.917   2.640  9.24212E-01  9.98102E-01 -7.38900E-02
    9014.402     21.728   2.680  8.98578E-01  9.97929E-01 -9.93513E-02
    9015.225     22.551   2.720  8.82208E-01  9.97702E-01 -1.15494E-01
    9016.060     23.386   2.760  8.71782E-01  9.97405E-01 -1.25624E-01
    9016.907     24.233   2.800  8.64432E-01  9.97067E-01 -1.32636E-01
    9017.767     25.093   2.840  8.57828E-01  9.96716E-01 -1.38888E-01
    9018.639     25.965   2.880  8.50432E-01  9.96358E-01 -1.45925E-01
    9019.522     26.849   2.920  8.41566E-01  9.95994E-01 -1.54428E-01
    9020.419     27.745   2.960  8.31548E-01  9.95609E-01 -1.64061E-01
    9021.327     28.653   3.000  8.21428E-01  9.95249E-01 -1.73821E-01
    9022.247     29.573   3.040  8.12563E-01  9.94918E-01 -1.82354E-01
    9023.180     30.506   3.080  8.06139E-01  9.94599E-01 -1.88460E-01
    9024.125     31.451   3.120  8.03047E-01  9.94316E-01 -1.91268E-01
    9025.082     32.408   3.160  8.03359E-01  9.94070E-01 -1.90711E-01
    9026.051     33.377   3.200  8.06917E-01  9.93886E-01 -1.86970E-01
    9027.033     34.359   3.240  8.13593E-01  9.93722E-01 -1.80129E-01
    9028.026     35.352   3.280  8.23420E-01  9.93601E-01 -1.70182E-01
    9029.032     36.358   3.320  8.36456E-01  9.93547E-01 -1.57090E-01
    9030.050     37.376   3.360  8.52742E-01  9.93539E-01 -1.40796E-01
    9031.080     38.407   3.400  8.72402E-01  9.93598E-01 -1.21197E-01
    9032.123     39.449   3.440  8.95348E-01  9.93705E-01 -9.83569E-02
    9033.177     40.504   3.480  9.21391E-01  9.93859E-01 -7.24682E-02
    9034.244     41.570   3.520  9.49848E-01  9.94080E-01 -4.42320E-02
    9035.323     42.649   3.560  9.79801E-01  9.94347E-01 -1.45464E-02
    9036.414     43.740   3.600  1.01007E+00  9.94661E-01  1.54041E-02
    9037.518     44.844   3.640  1.03926E+00  9.95043E-01  4.42187E-02
    9038.633     45.959   3.680  1.06581E+00  9.95470E-01  7.03407E-02
    9039.761     47.087   3.720  1.08854E+00  9.95942E-01  9.25965E-02
    9040.901     48.227   3.760  1.10679E+00  9.96478E-01  1.10313E-01
    9042.053     49.379   3.800  1.12023E+00  9.97035E-01  1.23197E-01
    9043.218     50.544   3.840  1.12874E+00  9.97656E-01  1.31087E-01
    9044.394     51.720   3.880  1.13219E+00  9.98317E-01  1.33870E-01
    9045.583     52.909   3.920  1.13029E+00  9.99014E-01  1.31276E-01
    9046.784     54.110   3.960  1.12293E+00  9.99726E-01  1.23205E-01
    9047.997     55.323   4.000  1.11073E+00  1.00047E+00  1.10261E-01
    9049.222     56.548   4.040  1.09574E+00  1.00125E+00  9.44934E-02
    9050.460     57.786   4.080  1.08105E+00  1.00204E+00  7.90060E-02
    9051.709     59.035   4.120  1.07002E+00  1.00286E+00  6.71585E-02
    9052.971     60.297   4.160  1.06520E+00  1.00371E+00  6.14935E-02
    9054.245     61.571   4.200  1.06755E+00  1.00454E+00  6.30143E-02
    9055.531     62.857   4.240  1.07627E+00  1.00538E+00  7.08881E-02
    9056.830     64.156   4.280  1.08876E+00  1.00621E+00  8.25484E-02
    9058.140     65.467   4.320  1.10131E+00  1.00706E+00  9.42509E-02
    9059.463     66.789   4.360  1.10991E+00  1.00788E+00  1.02029E-01
    9060.798     68.124   4.400  1.11157E+00  1.00870E+00  1.02871E-01
    9062.146     69.472   4.440  1.10484E+00  1.00950E+00  9.53409E-02
    9063.505     70.831   4.480  1.09015E+00  1.01028E+00  7.98751E-02
    9064.877     72.203   4.520  1.06955E+00  1.01104E+00  5.85107E-02
    9066.260     73.586   4.560  1.04586E+00  1.01177E+00  3.40925E-02
    9067.656     74.982   4.600  1.02182E+00  1.01246E+00  9.36710E-03
    9069.064     76.391   4.640  9.99680E-01  1.01313E+00 -1.34497E-02
    9070.485     77.811   4.680  9.80966E-01  1.01374E+00 -3.27755E-02
    9071.917     79.243   4.720  9.66590E-01  1.01433E+00 -4.77416E-02
    9073.362     80.688   4.760  9.56617E-01  1.01486E+00 -5.82410E-02
    9074.819     82.145   4.800  9.50639E-01  1.01536E+00 -6.47230E-02
    9076.288     83.614   4.840  9.47899E-01  1.01580E+00 -6.79020E-02
    9077.769     85.096   4.880  9.47668E-01  1.01619E+00 -6.85259E-02
    9079.263     86.589   4.920  9.49205E-01  1.01654E+00 -6.73353E-02
    9080.769     88.095   4.960  9.51751E-01  1.01684E+00 -6.50883E-02
    9082.287     89.613   5.000  9.54457E-01  1.01707E+00 -6.26107E-02
    9083.817     91.143   5.040  9.56267E-01  1.01725E+00 -6.09810E-02
    9085.359     92.685   5.080  9.56048E-01  1.01736E+00 -6.13097E-02
    9086.913     94.240   5.120  9.53343E-01  1.01744E+00 -6.40998E-02
    9088.480     95.806   5.160  9.48590E-01  1.01746E+00 -6.88664E-02
    9090.059     97.385   5.200  9.43132E-01  1.01740E+00 -7.42662E-02
    9091.650     98.976   5.240  9.38633E-01  1.01729E+00 -7.86592E-02
    9093.253    100.579   5.280  9.36589E-01  1.01714E+00 -8.05503E-02
    9094.869    102.195   5.320  9.38178E-01  1.01694E+00 -7.87645E-02
    9096.496    103.822   5.360  9.44107E-01  1.01670E+00 -7.25934E-02
    9098.136    105.462   5.400  9.54336E-01  1.01639E+00 -6.20529E-02
    9099.788    107.114   5.440  9.67957E-01  1.01603E+00 -4.80753E-02
    9101.452    108.778   5.480  9.83285E-01  1.01563E+00 -3.23465E-02
    9103.129    110.455   5.520  9.98250E-01  1.01519E+00 -1.69400E-02
    9104.817    112.143   5.560  1.01075E+00  1.01471E+00 -3.96087E-03
    9106.518    113.844   5.600  1.01911E+00  1.01418E+00  4.92523E-03
    9108.231    115.557   5.640  1.02283E+00  1.01362E+00  9.21271E-03
    9109.956    117.282   5.680  1.02281E+00  1.01302E+00  9.79323E-03
    9111.694    119.020   5.720  1.02072E+00  1.01241E+00  8.31176E-03
    9113.443    120.769   5.760  1.01813E+00  1.01176E+00  6.37016E-03
    9115.205    122.531   5.800  1.01655E+00  1.01109E+00  5.46287E-03
    9116.979    124.305   5.840  1.01774E+00  1.01040E+00  7.33191E-03
    9118.765    126.091   5.880  1.02336E+00  1.00970E+00  1.36678E-02
    9120.563    127.889   5.920  1.03408E+00  1.00899E+00  2.50867E-02
    9122.374    129.700   5.960  1.04861E+00  1.00830E+00  4.03113E-02
    9124.196    131.523   6.000  1.06399E+00  1.00757E+00  5.64226E-02
