# # comment:                                                     FEFF 9.9.1  
# # Source:
# # Structure
# # Reduced
# # space
# # abc:
# # angles:
# # sites:
# # POT  SCF 100  7.0000   0, screened core-hole, AFOLP (folp(0)= 1.150)
# # Abs   Z=29 Rmt= 1.232 Rnm= 1.287 K  shell
# # Pot 1 Z= 3 Rmt= 1.263 Rnm= 1.306
# # Pot 2 Z=27 Rmt= 1.288 Rnm= 1.370
# # Pot 3 Z=29 Rmt= 1.233 Rnm= 1.288
# # Pot 4 Z= 8 Rmt= 1.049 Rnm= 1.101
# # Gam_ch=1.729E+00 H-L exch Vi= 0.000E+00 Vr= 0.000E+00
# # Mu=-1.065E+01eV kf=2.102E+00 Vint=-1.859E+01eV Rs_int= 1.725
# FMS rfms= 9.0000
# # PATH  Rmax=-1.000,  Keep_limit= 0.00, Heap_limit 0.00  Pwcrit= 2.50%
#  S02=0.950  Temp=   0.00  Debye_temp=   0.00  Global_sig2= 0.00000
#  Energy zero shift, vr, vi    0.00000E+00   0.00000E+00
#  Curved wave amplitude ratio filter   4.000%
#     file         sig2 tot  cw amp ratio   deg  nlegs   reff  inp sig2
#     0/   0 paths used
#  xsedge+ 50, used to normalize mu           2.4746E-04
#  -----------------------------------------------------------------------
#  omega    e    k    mu    mu0     chi     @#
    8985.246    -14.458  -1.000  2.75782E-02  4.77958E-02 -2.02177E-02
    8985.545    -14.159  -0.960  2.85780E-02  5.11170E-02 -2.25390E-02
    8985.831    -13.873  -0.920  2.96182E-02  5.47960E-02 -2.51778E-02
    8986.106    -13.598  -0.880  3.07016E-02  5.88846E-02 -2.81830E-02
    8986.368    -13.336  -0.840  3.18315E-02  6.34430E-02 -3.16116E-02
    8986.618    -13.086  -0.800  3.30117E-02  6.85410E-02 -3.55292E-02
    8986.855    -12.849  -0.760  3.42470E-02  7.42581E-02 -4.00111E-02
    8987.081    -12.623  -0.720  3.55427E-02  8.06846E-02 -4.51419E-02
    8987.294    -12.410  -0.680  3.69048E-02  8.79194E-02 -5.10146E-02
    8987.496    -12.209  -0.640  3.83397E-02  9.60669E-02 -5.77272E-02
    8987.684    -12.020  -0.600  3.98532E-02  1.05229E-01 -6.53759E-02
    8987.861    -11.843  -0.560  4.14499E-02  1.15493E-01 -7.40431E-02
    8988.026    -11.678  -0.520  4.31305E-02  1.26910E-01 -8.37791E-02
    8988.178    -11.526  -0.480  4.48891E-02  1.39466E-01 -9.45764E-02
    8988.318    -11.386  -0.440  4.67106E-02  1.53051E-01 -1.06341E-01
    8988.446    -11.258  -0.400  4.85674E-02  1.67433E-01 -1.18865E-01
    8988.562    -11.142  -0.360  5.04193E-02  1.82243E-01 -1.31823E-01
    8988.666    -11.038  -0.320  5.22165E-02  1.97005E-01 -1.44789E-01
    8988.757    -10.947  -0.280  5.39060E-02  2.11190E-01 -1.57284E-01
    8988.837    -10.867  -0.240  5.54393E-02  2.24287E-01 -1.68848E-01
    8988.904    -10.800  -0.200  5.67782E-02  2.35867E-01 -1.79089E-01
    8988.959    -10.746  -0.160  5.78974E-02  2.45614E-01 -1.87717E-01
    8989.001    -10.703  -0.120  5.87830E-02  2.53324E-01 -1.94541E-01
    8989.032    -10.672  -0.080  5.94279E-02  2.58883E-01 -1.99455E-01
    8989.056    -10.648   0.000  5.99676E-02  2.63351E-01 -2.03383E-01
    8989.111    -10.593   0.120  6.11590E-02  2.73441E-01 -2.12282E-01
    8989.154    -10.550   0.160  6.20201E-02  2.81283E-01 -2.19263E-01
    8989.208    -10.496   0.200  6.30950E-02  2.91304E-01 -2.28209E-01
    8989.276    -10.429   0.240  6.43637E-02  3.03403E-01 -2.39039E-01
    8989.355    -10.349   0.280  6.57632E-02  3.17313E-01 -2.51550E-01
    8989.446    -10.258   0.320  6.72733E-02  3.32745E-01 -2.65472E-01
    8989.550    -10.154   0.360  6.88239E-02  3.49245E-01 -2.80421E-01
    8989.666    -10.038   0.400  7.04106E-02  3.66370E-01 -2.95960E-01
    8989.794     -9.910   0.440  7.20225E-02  3.83717E-01 -3.11694E-01
    8989.934     -9.770   0.480  7.37497E-02  4.00995E-01 -3.27245E-01
    8990.086     -9.618   0.520  7.55789E-02  4.17966E-01 -3.42388E-01
    8990.251     -9.453   0.560  7.76227E-02  4.34539E-01 -3.56916E-01
    8990.428     -9.276   0.600  7.99398E-02  4.50706E-01 -3.70767E-01
    8990.617     -9.087   0.640  8.26144E-02  4.66495E-01 -3.83881E-01
    8990.818     -8.886   0.680  8.56859E-02  4.81979E-01 -3.96294E-01
    8991.031     -8.673   0.720  8.92832E-02  4.97222E-01 -4.07939E-01
    8991.257     -8.447   0.760  9.34705E-02  5.12288E-01 -4.18817E-01
    8991.494     -8.210   0.800  9.84467E-02  5.27250E-01 -4.28804E-01
    8991.744     -7.960   0.840  1.04413E-01  5.42175E-01 -4.37762E-01
    8992.007     -7.698   0.880  1.11654E-01  5.57056E-01 -4.45402E-01
    8992.281     -7.423   0.920  1.20665E-01  5.71954E-01 -4.51289E-01
    8992.567     -7.137   0.960  1.32132E-01  5.86881E-01 -4.54750E-01
    8992.866     -6.838   1.000  1.47045E-01  6.01823E-01 -4.54778E-01
    8993.177     -6.527   1.040  1.66903E-01  6.16796E-01 -4.49894E-01
    8993.500     -6.204   1.080  1.93617E-01  6.31768E-01 -4.38152E-01
    8993.835     -5.869   1.120  2.29517E-01  6.46745E-01 -4.17228E-01
    8994.183     -5.521   1.160  2.76465E-01  6.61708E-01 -3.85243E-01
    8994.542     -5.162   1.200  3.30798E-01  6.76612E-01 -3.45814E-01
    8994.914     -4.790   1.240  3.77742E-01  6.91451E-01 -3.13709E-01
    8995.298     -4.406   1.280  4.03515E-01  7.06177E-01 -3.02662E-01
    8995.695     -4.010   1.320  4.14436E-01  7.20759E-01 -3.06324E-01
    8996.103     -3.601   1.360  4.27524E-01  7.35186E-01 -3.07663E-01
    8996.524     -3.180   1.400  4.51575E-01  7.49407E-01 -2.97832E-01
    8996.956     -2.748   1.440  4.84329E-01  7.63408E-01 -2.79079E-01
    8997.401     -2.303   1.480  5.20363E-01  7.77135E-01 -2.56772E-01
    8997.859     -1.845   1.520  5.61510E-01  7.90578E-01 -2.29067E-01
    8998.328     -1.376   1.560  6.17994E-01  8.03704E-01 -1.85710E-01
    8998.810     -0.894   1.600  6.95650E-01  8.16479E-01 -1.20829E-01
    8999.303     -0.401   1.640  7.73230E-01  8.28874E-01 -5.56443E-02
    8999.809      0.105   1.680  8.47670E-01  8.40880E-01  6.79081E-03
    9000.328      0.623   1.720  9.64181E-01  8.52466E-01  1.11715E-01
    9000.858      1.154   1.760  1.13782E+00  8.63625E-01  2.74197E-01
    9001.400      1.696   1.800  1.34232E+00  8.74352E-01  4.67964E-01
    9001.955      2.251   1.840  1.53378E+00  8.84599E-01  6.49181E-01
    9002.522      2.818   1.880  1.66550E+00  8.94384E-01  7.71121E-01
    9003.101      3.397   1.920  1.71729E+00  9.03703E-01  8.13585E-01
    9003.693      3.988   1.960  1.72295E+00  9.12535E-01  8.10415E-01
    9004.296      4.592   2.000  1.73393E+00  9.20901E-01  8.13031E-01
    9004.912      5.208   2.040  1.74458E+00  9.28778E-01  8.15802E-01
    9005.540      5.835   2.080  1.67809E+00  9.36171E-01  7.41914E-01
    9006.180      6.476   2.120  1.50545E+00  9.43102E-01  5.62352E-01
    9006.832      7.128   2.160  1.31104E+00  9.49553E-01  3.61483E-01
    9007.496      7.792   2.200  1.16087E+00  9.55571E-01  2.05300E-01
    9008.173      8.469   2.240  1.05584E+00  9.61120E-01  9.47182E-02
    9008.862      9.158   2.280  9.79343E-01  9.66247E-01  1.30954E-02
    9009.563      9.859   2.320  9.20826E-01  9.70958E-01 -5.01325E-02
    9010.276     10.572   2.360  8.75855E-01  9.75241E-01 -9.93856E-02
    9011.002     11.297   2.400  8.43315E-01  9.79143E-01 -1.35829E-01
    9011.739     12.035   2.440  8.20940E-01  9.82674E-01 -1.61734E-01
    9012.489     12.785   2.480  8.08265E-01  9.85842E-01 -1.77577E-01
    9013.251     13.547   2.520  8.17918E-01  9.88675E-01 -1.70757E-01
    9014.025     14.321   2.560  8.49482E-01  9.91181E-01 -1.41699E-01
    9014.812     15.107   2.600  8.91940E-01  9.93368E-01 -1.01428E-01
    9015.610     15.906   2.640  9.37681E-01  9.95269E-01 -5.75874E-02
    9016.421     16.717   2.680  9.79531E-01  9.96910E-01 -1.73789E-02
    9017.244     17.540   2.720  1.01038E+00  9.98281E-01  1.20995E-02
    9018.079     18.375   2.760  1.02567E+00  9.99430E-01  2.62434E-02
    9018.926     19.222   2.800  1.02377E+00  1.00034E+00  2.34240E-02
    9019.786     20.082   2.840  1.00612E+00  1.00105E+00  5.06350E-03
    9020.658     20.953   2.880  9.76075E-01  1.00157E+00 -2.54914E-02
    9021.542     21.837   2.920  9.37644E-01  1.00193E+00 -6.42879E-02
    9022.438     22.734   2.960  8.97383E-01  1.00212E+00 -1.04732E-01
    9023.346     23.642   3.000  8.61094E-01  1.00217E+00 -1.41073E-01
    9024.266     24.562   3.040  8.32118E-01  1.00209E+00 -1.69976E-01
    9025.199     25.495   3.080  8.12061E-01  1.00192E+00 -1.89860E-01
    9026.144     26.440   3.120  8.00849E-01  1.00162E+00 -2.00767E-01
    9027.101     27.397   3.160  7.97560E-01  1.00125E+00 -2.03686E-01
    9028.070     28.366   3.200  8.01593E-01  1.00079E+00 -1.99201E-01
    9029.052     29.348   3.240  8.12770E-01  1.00027E+00 -1.87498E-01
    9030.045     30.341   3.280  8.30382E-01  9.99695E-01 -1.69313E-01
    9031.051     31.347   3.320  8.52733E-01  9.99076E-01 -1.46343E-01
    9032.069     32.365   3.360  8.76282E-01  9.98417E-01 -1.22135E-01
    9033.100     33.395   3.400  8.96193E-01  9.97722E-01 -1.01529E-01
    9034.142     34.438   3.440  9.09156E-01  9.97016E-01 -8.78606E-02
    9035.197     35.492   3.480  9.15226E-01  9.96284E-01 -8.10579E-02
    9036.263     36.559   3.520  9.17024E-01  9.95570E-01 -7.85461E-02
    9037.342     37.638   3.560  9.17861E-01  9.94857E-01 -7.69966E-02
    9038.433     38.729   3.600  9.20721E-01  9.94147E-01 -7.34260E-02
    9039.537     39.833   3.640  9.27777E-01  9.93441E-01 -6.56642E-02
    9040.652     40.948   3.680  9.40218E-01  9.92763E-01 -5.25458E-02
    9041.780     42.076   3.720  9.58391E-01  9.92096E-01 -3.37053E-02
    9042.920     43.216   3.760  9.81980E-01  9.91463E-01 -9.48279E-03
    9044.072     44.368   3.800  1.00974E+00  9.90864E-01  1.88758E-02
    9045.237     45.532   3.840  1.03978E+00  9.90302E-01  4.94824E-02
    9046.413     46.709   3.880  1.07022E+00  9.89777E-01  8.04412E-02
    9047.602     47.898   3.920  1.09985E+00  9.89270E-01  1.10580E-01
    9048.803     49.099   3.960  1.12829E+00  9.88824E-01  1.39469E-01
    9050.016     50.312   4.000  1.15494E+00  9.88419E-01  1.66525E-01
    9051.241     51.537   4.040  1.17814E+00  9.88055E-01  1.90083E-01
    9052.479     52.774   4.080  1.19526E+00  9.87731E-01  2.07526E-01
    9053.728     54.024   4.120  1.20374E+00  9.87447E-01  2.16292E-01
    9054.990     55.286   4.160  1.20192E+00  9.87204E-01  2.14719E-01
    9056.264     56.560   4.200  1.18894E+00  9.87004E-01  2.01937E-01
    9057.550     57.846   4.240  1.16541E+00  9.86867E-01  1.78545E-01
    9058.849     59.145   4.280  1.13418E+00  9.86751E-01  1.47427E-01
    9060.160     60.455   4.320  1.10005E+00  9.86697E-01  1.13354E-01
    9061.482     61.778   4.360  1.06797E+00  9.86685E-01  8.12825E-02
    9062.817     63.113   4.400  1.04125E+00  9.86712E-01  5.45404E-02
    9064.165     64.460   4.440  1.02087E+00  9.86778E-01  3.40892E-02
    9065.524     65.820   4.480  1.00586E+00  9.86861E-01  1.90011E-02
    9066.896     67.191   4.520  9.94404E-01  9.87001E-01  7.40301E-03
    9068.279     68.575   4.560  9.84418E-01  9.87159E-01 -2.74139E-03
    9069.675     69.971   4.600  9.74286E-01  9.87374E-01 -1.30886E-02
    9071.084     71.379   4.640  9.62938E-01  9.87603E-01 -2.46649E-02
    9072.504     72.800   4.680  9.50113E-01  9.87864E-01 -3.77515E-02
    9073.936     74.232   4.720  9.36182E-01  9.88135E-01 -5.19528E-02
    9075.381     75.677   4.760  9.22076E-01  9.88437E-01 -6.63611E-02
    9076.838     77.134   4.800  9.08956E-01  9.88748E-01 -7.97914E-02
    9078.307     78.603   4.840  8.98022E-01  9.89089E-01 -9.10676E-02
    9079.789     80.084   4.880  8.90292E-01  9.89459E-01 -9.91675E-02
    9081.282     81.578   4.920  8.86374E-01  9.89812E-01 -1.03438E-01
    9082.788     83.084   4.960  8.86480E-01  9.90189E-01 -1.03709E-01
    9084.306     84.602   5.000  8.90480E-01  9.90568E-01 -1.00088E-01
    9085.836     86.132   5.040  8.98265E-01  9.90947E-01 -9.26825E-02
    9087.378     87.674   5.080  9.09585E-01  9.91326E-01 -8.17410E-02
    9088.933     89.228   5.120  9.23639E-01  9.91702E-01 -6.80623E-02
    9090.499     90.795   5.160  9.39184E-01  9.92053E-01 -5.28695E-02
    9092.078     92.374   5.200  9.55218E-01  9.92423E-01 -3.72055E-02
    9093.669     93.965   5.240  9.70899E-01  9.92790E-01 -2.18907E-02
    9095.272     95.568   5.280  9.85067E-01  9.93126E-01 -8.05896E-03
    9096.888     97.184   5.320  9.95904E-01  9.93433E-01  2.47162E-03
    9098.515     98.811   5.360  1.00185E+00  9.93752E-01  8.09848E-03
    9100.155    100.451   5.400  1.00293E+00  9.94019E-01  8.91133E-03
    9101.807    102.103   5.440  1.00146E+00  9.94297E-01  7.16427E-03
    9103.471    103.767   5.480  1.00046E+00  9.94520E-01  5.94461E-03
    9105.148    105.444   5.520  1.00208E+00  9.94731E-01  7.34570E-03
    9106.836    107.132   5.560  1.00648E+00  9.94930E-01  1.15469E-02
    9108.537    108.833   5.600  1.01220E+00  9.95071E-01  1.71280E-02
    9110.250    110.546   5.640  1.01723E+00  9.95197E-01  2.20347E-02
    9111.975    112.271   5.680  1.01965E+00  9.95286E-01  2.43674E-02
    9113.713    114.009   5.720  1.01791E+00  9.95340E-01  2.25707E-02
    9115.462    115.758   5.760  1.01087E+00  9.95379E-01  1.54919E-02
    9117.224    117.520   5.800  9.98109E-01  9.95359E-01  2.74997E-03
    9118.998    119.294   5.840  9.80642E-01  9.95323E-01 -1.46812E-02
    9120.784    121.080   5.880  9.61065E-01  9.95252E-01 -3.41866E-02
    9122.582    122.878   5.920  9.43235E-01  9.95144E-01 -5.19089E-02
    9124.393    124.689   5.960  9.31263E-01  9.94996E-01 -6.37332E-02
    9126.216    126.511   6.000  9.28895E-01  9.94789E-01 -6.58942E-02
