# # comment:                                                     FEFF 9.9.1  
# # Source:
# # Structure
# # Reduced
# # space
# # abc:
# # angles:
# # sites:
# # POT  SCF 100  7.0000   0, screened core-hole, AFOLP (folp(0)= 1.150)
# # Abs   Z=29 Rmt= 1.278 Rnm= 1.360 K  shell
# # Pot 1 Z=29 Rmt= 1.278 Rnm= 1.360
# # Pot 2 Z=52 Rmt= 1.324 Rnm= 1.519
# # Pot 3 Z= 8 Rmt= 0.948 Rnm= 1.100
# # Gam_ch=1.729E+00 H-L exch Vi= 0.000E+00 Vr= 0.000E+00
# # Mu=-5.135E+00eV kf=2.175E+00 Vint=-1.434E+01eV Rs_int= 1.667
# FMS rfms= 9.0000
# # PATH  Rmax=-1.000,  Keep_limit= 0.00, Heap_limit 0.00  Pwcrit= 2.50%
#  S02=0.950  Temp=   0.00  Debye_temp=   0.00  Global_sig2= 0.00000
#  Energy zero shift, vr, vi    0.00000E+00   0.00000E+00
#  Curved wave amplitude ratio filter   4.000%
#     file         sig2 tot  cw amp ratio   deg  nlegs   reff  inp sig2
#     0/   0 paths used
#  xsedge+ 50, used to normalize mu           2.4446E-04
#  -----------------------------------------------------------------------
#  omega    e    k    mu    mu0     chi     @#
    8983.262     -8.945  -1.000  4.22775E-02  5.79929E-02 -1.57154E-02
    8983.561     -8.646  -0.960  4.45720E-02  6.23391E-02 -1.77672E-02
    8983.848     -8.359  -0.920  4.70426E-02  6.71797E-02 -2.01370E-02
    8984.122     -8.085  -0.880  4.97085E-02  7.25882E-02 -2.28797E-02
    8984.384     -7.823  -0.840  5.25910E-02  7.86504E-02 -2.60594E-02
    8984.634     -7.573  -0.800  5.57145E-02  8.54659E-02 -2.97514E-02
    8984.872     -7.335  -0.760  5.91063E-02  9.31490E-02 -3.40427E-02
    8985.097     -7.110  -0.720  6.27962E-02  1.01829E-01 -3.90327E-02
    8985.311     -6.896  -0.680  6.68162E-02  1.11648E-01 -4.48319E-02
    8985.512     -6.695  -0.640  7.11990E-02  1.22757E-01 -5.15582E-02
    8985.701     -6.506  -0.600  7.59750E-02  1.35304E-01 -5.93293E-02
    8985.878     -6.329  -0.560  8.11676E-02  1.49416E-01 -6.82484E-02
    8986.042     -6.165  -0.520  8.67866E-02  1.65168E-01 -7.83819E-02
    8986.195     -6.012  -0.480  9.28178E-02  1.82546E-01 -8.97286E-02
    8986.335     -5.872  -0.440  9.92125E-02  2.01397E-01 -1.02184E-01
    8986.463     -5.744  -0.400  1.05878E-01  2.21389E-01 -1.15511E-01
    8986.579     -5.628  -0.360  1.12673E-01  2.42004E-01 -1.29331E-01
    8986.682     -5.525  -0.320  1.19416E-01  2.62565E-01 -1.43149E-01
    8986.774     -5.433  -0.280  1.25900E-01  2.82322E-01 -1.56422E-01
    8986.853     -5.354  -0.240  1.31920E-01  3.00555E-01 -1.68636E-01
    8986.920     -5.287  -0.200  1.37290E-01  3.16663E-01 -1.79373E-01
    8986.975     -5.232  -0.160  1.41863E-01  3.30207E-01 -1.88344E-01
    8987.018     -5.189  -0.120  1.45527E-01  3.40908E-01 -1.95382E-01
    8987.048     -5.159  -0.080  1.48205E-01  3.48614E-01 -2.00409E-01
    8987.072     -5.135   0.000  1.50411E-01  3.54803E-01 -2.04392E-01
    8987.127     -5.080   0.120  1.55327E-01  3.68759E-01 -2.13431E-01
    8987.170     -5.037   0.160  1.59148E-01  3.79583E-01 -2.20435E-01
    8987.225     -4.982   0.200  1.64094E-01  3.93401E-01 -2.29307E-01
    8987.292     -4.915   0.240  1.70174E-01  4.10016E-01 -2.39842E-01
    8987.371     -4.836   0.280  1.77340E-01  4.29040E-01 -2.51701E-01
    8987.463     -4.744   0.320  1.85575E-01  4.49991E-01 -2.64417E-01
    8987.566     -4.641   0.360  1.94759E-01  4.72224E-01 -2.77465E-01
    8987.682     -4.525   0.400  2.04802E-01  4.95078E-01 -2.90276E-01
    8987.810     -4.397   0.440  2.15568E-01  5.17946E-01 -3.02378E-01
    8987.950     -4.257   0.480  2.26864E-01  5.40298E-01 -3.13434E-01
    8988.103     -4.104   0.520  2.38666E-01  5.61877E-01 -3.23211E-01
    8988.267     -3.940   0.560  2.50891E-01  5.82482E-01 -3.31591E-01
    8988.444     -3.763   0.600  2.63725E-01  6.02117E-01 -3.38392E-01
    8988.633     -3.574   0.640  2.77447E-01  6.20803E-01 -3.43356E-01
    8988.834     -3.373   0.680  2.92457E-01  6.38649E-01 -3.46192E-01
    8989.047     -3.160   0.720  3.09097E-01  6.55734E-01 -3.46637E-01
    8989.273     -2.934   0.760  3.27655E-01  6.72160E-01 -3.44505E-01
    8989.511     -2.696   0.800  3.48562E-01  6.88038E-01 -3.39476E-01
    8989.761     -2.446   0.840  3.72281E-01  7.03422E-01 -3.31141E-01
    8990.023     -2.184   0.880  3.99294E-01  7.18393E-01 -3.19099E-01
    8990.297     -1.910   0.920  4.29870E-01  7.32957E-01 -3.03087E-01
    8990.584     -1.623   0.960  4.64301E-01  7.47186E-01 -2.82885E-01
    8990.882     -1.325   1.000  5.02214E-01  7.61058E-01 -2.58844E-01
    8991.193     -1.014   1.040  5.42166E-01  7.74588E-01 -2.32422E-01
    8991.516     -0.691   1.080  5.82876E-01  7.87817E-01 -2.04941E-01
    8991.852     -0.355   1.120  6.25482E-01  8.00699E-01 -1.75217E-01
    8992.199     -0.008   1.160  6.72647E-01  8.13226E-01 -1.40579E-01
    8992.559      0.352   1.200  7.25467E-01  8.25386E-01 -9.99193E-02
    8992.931      0.724   1.240  7.83069E-01  8.37205E-01 -5.41360E-02
    8993.315      1.108   1.280  8.38064E-01  8.48601E-01 -1.05366E-02
    8993.711      1.504   1.320  8.77084E-01  8.59616E-01  1.74687E-02
    8994.119      1.912   1.360  8.96890E-01  8.70209E-01  2.66803E-02
    8994.540      2.333   1.400  9.09438E-01  8.80382E-01  2.90567E-02
    8994.973      2.766   1.440  9.29953E-01  8.90091E-01  3.98622E-02
    8995.418      3.211   1.480  9.66460E-01  8.99356E-01  6.71041E-02
    8995.875      3.668   1.520  1.01799E+00  9.08179E-01  1.09807E-01
    8996.344      4.137   1.560  1.07746E+00  9.16518E-01  1.60944E-01
    8996.826      4.619   1.600  1.13467E+00  9.24397E-01  2.10276E-01
    8997.320      5.113   1.640  1.17772E+00  9.31796E-01  2.45926E-01
    8997.826      5.619   1.680  1.19590E+00  9.38738E-01  2.57160E-01
    8998.344      6.137   1.720  1.19178E+00  9.45229E-01  2.46555E-01
    8998.874      6.667   1.760  1.18244E+00  9.51253E-01  2.31183E-01
    8999.417      7.210   1.800  1.18718E+00  9.56816E-01  2.30362E-01
    8999.971      7.764   1.840  1.21553E+00  9.61965E-01  2.53563E-01
    9000.538      8.331   1.880  1.25734E+00  9.66687E-01  2.90654E-01
    9001.118      8.911   1.920  1.29399E+00  9.70990E-01  3.22999E-01
    9001.709      9.502   1.960  1.31479E+00  9.74904E-01  3.39889E-01
    9002.312     10.105   2.000  1.31361E+00  9.78437E-01  3.35173E-01
    9002.928     10.721   2.040  1.29032E+00  9.81619E-01  3.08703E-01
    9003.556     11.349   2.080  1.25748E+00  9.84462E-01  2.73022E-01
    9004.196     11.989   2.120  1.23113E+00  9.86972E-01  2.44153E-01
    9004.848     12.641   2.160  1.21537E+00  9.89180E-01  2.26194E-01
    9005.513     13.306   2.200  1.20278E+00  9.91097E-01  2.11685E-01
    9006.189     13.982   2.240  1.18472E+00  9.92754E-01  1.91970E-01
    9006.878     14.671   2.280  1.15998E+00  9.94161E-01  1.65820E-01
    9007.579     15.372   2.320  1.13441E+00  9.95347E-01  1.39068E-01
    9008.292     16.085   2.360  1.11071E+00  9.96301E-01  1.14408E-01
    9009.018     16.811   2.400  1.08556E+00  9.97096E-01  8.84620E-02
    9009.756     17.549   2.440  1.05853E+00  9.97697E-01  6.08344E-02
    9010.505     18.298   2.480  1.03501E+00  9.98134E-01  3.68743E-02
    9011.267     19.060   2.520  1.01294E+00  9.98437E-01  1.45040E-02
    9012.041     19.834   2.560  9.80230E-01  9.98615E-01 -1.83855E-02
    9012.828     20.621   2.600  9.40079E-01  9.98696E-01 -5.86176E-02
    9013.626     21.419   2.640  9.09049E-01  9.98686E-01 -8.96370E-02
    9014.437     22.230   2.680  8.88271E-01  9.98572E-01 -1.10301E-01
    9015.260     23.053   2.720  8.74765E-01  9.98402E-01 -1.23638E-01
    9016.095     23.888   2.760  8.66170E-01  9.98181E-01 -1.32011E-01
    9016.943     24.736   2.800  8.61335E-01  9.97916E-01 -1.36581E-01
    9017.802     25.595   2.840  8.59641E-01  9.97612E-01 -1.37971E-01
    9018.674     26.467   2.880  8.59511E-01  9.97274E-01 -1.37763E-01
    9019.558     27.351   2.920  8.59659E-01  9.96948E-01 -1.37289E-01
    9020.454     28.247   2.960  8.59423E-01  9.96597E-01 -1.37174E-01
    9021.362     29.155   3.000  8.59060E-01  9.96245E-01 -1.37184E-01
    9022.283     30.076   3.040  8.59449E-01  9.95918E-01 -1.36469E-01
    9023.215     31.008   3.080  8.61648E-01  9.95596E-01 -1.33949E-01
    9024.160     31.953   3.120  8.66183E-01  9.95304E-01 -1.29121E-01
    9025.117     32.910   3.160  8.72886E-01  9.95023E-01 -1.22137E-01
    9026.087     33.880   3.200  8.81547E-01  9.94777E-01 -1.13231E-01
    9027.068     34.861   3.240  8.91901E-01  9.94568E-01 -1.02667E-01
    9028.062     35.855   3.280  9.03638E-01  9.94397E-01 -9.07590E-02
    9029.068     36.861   3.320  9.16722E-01  9.94266E-01 -7.75441E-02
    9030.086     37.879   3.360  9.31186E-01  9.94177E-01 -6.29911E-02
    9031.116     38.909   3.400  9.46733E-01  9.94151E-01 -4.74176E-02
    9032.158     39.951   3.440  9.62589E-01  9.94146E-01 -3.15575E-02
    9033.213     41.006   3.480  9.77912E-01  9.94206E-01 -1.62943E-02
    9034.280     42.073   3.520  9.91818E-01  9.94309E-01 -2.49114E-03
    9035.359     43.152   3.560  1.00385E+00  9.94456E-01  9.38987E-03
    9036.450     44.243   3.600  1.01406E+00  9.94668E-01  1.93961E-02
    9037.553     45.346   3.640  1.02267E+00  9.94902E-01  2.77692E-02
    9038.669     46.462   3.680  1.02984E+00  9.95198E-01  3.46377E-02
    9039.796     47.589   3.720  1.03564E+00  9.95537E-01  4.01022E-02
    9040.936     48.729   3.760  1.04022E+00  9.95917E-01  4.43080E-02
    9042.089     49.882   3.800  1.04378E+00  9.96338E-01  4.74405E-02
    9043.253     51.046   3.840  1.04655E+00  9.96797E-01  4.97565E-02
    9044.429     52.222   3.880  1.04889E+00  9.97294E-01  5.15985E-02
    9045.618     53.411   3.920  1.05114E+00  9.97830E-01  5.33136E-02
    9046.819     54.612   3.960  1.05355E+00  9.98378E-01  5.51731E-02
    9048.032     55.825   4.000  1.05634E+00  9.98982E-01  5.73561E-02
    9049.257     57.050   4.040  1.05934E+00  9.99597E-01  5.97469E-02
    9050.495     58.288   4.080  1.06211E+00  1.00022E+00  6.18851E-02
    9051.745     59.538   4.120  1.06397E+00  1.00088E+00  6.30967E-02
    9053.006     60.799   4.160  1.06438E+00  1.00156E+00  6.28229E-02
    9054.280     62.073   4.200  1.06291E+00  1.00222E+00  6.06853E-02
    9055.567     63.360   4.240  1.05951E+00  1.00291E+00  5.65988E-02
    9056.865     64.658   4.280  1.05436E+00  1.00360E+00  5.07581E-02
    9058.176     65.969   4.320  1.04784E+00  1.00432E+00  4.35255E-02
    9059.499     67.292   4.360  1.04038E+00  1.00501E+00  3.53674E-02
    9060.834     68.627   4.400  1.03255E+00  1.00567E+00  2.68766E-02
    9062.181     69.974   4.440  1.02502E+00  1.00635E+00  1.86725E-02
    9063.540     71.333   4.480  1.01824E+00  1.00702E+00  1.12167E-02
    9064.912     72.705   4.520  1.01246E+00  1.00767E+00  4.78932E-03
    9066.296     74.089   4.560  1.00778E+00  1.00828E+00 -4.99902E-04
    9067.692     75.485   4.600  1.00425E+00  1.00887E+00 -4.62477E-03
    9069.100     76.893   4.640  1.00186E+00  1.00944E+00 -7.57944E-03
    9070.520     78.313   4.680  1.00054E+00  1.00999E+00 -9.44869E-03
    9071.953     79.746   4.720  1.00002E+00  1.01050E+00 -1.04738E-02
    9073.397     81.190   4.760  9.99967E-01  1.01097E+00 -1.10045E-02
    9074.854     82.647   4.800  9.99989E-01  1.01140E+00 -1.14147E-02
    9076.324     84.117   4.840  9.99796E-01  1.01179E+00 -1.19988E-02
    9077.805     85.598   4.880  9.99236E-01  1.01214E+00 -1.29077E-02
    9079.298     87.091   4.920  9.98284E-01  1.01245E+00 -1.41658E-02
    9080.804     88.597   4.960  9.96980E-01  1.01271E+00 -1.57349E-02
    9082.322     90.115   5.000  9.95365E-01  1.01294E+00 -1.75721E-02
    9083.852     91.645   5.040  9.93474E-01  1.01312E+00 -1.96416E-02
    9085.394     93.187   5.080  9.91369E-01  1.01325E+00 -2.18820E-02
    9086.949     94.742   5.120  9.89169E-01  1.01334E+00 -2.41727E-02
    9088.515     96.308   5.160  9.87004E-01  1.01336E+00 -2.63609E-02
    9090.094     97.887   5.200  9.85109E-01  1.01334E+00 -2.82347E-02
    9091.685     99.478   5.240  9.83738E-01  1.01330E+00 -2.95639E-02
    9093.289    101.082   5.280  9.83054E-01  1.01319E+00 -3.01402E-02
    9094.904    102.697   5.320  9.83195E-01  1.01304E+00 -2.98460E-02
    9096.532    104.325   5.360  9.84194E-01  1.01284E+00 -2.86493E-02
    9098.172    105.965   5.400  9.85965E-01  1.01258E+00 -2.66158E-02
    9099.824    107.617   5.440  9.88373E-01  1.01230E+00 -2.39248E-02
    9101.488    109.281   5.480  9.91131E-01  1.01197E+00 -2.08422E-02
    9103.164    110.957   5.520  9.93966E-01  1.01159E+00 -1.76204E-02
    9104.853    112.646   5.560  9.96732E-01  1.01118E+00 -1.44509E-02
    9106.553    114.346   5.600  9.99304E-01  1.01074E+00 -1.14397E-02
    9108.266    116.059   5.640  1.00170E+00  1.01029E+00 -8.58499E-03
    9109.992    117.785   5.680  1.00402E+00  1.00978E+00 -5.76150E-03
    9111.729    119.522   5.720  1.00648E+00  1.00925E+00 -2.77063E-03
    9113.479    121.272   5.760  1.00924E+00  1.00869E+00  5.49815E-04
    9115.240    123.033   5.800  1.01226E+00  1.00810E+00  4.16716E-03
    9117.014    124.807   5.840  1.01524E+00  1.00750E+00  7.74063E-03
    9118.800    126.593   5.880  1.01757E+00  1.00690E+00  1.06661E-02
    9120.599    128.392   5.920  1.01862E+00  1.00628E+00  1.23416E-02
    9122.409    130.202   5.960  1.01812E+00  1.00563E+00  1.24856E-02
    9124.232    132.025   6.000  1.01630E+00  1.00501E+00  1.12971E-02
