# # comment:                                                     FEFF 9.9.1  
# # Source:
# # Structure
# # Reduced
# # space
# # abc:
# # angles:128.497000
# # sites:
# # POT  SCF 100  7.0000   0, screened core-hole, AFOLP (folp(0)= 1.150)
# # Abs   Z=29 Rmt= 1.161 Rnm= 1.329 K  shell
# # Pot 1 Z=29 Rmt= 1.275 Rnm= 1.343
# # Pot 2 Z= 8 Rmt= 0.979 Rnm= 1.089
# # Gam_ch=1.729E+00 H-L exch Vi= 0.000E+00 Vr= 0.000E+00
# # Mu=-6.196E+00eV kf=2.171E+00 Vint=-1.559E+01eV Rs_int= 1.671
# FMS rfms= 9.0000
# # PATH  Rmax=-1.000,  Keep_limit= 0.00, Heap_limit 0.00  Pwcrit= 2.50%
#  S02=0.950  Temp=   0.00  Debye_temp=   0.00  Global_sig2= 0.00000
#  Energy zero shift, vr, vi    0.00000E+00   0.00000E+00
#  Curved wave amplitude ratio filter   4.000%
#     file         sig2 tot  cw amp ratio   deg  nlegs   reff  inp sig2
#     0/   0 paths used
#  xsedge+ 50, used to normalize mu           2.4423E-04
#  -----------------------------------------------------------------------
#  omega    e    k    mu    mu0     chi     @#
    8983.760    -10.006  -1.000  4.88038E-02  5.77880E-02 -8.98424E-03
    8984.059     -9.707  -0.960  5.21469E-02  6.20807E-02 -9.93378E-03
    8984.346     -9.421  -0.920  5.58507E-02  6.68579E-02 -1.10072E-02
    8984.620     -9.146  -0.880  5.99680E-02  7.21916E-02 -1.22236E-02
    8984.882     -8.884  -0.840  6.45599E-02  7.81656E-02 -1.36057E-02
    8985.132     -8.634  -0.800  6.96970E-02  8.48769E-02 -1.51799E-02
    8985.370     -8.396  -0.760  7.54602E-02  9.24370E-02 -1.69767E-02
    8985.595     -8.171  -0.720  8.19403E-02  1.00972E-01 -1.90316E-02
    8985.809     -7.958  -0.680  8.92370E-02  1.10621E-01 -2.13836E-02
    8986.010     -7.756  -0.640  9.74551E-02  1.21530E-01 -2.40747E-02
    8986.199     -7.567  -0.600  1.06698E-01  1.33844E-01 -2.71460E-02
    8986.376     -7.391  -0.560  1.17053E-01  1.47686E-01 -3.06320E-02
    8986.540     -7.226  -0.520  1.28579E-01  1.63129E-01 -3.45503E-02
    8986.693     -7.074  -0.480  1.41271E-01  1.80159E-01 -3.88878E-02
    8986.833     -6.933  -0.440  1.55040E-01  1.98626E-01 -4.35856E-02
    8986.961     -6.805  -0.400  1.69680E-01  2.18206E-01 -4.85265E-02
    8987.077     -6.690  -0.360  1.84856E-01  2.38392E-01 -5.35360E-02
    8987.180     -6.586  -0.320  2.00123E-01  2.58524E-01 -5.84008E-02
    8987.272     -6.494  -0.280  2.14962E-01  2.77868E-01 -6.29053E-02
    8987.351     -6.415  -0.240  2.28848E-01  2.95721E-01 -6.68729E-02
    8987.418     -6.348  -0.200  2.41301E-01  3.11494E-01 -7.01929E-02
    8987.473     -6.293  -0.160  2.51934E-01  3.24758E-01 -7.28241E-02
    8987.515     -6.251  -0.120  2.60462E-01  3.35240E-01 -7.47774E-02
    8987.546     -6.220  -0.080  2.66696E-01  3.42789E-01 -7.60926E-02
    8987.570     -6.196   0.000  2.71809E-01  3.48851E-01 -7.70417E-02
    8987.625     -6.141   0.120  2.82975E-01  3.62518E-01 -7.95426E-02
    8987.668     -6.098   0.160  2.91783E-01  3.73140E-01 -8.13566E-02
    8987.723     -6.043   0.200  3.03144E-01  3.86675E-01 -8.35311E-02
    8987.790     -5.976   0.240  3.17047E-01  4.02955E-01 -8.59077E-02
    8987.869     -5.897   0.280  3.33295E-01  4.21643E-01 -8.83477E-02
    8987.960     -5.806   0.320  3.51452E-01  4.42211E-01 -9.07583E-02
    8988.064     -5.702   0.360  3.70848E-01  4.64073E-01 -9.32252E-02
    8988.180     -5.586   0.400  3.90416E-01  4.86565E-01 -9.61496E-02
    8988.308     -5.458   0.440  4.08817E-01  5.09101E-01 -1.00284E-01
    8988.448     -5.318   0.480  4.24571E-01  5.31205E-01 -1.06634E-01
    8988.601     -5.166   0.520  4.36405E-01  5.52567E-01 -1.16162E-01
    8988.765     -5.001   0.560  4.43760E-01  5.73074E-01 -1.29314E-01
    8988.942     -4.824   0.600  4.47004E-01  5.92670E-01 -1.45666E-01
    8989.131     -4.635   0.640  4.47632E-01  6.11399E-01 -1.63766E-01
    8989.332     -4.434   0.680  4.48051E-01  6.29364E-01 -1.81313E-01
    8989.545     -4.221   0.720  4.51067E-01  6.46646E-01 -1.95579E-01
    8989.771     -3.995   0.760  4.59454E-01  6.63363E-01 -2.03909E-01
    8990.009     -3.757   0.800  4.75538E-01  6.79603E-01 -2.04065E-01
    8990.259     -3.507   0.840  5.01055E-01  6.95441E-01 -1.94386E-01
    8990.521     -3.245   0.880  5.36587E-01  7.10936E-01 -1.74349E-01
    8990.795     -2.971   0.920  5.79930E-01  7.26109E-01 -1.46179E-01
    8991.082     -2.685   0.960  6.24276E-01  7.40992E-01 -1.16717E-01
    8991.380     -2.386   1.000  6.58112E-01  7.55625E-01 -9.75131E-02
    8991.691     -2.075   1.040  6.69596E-01  7.70016E-01 -1.00420E-01
    8992.014     -1.752   1.080  6.54579E-01  7.84125E-01 -1.29546E-01
    8992.350     -1.417   1.120  6.21220E-01  7.97968E-01 -1.76748E-01
    8992.697     -1.069   1.160  5.84353E-01  8.11531E-01 -2.27178E-01
    8993.057     -0.709   1.200  5.56395E-01  8.24798E-01 -2.68403E-01
    8993.429     -0.338   1.240  5.43088E-01  8.37754E-01 -2.94666E-01
    8993.813      0.046   1.280  5.43434E-01  8.50374E-01 -3.06941E-01
    8994.209      0.443   1.320  5.52194E-01  8.62615E-01 -3.10421E-01
    8994.617      0.851   1.360  5.64560E-01  8.74473E-01 -3.09913E-01
    8995.038      1.272   1.400  5.79583E-01  8.85944E-01 -3.06361E-01
    8995.471      1.705   1.440  5.99605E-01  8.96982E-01 -2.97377E-01
    8995.916      2.150   1.480  6.28140E-01  9.07562E-01 -2.79422E-01
    8996.373      2.607   1.520  6.69304E-01  9.17700E-01 -2.48395E-01
    8996.842      3.076   1.560  7.27094E-01  9.27371E-01 -2.00277E-01
    8997.324      3.558   1.600  8.01999E-01  9.36553E-01 -1.34554E-01
    8997.818      4.052   1.640  8.86741E-01  9.45224E-01 -5.84836E-02
    8998.324      4.558   1.680  9.68384E-01  9.53423E-01  1.49616E-02
    8998.842      5.076   1.720  1.03592E+00  9.61108E-01  7.48114E-02
    8999.372      5.606   1.760  1.08300E+00  9.68282E-01  1.14719E-01
    8999.915      6.149   1.800  1.11228E+00  9.74968E-01  1.37307E-01
    9000.469      6.703   1.840  1.14251E+00  9.81148E-01  1.61366E-01
    9001.036      7.270   1.880  1.19167E+00  9.86827E-01  2.04844E-01
    9001.615      7.849   1.920  1.25787E+00  9.92053E-01  2.65812E-01
    9002.207      8.441   1.960  1.33550E+00  9.96790E-01  3.38714E-01
    9002.810      9.044   2.000  1.43090E+00  1.00109E+00  4.29816E-01
    9003.426      9.660   2.040  1.53095E+00  1.00493E+00  5.26019E-01
    9004.054     10.288   2.080  1.58775E+00  1.00834E+00  5.79403E-01
    9004.694     10.928   2.120  1.56800E+00  1.01135E+00  5.56658E-01
    9005.346     11.580   2.160  1.47264E+00  1.01396E+00  4.58684E-01
    9006.011     12.245   2.200  1.31947E+00  1.01620E+00  3.03268E-01
    9006.687     12.921   2.240  1.17831E+00  1.01809E+00  1.60219E-01
    9007.376     13.610   2.280  1.09071E+00  1.01963E+00  7.10757E-02
    9008.077     14.311   2.320  1.02225E+00  1.02086E+00  1.38879E-03
    9008.790     15.024   2.360  9.49432E-01  1.02182E+00 -7.23919E-02
    9009.516     15.750   2.400  8.89618E-01  1.02248E+00 -1.32862E-01
    9010.253     16.487   2.440  8.47809E-01  1.02290E+00 -1.75094E-01
    9011.003     17.237   2.480  8.27205E-01  1.02308E+00 -1.95879E-01
    9011.765     17.999   2.520  8.28704E-01  1.02305E+00 -1.94347E-01
    9012.539     18.773   2.560  8.51781E-01  1.02281E+00 -1.71033E-01
    9013.326     19.560   2.600  9.00536E-01  1.02240E+00 -1.21868E-01
    9014.124     20.358   2.640  9.49085E-01  1.02183E+00 -7.27470E-02
    9014.935     21.169   2.680  9.92420E-01  1.02112E+00 -2.87047E-02
    9015.758     21.992   2.720  1.03035E+00  1.02029E+00  1.00625E-02
    9016.593     22.827   2.760  1.06488E+00  1.01934E+00  4.55405E-02
    9017.441     23.674   2.800  1.09727E+00  1.01830E+00  7.89751E-02
    9018.300     24.534   2.840  1.12681E+00  1.01720E+00  1.09614E-01
    9019.172     25.406   2.880  1.15040E+00  1.01600E+00  1.34403E-01
    9020.056     26.290   2.920  1.16414E+00  1.01477E+00  1.49366E-01
    9020.952     27.186   2.960  1.16406E+00  1.01350E+00  1.50553E-01
    9021.860     28.094   3.000  1.14875E+00  1.01220E+00  1.36553E-01
    9022.781     29.015   3.040  1.12119E+00  1.01089E+00  1.10303E-01
    9023.713     29.947   3.080  1.08661E+00  1.00955E+00  7.70577E-02
    9024.658     30.892   3.120  1.05069E+00  1.00823E+00  4.24589E-02
    9025.615     31.849   3.160  1.01716E+00  1.00691E+00  1.02483E-02
    9026.585     32.818   3.200  9.87937E-01  1.00563E+00 -1.76928E-02
    9027.566     33.800   3.240  9.63716E-01  1.00436E+00 -4.06416E-02
    9028.560     34.794   3.280  9.44036E-01  1.00312E+00 -5.90874E-02
    9029.566     35.799   3.320  9.27773E-01  1.00195E+00 -7.41754E-02
    9030.584     36.817   3.360  9.13809E-01  1.00079E+00 -8.69848E-02
    9031.614     37.848   3.400  9.01549E-01  9.99707E-01 -9.81575E-02
    9032.656     38.890   3.440  8.90714E-01  9.98668E-01 -1.07953E-01
    9033.711     39.945   3.480  8.81479E-01  9.97698E-01 -1.16219E-01
    9034.778     41.011   3.520  8.74348E-01  9.96780E-01 -1.22431E-01
    9035.857     42.090   3.560  8.70029E-01  9.95936E-01 -1.25907E-01
    9036.948     43.182   3.600  8.69233E-01  9.95168E-01 -1.25935E-01
    9038.051     44.285   3.640  8.72506E-01  9.94477E-01 -1.21971E-01
    9039.167     45.401   3.680  8.79958E-01  9.93843E-01 -1.13884E-01
    9040.294     46.528   3.720  8.91070E-01  9.93306E-01 -1.02236E-01
    9041.434     47.668   3.760  9.04780E-01  9.92827E-01 -8.80466E-02
    9042.587     48.820   3.800  9.19813E-01  9.92425E-01 -7.26114E-02
    9043.751     49.985   3.840  9.34861E-01  9.92102E-01 -5.72407E-02
    9044.927     51.161   3.880  9.48876E-01  9.91857E-01 -4.29806E-02
    9046.116     52.350   3.920  9.61250E-01  9.91690E-01 -3.04398E-02
    9047.317     53.551   3.960  9.71795E-01  9.91580E-01 -1.97856E-02
    9048.530     54.764   4.000  9.80960E-01  9.91570E-01 -1.06100E-02
    9049.755     55.989   4.040  9.89679E-01  9.91614E-01 -1.93461E-03
    9050.993     57.227   4.080  9.99017E-01  9.91734E-01  7.28366E-03
    9052.243     58.476   4.120  1.00933E+00  9.91929E-01  1.73977E-02
    9053.504     59.738   4.160  1.02006E+00  9.92175E-01  2.78897E-02
    9054.778     61.012   4.200  1.03049E+00  9.92495E-01  3.79934E-02
    9056.065     62.299   4.240  1.04043E+00  9.92886E-01  4.75449E-02
    9057.363     63.597   4.280  1.05067E+00  9.93304E-01  5.73686E-02
    9058.674     64.908   4.320  1.06249E+00  9.93813E-01  6.86805E-02
    9059.997     66.230   4.360  1.07602E+00  9.94345E-01  8.16711E-02
    9061.332     67.565   4.400  1.08945E+00  9.94943E-01  9.45034E-02
    9062.679     68.913   4.440  1.09928E+00  9.95584E-01  1.03695E-01
    9064.038     70.272   4.480  1.10204E+00  9.96265E-01  1.05770E-01
    9065.410     71.644   4.520  1.09624E+00  9.96983E-01  9.92580E-02
    9066.794     73.027   4.560  1.08333E+00  9.97717E-01  8.56149E-02
    9068.190     74.423   4.600  1.06672E+00  9.98505E-01  6.82162E-02
    9069.598     75.832   4.640  1.04981E+00  9.99284E-01  5.05259E-02
    9071.018     77.252   4.680  1.03493E+00  1.00011E+00  3.48173E-02
    9072.451     78.685   4.720  1.02269E+00  1.00095E+00  2.17350E-02
    9073.895     80.129   4.760  1.01231E+00  1.00179E+00  1.05112E-02
    9075.352     81.586   4.800  1.00228E+00  1.00264E+00 -3.58108E-04
    9076.822     83.055   4.840  9.91127E-01  1.00348E+00 -1.23514E-02
    9078.303     84.537   4.880  9.77980E-01  1.00432E+00 -2.63392E-02
    9079.796     86.030   4.920  9.63101E-01  1.00516E+00 -4.20562E-02
    9081.302     87.536   4.960  9.48183E-01  1.00599E+00 -5.78098E-02
    9082.820     89.054   5.000  9.35908E-01  1.00682E+00 -7.09128E-02
    9084.350     90.584   5.040  9.28947E-01  1.00762E+00 -7.86689E-02
    9085.892     92.126   5.080  9.28854E-01  1.00838E+00 -7.95225E-02
    9087.447     93.681   5.120  9.35659E-01  1.00912E+00 -7.34651E-02
    9089.013     95.247   5.160  9.48147E-01  1.00984E+00 -6.16891E-02
    9090.592     96.826   5.200  9.64564E-01  1.01051E+00 -4.59438E-02
    9092.183     98.417   5.240  9.83229E-01  1.01114E+00 -2.79130E-02
    9093.787    100.020   5.280  1.00326E+00  1.01176E+00 -8.49943E-03
    9095.402    101.636   5.320  1.02484E+00  1.01231E+00  1.25302E-02
    9097.030    103.264   5.360  1.04866E+00  1.01281E+00  3.58466E-02
    9098.669    104.903   5.400  1.07420E+00  1.01327E+00  6.09317E-02
    9100.321    106.555   5.440  1.09828E+00  1.01366E+00  8.46135E-02
    9101.986    108.220   5.480  1.11555E+00  1.01403E+00  1.01522E-01
    9103.662    109.896   5.520  1.12132E+00  1.01433E+00  1.06992E-01
    9105.351    111.585   5.560  1.11461E+00  1.01455E+00  1.00055E-01
    9107.051    113.285   5.600  1.09831E+00  1.01473E+00  8.35822E-02
    9108.764    114.998   5.640  1.07736E+00  1.01486E+00  6.25078E-02
    9110.490    116.723   5.680  1.05679E+00  1.01491E+00  4.18762E-02
    9112.227    118.461   5.720  1.04007E+00  1.01492E+00  2.51451E-02
    9113.976    120.210   5.760  1.02820E+00  1.01486E+00  1.33480E-02
    9115.738    121.972   5.800  1.02012E+00  1.01474E+00  5.37675E-03
    9117.512    123.746   5.840  1.01332E+00  1.01456E+00 -1.23471E-03
    9119.298    125.532   5.880  1.00504E+00  1.01433E+00 -9.28983E-03
    9121.097    127.330   5.920  9.93363E-01  1.01403E+00 -2.06664E-02
    9122.907    129.141   5.960  9.78316E-01  1.01370E+00 -3.53875E-02
    9124.730    130.964   6.000  9.61126E-01  1.01323E+00 -5.21074E-02
