# # comment:                                                     FEFF 9.9.1  
# # Source:
# # Structure
# # Reduced
# # space
# # abc:
# # angles:
# # sites:
# # POT  SCF 100  7.0000   0, screened core-hole, AFOLP (folp(0)= 1.150)
# # Abs   Z=29 Rmt= 1.249 Rnm= 1.344 K  shell
# # Pot 1 Z=29 Rmt= 1.258 Rnm= 1.348
# # Pot 2 Z=47 Rmt= 1.554 Rnm= 1.628
# # Pot 3 Z=15 Rmt= 0.919 Rnm= 1.158
# # Pot 4 Z= 8 Rmt= 0.998 Rnm= 1.100
# # Gam_ch=1.729E+00 H-L exch Vi= 0.000E+00 Vr= 0.000E+00
# # Mu=-6.923E+00eV kf=2.259E+00 Vint=-1.539E+01eV Rs_int= 1.605
# FMS rfms= 9.0000
# # PATH  Rmax=-1.000,  Keep_limit= 0.00, Heap_limit 0.00  Pwcrit= 2.50%
#  S02=0.950  Temp=   0.00  Debye_temp=   0.00  Global_sig2= 0.00000
#  Energy zero shift, vr, vi    0.00000E+00   0.00000E+00
#  Curved wave amplitude ratio filter   4.000%
#     file         sig2 tot  cw amp ratio   deg  nlegs   reff  inp sig2
#     0/   0 paths used
#  xsedge+ 50, used to normalize mu           2.4603E-04
#  -----------------------------------------------------------------------
#  omega    e    k    mu    mu0     chi     @#
    8983.371    -10.733  -1.000  3.71021E-02  5.26876E-02 -1.55855E-02
    8983.670    -10.434  -0.960  3.89698E-02  5.64802E-02 -1.75104E-02
    8983.956    -10.147  -0.920  4.09657E-02  6.06914E-02 -1.97256E-02
    8984.231     -9.873  -0.880  4.31015E-02  6.53825E-02 -2.22810E-02
    8984.493     -9.611  -0.840  4.53902E-02  7.06250E-02 -2.52349E-02
    8984.743     -9.361  -0.800  4.78462E-02  7.65015E-02 -2.86553E-02
    8984.981     -9.123  -0.760  5.04853E-02  8.31067E-02 -3.26214E-02
    8985.206     -8.898  -0.720  5.33247E-02  9.05478E-02 -3.72231E-02
    8985.419     -8.684  -0.680  5.63820E-02  9.89424E-02 -4.25604E-02
    8985.621     -8.483  -0.640  5.96750E-02  1.08415E-01 -4.87401E-02
    8985.810     -8.294  -0.600  6.32190E-02  1.19087E-01 -5.58685E-02
    8985.986     -8.118  -0.560  6.70244E-02  1.31064E-01 -6.40394E-02
    8986.151     -7.953  -0.520  7.10916E-02  1.44406E-01 -7.33139E-02
    8986.303     -7.801  -0.480  7.54047E-02  1.59098E-01 -8.36937E-02
    8986.444     -7.660  -0.440  7.99243E-02  1.75014E-01 -9.50892E-02
    8986.572     -7.532  -0.400  8.45816E-02  1.91875E-01 -1.07293E-01
    8986.687     -7.416  -0.360  8.92766E-02  2.09249E-01 -1.19972E-01
    8986.791     -7.313  -0.320  9.38845E-02  2.26572E-01 -1.32687E-01
    8986.883     -7.221  -0.280  9.82682E-02  2.43218E-01 -1.44949E-01
    8986.962     -7.142  -0.240  1.02296E-01  2.58585E-01 -1.56289E-01
    8987.029     -7.075  -0.200  1.05855E-01  2.72168E-01 -1.66313E-01
    8987.084     -7.020  -0.160  1.08861E-01  2.83596E-01 -1.74736E-01
    8987.126     -6.978  -0.120  1.11252E-01  2.92632E-01 -1.81380E-01
    8987.157     -6.947  -0.080  1.12992E-01  2.99144E-01 -1.86152E-01
    8987.181     -6.923   0.000  1.14416E-01  3.04376E-01 -1.89960E-01
    8987.236     -6.868   0.120  1.17620E-01  3.16164E-01 -1.98544E-01
    8987.279     -6.825   0.160  1.20106E-01  3.25354E-01 -2.05248E-01
    8987.334     -6.770   0.200  1.23277E-01  3.37068E-01 -2.13792E-01
    8987.401     -6.703   0.240  1.27133E-01  3.51174E-01 -2.24041E-01
    8987.480     -6.624   0.280  1.31650E-01  3.67375E-01 -2.35724E-01
    8987.571     -6.533   0.320  1.36874E-01  3.85310E-01 -2.48436E-01
    8987.675     -6.429   0.360  1.42742E-01  4.04416E-01 -2.61674E-01
    8987.791     -6.313   0.400  1.49357E-01  4.24178E-01 -2.74821E-01
    8987.919     -6.185   0.440  1.56866E-01  4.44090E-01 -2.87223E-01
    8988.059     -6.045   0.480  1.65501E-01  4.63771E-01 -2.98270E-01
    8988.211     -5.892   0.520  1.75618E-01  4.82982E-01 -3.07363E-01
    8988.376     -5.728   0.560  1.87553E-01  5.01592E-01 -3.14039E-01
    8988.553     -5.551   0.600  2.01696E-01  5.19570E-01 -3.17874E-01
    8988.742     -5.362   0.640  2.18535E-01  5.36947E-01 -3.18412E-01
    8988.943     -5.161   0.680  2.38884E-01  5.53833E-01 -3.14948E-01
    8989.156     -4.948   0.720  2.63747E-01  5.70265E-01 -3.06518E-01
    8989.382     -4.722   0.760  2.94169E-01  5.86363E-01 -2.92193E-01
    8989.620     -4.484   0.800  3.29965E-01  6.02196E-01 -2.72231E-01
    8989.870     -4.234   0.840  3.68567E-01  6.17779E-01 -2.49212E-01
    8990.132     -3.972   0.880  4.05982E-01  6.33218E-01 -2.27236E-01
    8990.406     -3.698   0.920  4.39673E-01  6.48482E-01 -2.08810E-01
    8990.693     -3.411   0.960  4.70181E-01  6.63653E-01 -1.93472E-01
    8990.991     -3.113   1.000  4.98528E-01  6.78677E-01 -1.80148E-01
    8991.302     -2.802   1.040  5.24727E-01  6.93595E-01 -1.68869E-01
    8991.625     -2.479   1.080  5.48342E-01  7.08382E-01 -1.60040E-01
    8991.960     -2.143   1.120  5.68846E-01  7.23004E-01 -1.54158E-01
    8992.308     -1.796   1.160  5.85502E-01  7.37485E-01 -1.51983E-01
    8992.668     -1.436   1.200  5.98220E-01  7.51763E-01 -1.53543E-01
    8993.039     -1.064   1.240  6.08179E-01  7.65814E-01 -1.57636E-01
    8993.424     -0.680   1.280  6.15901E-01  7.79653E-01 -1.63751E-01
    8993.820     -0.284   1.320  6.23753E-01  7.93191E-01 -1.69438E-01
    8994.228      0.124   1.360  6.39435E-01  8.06460E-01 -1.67025E-01
    8994.649      0.545   1.400  6.66738E-01  8.19391E-01 -1.52653E-01
    8995.082      0.978   1.440  6.98889E-01  8.31953E-01 -1.33064E-01
    8995.527      1.423   1.480  7.27257E-01  8.44159E-01 -1.16902E-01
    8995.984      1.880   1.520  7.53327E-01  8.55957E-01 -1.02630E-01
    8996.453      2.349   1.560  7.85642E-01  8.67322E-01 -8.16801E-02
    8996.935      2.831   1.600  8.28053E-01  8.78265E-01 -5.02120E-02
    8997.429      3.325   1.640  8.80192E-01  8.88742E-01 -8.55007E-03
    8997.935      3.831   1.680  9.42486E-01  8.98745E-01  4.37410E-02
    8998.453      4.349   1.720  1.01038E+00  9.08273E-01  1.02112E-01
    8998.983      4.879   1.760  1.07544E+00  9.17302E-01  1.58137E-01
    8999.526      5.422   1.800  1.13107E+00  9.25852E-01  2.05213E-01
    9000.080      5.976   1.840  1.16927E+00  9.33904E-01  2.35370E-01
    9000.647      6.543   1.880  1.18349E+00  9.41477E-01  2.42008E-01
    9001.226      7.122   1.920  1.18282E+00  9.48555E-01  2.34264E-01
    9001.818      7.714   1.960  1.18567E+00  9.55140E-01  2.30526E-01
    9002.421      8.317   2.000  1.19606E+00  9.61257E-01  2.34806E-01
    9003.037      8.933   2.040  1.20231E+00  9.66914E-01  2.35398E-01
    9003.665      9.561   2.080  1.20106E+00  9.72114E-01  2.28950E-01
    9004.305     10.201   2.120  1.19855E+00  9.76866E-01  2.21681E-01
    9004.957     10.853   2.160  1.19840E+00  9.81197E-01  2.17207E-01
    9005.622     11.518   2.200  1.19940E+00  9.85115E-01  2.14286E-01
    9006.298     12.194   2.240  1.20010E+00  9.88650E-01  2.11450E-01
    9006.987     12.883   2.280  1.20063E+00  9.91790E-01  2.08839E-01
    9007.688     13.584   2.320  1.19899E+00  9.94585E-01  2.04403E-01
    9008.401     14.297   2.360  1.19087E+00  9.97044E-01  1.93824E-01
    9009.127     15.023   2.400  1.17359E+00  9.99158E-01  1.74433E-01
    9009.864     15.760   2.440  1.15019E+00  1.00100E+00  1.49192E-01
    9010.614     16.510   2.480  1.12637E+00  1.00255E+00  1.23827E-01
    9011.376     17.272   2.520  1.10647E+00  1.00383E+00  1.02646E-01
    9012.150     18.046   2.560  1.09167E+00  1.00488E+00  8.67980E-02
    9012.937     18.833   2.600  1.07811E+00  1.00569E+00  7.24184E-02
    9013.735     19.631   2.640  1.05899E+00  1.00629E+00  5.27000E-02
    9014.546     20.442   2.680  1.03399E+00  1.00670E+00  2.72954E-02
    9015.369     21.265   2.720  1.01056E+00  1.00696E+00  3.59894E-03
    9016.204     22.100   2.760  9.89453E-01  1.00703E+00 -1.75772E-02
    9017.052     22.948   2.800  9.70763E-01  1.00697E+00 -3.62087E-02
    9017.911     23.807   2.840  9.54768E-01  1.00679E+00 -5.20207E-02
    9018.783     24.679   2.880  9.41597E-01  1.00651E+00 -6.49124E-02
    9019.667     25.563   2.920  9.30486E-01  1.00612E+00 -7.56307E-02
    9020.563     26.459   2.960  9.20540E-01  1.00564E+00 -8.50996E-02
    9021.471     27.367   3.000  9.10807E-01  1.00508E+00 -9.42770E-02
    9022.392     28.288   3.040  9.00858E-01  1.00448E+00 -1.03621E-01
    9023.324     29.220   3.080  8.90992E-01  1.00383E+00 -1.12836E-01
    9024.269     30.165   3.120  8.81899E-01  1.00314E+00 -1.21238E-01
    9025.226     31.122   3.160  8.74292E-01  1.00243E+00 -1.28139E-01
    9026.195     32.092   3.200  8.68716E-01  1.00169E+00 -1.32977E-01
    9027.177     33.073   3.240  8.65684E-01  1.00093E+00 -1.35242E-01
    9028.171     34.067   3.280  8.65077E-01  1.00018E+00 -1.35103E-01
    9029.176     35.072   3.320  8.66709E-01  9.99434E-01 -1.32725E-01
    9030.194     36.090   3.360  8.70260E-01  9.98692E-01 -1.28432E-01
    9031.225     37.121   3.400  8.75339E-01  9.97977E-01 -1.22638E-01
    9032.267     38.163   3.440  8.81478E-01  9.97273E-01 -1.15795E-01
    9033.322     39.218   3.480  8.88524E-01  9.96600E-01 -1.08076E-01
    9034.388     40.285   3.520  8.96631E-01  9.95942E-01 -9.93103E-02
    9035.467     41.363   3.560  9.05968E-01  9.95342E-01 -8.93734E-02
    9036.559     42.455   3.600  9.16688E-01  9.94780E-01 -7.80920E-02
    9037.662     43.558   3.640  9.28709E-01  9.94237E-01 -6.55285E-02
    9038.778     44.674   3.680  9.41776E-01  9.93758E-01 -5.19816E-02
    9039.905     45.801   3.720  9.55524E-01  9.93319E-01 -3.77958E-02
    9041.045     46.941   3.760  9.69737E-01  9.92924E-01 -2.31868E-02
    9042.197     48.093   3.800  9.84200E-01  9.92574E-01 -8.37388E-03
    9043.362     49.258   3.840  9.98613E-01  9.92289E-01  6.32428E-03
    9044.538     50.434   3.880  1.01261E+00  9.92047E-01  2.05631E-02
    9045.727     51.623   3.920  1.02582E+00  9.91849E-01  3.39691E-02
    9046.928     52.824   3.960  1.03777E+00  9.91697E-01  4.60723E-02
    9048.141     54.037   4.000  1.04821E+00  9.91609E-01  5.66003E-02
    9049.366     55.262   4.040  1.05708E+00  9.91565E-01  6.55186E-02
    9050.604     56.500   4.080  1.06458E+00  9.91564E-01  7.30143E-02
    9051.853     57.749   4.120  1.07106E+00  9.91604E-01  7.94526E-02
    9053.115     59.011   4.160  1.07694E+00  9.91686E-01  8.52546E-02
    9054.389     60.285   4.200  1.08245E+00  9.91809E-01  9.06400E-02
    9055.676     61.572   4.240  1.08751E+00  9.91995E-01  9.55129E-02
    9056.974     62.870   4.280  1.09177E+00  9.92199E-01  9.95750E-02
    9058.285     64.181   4.320  1.09471E+00  9.92463E-01  1.02244E-01
    9059.607     65.504   4.360  1.09554E+00  9.92742E-01  1.02798E-01
    9060.943     66.839   4.400  1.09370E+00  9.93054E-01  1.00648E-01
    9062.290     68.186   4.440  1.08891E+00  9.93381E-01  9.55321E-02
    9063.649     69.545   4.480  1.08123E+00  9.93763E-01  8.74709E-02
    9065.021     70.917   4.520  1.07083E+00  9.94155E-01  7.66701E-02
    9066.405     72.301   4.560  1.05806E+00  9.94554E-01  6.35046E-02
    9067.800     73.697   4.600  1.04343E+00  9.94983E-01  4.84483E-02
    9069.209     75.105   4.640  1.02768E+00  9.95420E-01  3.22558E-02
    9070.629     76.525   4.680  1.01181E+00  9.95884E-01  1.59252E-02
    9072.062     77.958   4.720  9.96880E-01  9.96351E-01  5.29153E-04
    9073.506     79.402   4.760  9.83852E-01  9.96819E-01 -1.29674E-02
    9074.963     80.859   4.800  9.73351E-01  9.97287E-01 -2.39359E-02
    9076.432     82.328   4.840  9.65627E-01  9.97754E-01 -3.21268E-02
    9077.914     83.810   4.880  9.60674E-01  9.98218E-01 -3.75439E-02
    9079.407     85.303   4.920  9.58351E-01  9.98655E-01 -4.03041E-02
    9080.913     86.809   4.960  9.58515E-01  9.99109E-01 -4.05937E-02
    9082.431     88.327   5.000  9.60784E-01  9.99536E-01 -3.87526E-02
    9083.961     89.857   5.040  9.64519E-01  9.99955E-01 -3.54367E-02
    9085.503     91.399   5.080  9.68824E-01  1.00034E+00 -3.15198E-02
    9087.058     92.954   5.120  9.72786E-01  1.00072E+00 -2.79377E-02
    9088.624     94.520   5.160  9.75629E-01  1.00109E+00 -2.54656E-02
    9090.203     96.099   5.200  9.76881E-01  1.00143E+00 -2.45494E-02
    9091.794     97.690   5.240  9.76450E-01  1.00173E+00 -2.52796E-02
    9093.397     99.294   5.280  9.74648E-01  1.00199E+00 -2.73452E-02
    9095.013    100.909   5.320  9.72125E-01  1.00224E+00 -3.01178E-02
    9096.641    102.537   5.360  9.69663E-01  1.00246E+00 -3.27927E-02
    9098.280    104.176   5.400  9.67998E-01  1.00263E+00 -3.46323E-02
    9099.932    105.828   5.440  9.67625E-01  1.00276E+00 -3.51395E-02
    9101.597    107.493   5.480  9.68674E-01  1.00286E+00 -3.41875E-02
    9103.273    109.169   5.520  9.70971E-01  1.00294E+00 -3.19708E-02
    9104.962    110.858   5.560  9.74014E-01  1.00296E+00 -2.89473E-02
    9106.662    112.558   5.600  9.77284E-01  1.00296E+00 -2.56799E-02
    9108.375    114.271   5.640  9.80255E-01  1.00293E+00 -2.26743E-02
    9110.100    115.997   5.680  9.82642E-01  1.00285E+00 -2.02104E-02
    9111.838    117.734   5.720  9.84364E-01  1.00271E+00 -1.83480E-02
    9113.587    119.483   5.760  9.85553E-01  1.00256E+00 -1.70042E-02
    9115.349    121.245   5.800  9.86313E-01  1.00237E+00 -1.60528E-02
    9117.123    123.019   5.840  9.86784E-01  1.00214E+00 -1.53535E-02
    9118.909    124.805   5.880  9.87087E-01  1.00190E+00 -1.48109E-02
    9120.707    126.604   5.920  9.87222E-01  1.00160E+00 -1.43778E-02
    9122.518    128.414   5.960  9.87327E-01  1.00129E+00 -1.39622E-02
    9124.341    130.237   6.000  9.87715E-01  1.00089E+00 -1.31779E-02
