# # comment:                                                     FEFF 9.9.1  
# # Source:
# # Structure
# # Reduced
# # space
# # abc:
# # angles:
# # sites:
# # POT  SCF 100  7.0000   0, screened core-hole, AFOLP (folp(0)= 1.150)
# # Abs   Z=29 Rmt= 1.299 Rnm= 1.356 K  shell
# # Pot 1 Z=92 Rmt= 1.349 Rnm= 1.549
# # Pot 2 Z=29 Rmt= 1.299 Rnm= 1.356
# # Pot 3 Z=16 Rmt= 0.888 Rnm= 1.100
# # Pot 4 Z= 8 Rmt= 0.827 Rnm= 1.014
# # Gam_ch=1.729E+00 H-L exch Vi= 0.000E+00 Vr= 0.000E+00
# # Mu=-5.060E+00eV kf=2.599E+00 Vint=-1.695E+01eV Rs_int= 1.396
# FMS rfms= 9.0000
# # PATH  Rmax=-1.000,  Keep_limit= 0.00, Heap_limit 0.00  Pwcrit= 2.50%
#  S02=0.950  Temp=   0.00  Debye_temp=   0.00  Global_sig2= 0.00000
#  Energy zero shift, vr, vi    0.00000E+00   0.00000E+00
#  Curved wave amplitude ratio filter   4.000%
#     file         sig2 tot  cw amp ratio   deg  nlegs   reff  inp sig2
#     0/   0 paths used
#  xsedge+ 50, used to normalize mu           2.4852E-04
#  -----------------------------------------------------------------------
#  omega    e    k    mu    mu0     chi     @#
    8983.279     -8.870  -1.000  4.28196E-02  5.56875E-02 -1.28679E-02
    8983.577     -8.571  -0.960  4.51255E-02  5.98407E-02 -1.47152E-02
    8983.864     -8.285  -0.920  4.76018E-02  6.44679E-02 -1.68661E-02
    8984.138     -8.011  -0.880  5.02656E-02  6.96403E-02 -1.93747E-02
    8984.400     -7.749  -0.840  5.31357E-02  7.54406E-02 -2.23049E-02
    8984.650     -7.499  -0.800  5.62334E-02  8.19652E-02 -2.57319E-02
    8984.888     -7.261  -0.760  5.95821E-02  8.93249E-02 -2.97428E-02
    8985.114     -7.035  -0.720  6.32073E-02  9.76448E-02 -3.44376E-02
    8985.327     -6.822  -0.680  6.71356E-02  1.07063E-01 -3.99278E-02
    8985.528     -6.621  -0.640  7.13937E-02  1.17727E-01 -4.63331E-02
    8985.717     -6.432  -0.600  7.60059E-02  1.29779E-01 -5.37732E-02
    8985.894     -6.255  -0.560  8.09894E-02  1.43344E-01 -6.23545E-02
    8986.058     -6.090  -0.520  8.63485E-02  1.58496E-01 -7.21471E-02
    8986.211     -5.938  -0.480  9.20659E-02  1.75220E-01 -8.31543E-02
    8986.351     -5.798  -0.440  9.80929E-02  1.93370E-01 -9.52770E-02
    8986.479     -5.670  -0.400  1.04342E-01  2.12625E-01 -1.08283E-01
    8986.595     -5.554  -0.360  1.10681E-01  2.32482E-01 -1.21800E-01
    8986.699     -5.450  -0.320  1.16946E-01  2.52285E-01 -1.35339E-01
    8986.790     -5.359  -0.280  1.22951E-01  2.71310E-01 -1.48359E-01
    8986.869     -5.280  -0.240  1.28511E-01  2.88860E-01 -1.60349E-01
    8986.936     -5.213  -0.200  1.33464E-01  3.04356E-01 -1.70892E-01
    8986.991     -5.158  -0.160  1.37677E-01  3.17379E-01 -1.79702E-01
    8987.034     -5.115  -0.120  1.41052E-01  3.27663E-01 -1.86611E-01
    8987.064     -5.085  -0.080  1.43520E-01  3.35065E-01 -1.91545E-01
    8987.089     -5.060   0.000  1.45554E-01  3.41008E-01 -1.95453E-01
    8987.144     -5.005   0.120  1.50148E-01  3.54385E-01 -2.04237E-01
    8987.186     -4.963   0.160  1.53707E-01  3.64761E-01 -2.11054E-01
    8987.241     -4.908   0.200  1.58332E-01  3.78011E-01 -2.19679E-01
    8987.308     -4.841   0.240  1.63991E-01  3.93870E-01 -2.29879E-01
    8987.387     -4.761   0.280  1.70732E-01  4.12028E-01 -2.41296E-01
    8987.479     -4.670   0.320  1.78556E-01  4.31980E-01 -2.53425E-01
    8987.582     -4.566   0.360  1.87417E-01  4.53064E-01 -2.65647E-01
    8987.698     -4.451   0.400  1.97378E-01  4.74661E-01 -2.77282E-01
    8987.826     -4.323   0.440  2.08410E-01  4.96110E-01 -2.87699E-01
    8987.967     -4.182   0.480  2.20629E-01  5.16989E-01 -2.96360E-01
    8988.119     -4.030   0.520  2.34084E-01  5.36966E-01 -3.02882E-01
    8988.284     -3.865   0.560  2.48964E-01  5.55926E-01 -3.06962E-01
    8988.460     -3.689   0.600  2.65435E-01  5.73817E-01 -3.08382E-01
    8988.649     -3.500   0.640  2.83839E-01  5.90729E-01 -3.06890E-01
    8988.850     -3.298   0.680  3.04480E-01  6.06735E-01 -3.02255E-01
    8989.064     -3.085   0.720  3.27732E-01  6.21985E-01 -2.94253E-01
    8989.289     -2.860   0.760  3.53924E-01  6.36587E-01 -2.82663E-01
    8989.527     -2.622   0.800  3.83531E-01  6.50621E-01 -2.67090E-01
    8989.777     -2.372   0.840  4.17300E-01  6.64212E-01 -2.46912E-01
    8990.039     -2.110   0.880  4.55402E-01  6.77450E-01 -2.22048E-01
    8990.313     -1.835   0.920  4.95428E-01  6.90350E-01 -1.94922E-01
    8990.600     -1.549   0.960  5.32301E-01  7.02976E-01 -1.70675E-01
    8990.899     -1.250   1.000  5.61506E-01  7.15397E-01 -1.53891E-01
    8991.210     -0.939   1.040  5.82785E-01  7.27592E-01 -1.44807E-01
    8991.533     -0.616   1.080  5.99585E-01  7.39614E-01 -1.40029E-01
    8991.868     -0.281   1.120  6.15388E-01  7.51469E-01 -1.36080E-01
    8992.215      0.067   1.160  6.32734E-01  7.63131E-01 -1.30397E-01
    8992.575      0.426   1.200  6.53282E-01  7.74615E-01 -1.21333E-01
    8992.947      0.798   1.240  6.78780E-01  7.85933E-01 -1.07153E-01
    8993.331      1.182   1.280  7.15050E-01  7.97070E-01 -8.20201E-02
    8993.727      1.578   1.320  7.72042E-01  8.08008E-01 -3.59656E-02
    8994.136      1.987   1.360  8.55928E-01  8.18730E-01  3.71980E-02
    8994.556      2.407   1.400  9.59571E-01  8.29234E-01  1.30336E-01
    8994.989      2.840   1.440  1.05749E+00  8.39500E-01  2.17989E-01
    8995.434      3.285   1.480  1.11851E+00  8.49526E-01  2.68986E-01
    8995.891      3.742   1.520  1.13832E+00  8.59268E-01  2.79049E-01
    8996.361      4.212   1.560  1.14013E+00  8.68763E-01  2.71370E-01
    8996.842      4.693   1.600  1.14611E+00  8.77949E-01  2.68164E-01
    8997.336      5.187   1.640  1.17004E+00  8.86842E-01  2.83203E-01
    8997.842      5.693   1.680  1.21874E+00  8.95418E-01  3.23320E-01
    8998.360      6.211   1.720  1.29158E+00  9.03675E-01  3.87907E-01
    8998.891      6.742   1.760  1.37779E+00  9.11611E-01  4.66177E-01
    8999.433      7.284   1.800  1.45648E+00  9.19203E-01  5.37274E-01
    8999.988      7.839   1.840  1.50405E+00  9.26449E-01  5.77605E-01
    9000.555      8.406   1.880  1.50578E+00  9.33349E-01  5.72431E-01
    9001.134      8.985   1.920  1.45991E+00  9.39903E-01  5.20004E-01
    9001.725      9.576   1.960  1.37610E+00  9.46092E-01  4.30008E-01
    9002.329     10.180   2.000  1.27583E+00  9.51955E-01  3.23877E-01
    9002.944     10.795   2.040  1.18016E+00  9.57454E-01  2.22705E-01
    9003.572     11.423   2.080  1.09952E+00  9.62612E-01  1.36907E-01
    9004.212     12.063   2.120  1.03843E+00  9.67411E-01  7.10200E-02
    9004.865     12.716   2.160  1.00079E+00  9.71894E-01  2.88967E-02
    9005.529     13.380   2.200  9.87342E-01  9.76045E-01  1.12963E-02
    9006.206     14.057   2.240  9.96806E-01  9.79849E-01  1.69576E-02
    9006.895     14.746   2.280  1.02958E+00  9.83369E-01  4.62140E-02
    9007.596     15.447   2.320  1.08073E+00  9.86570E-01  9.41598E-02
    9008.309     16.160   2.360  1.13228E+00  9.89456E-01  1.42820E-01
    9009.034     16.885   2.400  1.16172E+00  9.92075E-01  1.69647E-01
    9009.772     17.623   2.440  1.15863E+00  9.94414E-01  1.64214E-01
    9010.522     18.373   2.480  1.12563E+00  9.96495E-01  1.29135E-01
    9011.284     19.135   2.520  1.07240E+00  9.98327E-01  7.40741E-02
    9012.058     19.909   2.560  1.01065E+00  9.99894E-01  1.07517E-02
    9012.844     20.695   2.600  9.47286E-01  1.00126E+00 -5.39785E-02
    9013.643     21.494   2.640  8.85414E-01  1.00240E+00 -1.16990E-01
    9014.454     22.305   2.680  8.32835E-01  1.00334E+00 -1.70501E-01
    9015.276     23.128   2.720  7.96732E-01  1.00407E+00 -2.07339E-01
    9016.112     23.963   2.760  7.75388E-01  1.00463E+00 -2.29246E-01
    9016.959     24.810   2.800  7.64062E-01  1.00505E+00 -2.40990E-01
    9017.819     25.670   2.840  7.59873E-01  1.00529E+00 -2.45418E-01
    9018.690     26.541   2.880  7.59111E-01  1.00540E+00 -2.46286E-01
    9019.574     27.425   2.920  7.58380E-01  1.00537E+00 -2.46994E-01
    9020.470     28.321   2.960  7.63276E-01  1.00523E+00 -2.41953E-01
    9021.379     29.230   3.000  7.88789E-01  1.00497E+00 -2.16179E-01
    9022.299     30.150   3.040  8.21800E-01  1.00462E+00 -1.82817E-01
    9023.232     31.083   3.080  8.54157E-01  1.00418E+00 -1.50024E-01
    9024.177     32.028   3.120  8.81180E-01  1.00367E+00 -1.22486E-01
    9025.134     32.985   3.160  9.02709E-01  1.00310E+00 -1.00387E-01
    9026.103     33.954   3.200  9.20644E-01  1.00246E+00 -8.18116E-02
    9027.084     34.936   3.240  9.37013E-01  1.00177E+00 -6.47553E-02
    9028.078     35.929   3.280  9.52973E-01  1.00104E+00 -4.80674E-02
    9029.084     36.935   3.320  9.68815E-01  1.00030E+00 -3.14808E-02
    9030.102     37.953   3.360  9.84486E-01  9.99495E-01 -1.50084E-02
    9031.132     38.983   3.400  9.99737E-01  9.98705E-01  1.03279E-03
    9032.175     40.026   3.440  1.01415E+00  9.97887E-01  1.62616E-02
    9033.229     41.080   3.480  1.02728E+00  9.97065E-01  3.02105E-02
    9034.296     42.147   3.520  1.03841E+00  9.96242E-01  4.21718E-02
    9035.375     43.226   3.560  1.04689E+00  9.95420E-01  5.14710E-02
    9036.466     44.317   3.600  1.05257E+00  9.94624E-01  5.79472E-02
    9037.569     45.421   3.640  1.05566E+00  9.93834E-01  6.18222E-02
    9038.685     46.536   3.680  1.05646E+00  9.93051E-01  6.34103E-02
    9039.813     47.664   3.720  1.05530E+00  9.92300E-01  6.30033E-02
    9040.953     48.804   3.760  1.05241E+00  9.91583E-01  6.08226E-02
    9042.105     49.956   3.800  1.04808E+00  9.90902E-01  5.71776E-02
    9043.269     51.120   3.840  1.04291E+00  9.90256E-01  5.26533E-02
    9044.446     52.297   3.880  1.03771E+00  9.89624E-01  4.80818E-02
    9045.634     53.486   3.920  1.03333E+00  9.89030E-01  4.43006E-02
    9046.835     54.686   3.960  1.03041E+00  9.88497E-01  4.19151E-02
    9048.048     55.900   4.000  1.02912E+00  9.87983E-01  4.11401E-02
    9049.274     57.125   4.040  1.02930E+00  9.87528E-01  4.17719E-02
    9050.511     58.362   4.080  1.03049E+00  9.87093E-01  4.33947E-02
    9051.761     59.612   4.120  1.03237E+00  9.86718E-01  4.56563E-02
    9053.023     60.874   4.160  1.03475E+00  9.86363E-01  4.83897E-02
    9054.297     62.148   4.200  1.03748E+00  9.86070E-01  5.14093E-02
    9055.583     63.434   4.240  1.04015E+00  9.85819E-01  5.43317E-02
    9056.882     64.733   4.280  1.04217E+00  9.85608E-01  5.65608E-02
    9058.192     66.043   4.320  1.04283E+00  9.85437E-01  5.73911E-02
    9059.515     67.366   4.360  1.04153E+00  9.85305E-01  5.62201E-02
    9060.850     68.701   4.400  1.03798E+00  9.85212E-01  5.27663E-02
    9062.197     70.048   4.440  1.03225E+00  9.85159E-01  4.70930E-02
    9063.557     71.408   4.480  1.02463E+00  9.85143E-01  3.94917E-02
    9064.928     72.779   4.520  1.01557E+00  9.85164E-01  3.04024E-02
    9066.312     74.163   4.560  1.00550E+00  9.85199E-01  2.03047E-02
    9067.708     75.559   4.600  9.94869E-01  9.85291E-01  9.57774E-03
    9069.116     76.967   4.640  9.83921E-01  9.85397E-01 -1.47557E-03
    9070.537     78.388   4.680  9.72961E-01  9.85535E-01 -1.25736E-02
    9071.969     79.820   4.720  9.62327E-01  9.85684E-01 -2.33565E-02
    9073.414     81.265   4.760  9.52585E-01  9.85865E-01 -3.32796E-02
    9074.871     82.722   4.800  9.44342E-01  9.86078E-01 -4.17359E-02
    9076.340     84.191   4.840  9.38076E-01  9.86299E-01 -4.82227E-02
    9077.821     85.672   4.880  9.34086E-01  9.86546E-01 -5.24603E-02
    9079.315     87.166   4.920  9.32283E-01  9.86776E-01 -5.44930E-02
    9080.820     88.672   4.960  9.32432E-01  9.87032E-01 -5.46000E-02
    9082.338     90.189   5.000  9.34107E-01  9.87292E-01 -5.31849E-02
    9083.868     91.720   5.040  9.36828E-01  9.87575E-01 -5.07476E-02
    9085.411     93.262   5.080  9.40089E-01  9.87839E-01 -4.77502E-02
    9086.965     94.816   5.120  9.43535E-01  9.88123E-01 -4.45878E-02
    9088.532     96.383   5.160  9.46889E-01  9.88383E-01 -4.14932E-02
    9090.111     97.962   5.200  9.50193E-01  9.88637E-01 -3.84437E-02
    9091.702     99.553   5.240  9.53670E-01  9.88890E-01 -3.52197E-02
    9093.305    101.156   5.280  9.57631E-01  9.89139E-01 -3.15088E-02
    9094.920    102.772   5.320  9.62232E-01  9.89383E-01 -2.71508E-02
    9096.548    104.399   5.360  9.67331E-01  9.89597E-01 -2.22667E-02
    9098.188    106.039   5.400  9.72528E-01  9.89802E-01 -1.72735E-02
    9099.840    107.691   5.440  9.77288E-01  9.89974E-01 -1.26855E-02
    9101.504    109.355   5.480  9.81209E-01  9.90114E-01 -8.90558E-03
    9103.180    111.032   5.520  9.84191E-01  9.90266E-01 -6.07495E-03
    9104.869    112.720   5.560  9.86329E-01  9.90364E-01 -4.03505E-03
    9106.570    114.421   5.600  9.88068E-01  9.90449E-01 -2.38128E-03
    9108.283    116.134   5.640  9.89899E-01  9.90501E-01 -6.02135E-04
    9110.008    117.859   5.680  9.92298E-01  9.90542E-01  1.75573E-03
    9111.745    119.596   5.720  9.95498E-01  9.90548E-01  4.95033E-03
    9113.495    121.346   5.760  9.99487E-01  9.90519E-01  8.96778E-03
    9115.257    123.108   5.800  1.00400E+00  9.90477E-01  1.35201E-02
    9117.031    124.882   5.840  1.00849E+00  9.90376E-01  1.81166E-02
    9118.817    126.668   5.880  1.01244E+00  9.90262E-01  2.21794E-02
    9120.615    128.466   5.920  1.01532E+00  9.90114E-01  2.52030E-02
    9122.425    130.277   5.960  1.01681E+00  9.89930E-01  2.68801E-02
    9124.248    132.099   6.000  1.01689E+00  9.89720E-01  2.71739E-02
