# # comment:                                                     FEFF 9.9.1  
# # Source:
# # Structure
# # Reduced
# # space
# # abc:
# # angles:
# # sites:
# # POT  SCF 100  7.0000   0, screened core-hole, AFOLP (folp(0)= 1.150)
# # Abs   Z=29 Rmt= 1.229 Rnm= 1.315 K  shell
# # Pot 1 Z= 3 Rmt= 1.282 Rnm= 1.343
# # Pot 2 Z=29 Rmt= 1.276 Rnm= 1.346
# # Pot 3 Z=50 Rmt= 1.372 Rnm= 1.488
# # Pot 4 Z= 8 Rmt= 1.053 Rnm= 1.111
# # Gam_ch=1.729E+00 H-L exch Vi= 0.000E+00 Vr= 0.000E+00
# # Mu=-7.576E+00eV kf=2.082E+00 Vint=-1.568E+01eV Rs_int= 1.742
# FMS rfms= 9.0000
# # PATH  Rmax=-1.000,  Keep_limit= 0.00, Heap_limit 0.00  Pwcrit= 2.50%
#  S02=0.950  Temp=   0.00  Debye_temp=   0.00  Global_sig2= 0.00000
#  Energy zero shift, vr, vi    0.00000E+00   0.00000E+00
#  Curved wave amplitude ratio filter   4.000%
#     file         sig2 tot  cw amp ratio   deg  nlegs   reff  inp sig2
#     0/   0 paths used
#  xsedge+ 50, used to normalize mu           2.4408E-04
#  -----------------------------------------------------------------------
#  omega    e    k    mu    mu0     chi     @#
    8983.902    -11.386  -1.000  3.66502E-02  5.59780E-02 -1.93279E-02
    8984.201    -11.087  -0.960  3.83545E-02  6.00675E-02 -2.17130E-02
    8984.487    -10.801  -0.920  4.01586E-02  6.46114E-02 -2.44527E-02
    8984.761    -10.526  -0.880  4.20702E-02  6.96763E-02 -2.76061E-02
    8985.024    -10.264  -0.840  4.40977E-02  7.53398E-02 -3.12421E-02
    8985.273    -10.014  -0.800  4.62506E-02  8.16917E-02 -3.54411E-02
    8985.511     -9.776  -0.760  4.85394E-02  8.88350E-02 -4.02956E-02
    8985.737     -9.551  -0.720  5.09754E-02  9.68859E-02 -4.59105E-02
    8985.950     -9.338  -0.680  5.35707E-02  1.05972E-01 -5.24018E-02
    8986.151     -9.136  -0.640  5.63371E-02  1.16229E-01 -5.98924E-02
    8986.340     -8.947  -0.600  5.92851E-02  1.27790E-01 -6.85044E-02
    8986.517     -8.771  -0.560  6.24211E-02  1.40766E-01 -7.83444E-02
    8986.682     -8.606  -0.520  6.57435E-02  1.55224E-01 -8.94808E-02
    8986.834     -8.454  -0.480  6.92377E-02  1.71151E-01 -1.01913E-01
    8986.974     -8.313  -0.440  7.28695E-02  1.88405E-01 -1.15535E-01
    8987.102     -8.185  -0.400  7.65809E-02  2.06687E-01 -1.30106E-01
    8987.218     -8.070  -0.360  8.02887E-02  2.25528E-01 -1.45239E-01
    8987.322     -7.966  -0.320  8.38911E-02  2.44315E-01 -1.60424E-01
    8987.413     -7.875  -0.280  8.72795E-02  2.62370E-01 -1.75091E-01
    8987.492     -7.795  -0.240  9.03544E-02  2.79040E-01 -1.88685E-01
    8987.559     -7.728  -0.200  9.30371E-02  2.93776E-01 -2.00738E-01
    8987.614     -7.673  -0.160  9.52744E-02  3.06175E-01 -2.10901E-01
    8987.657     -7.631  -0.120  9.70353E-02  3.15980E-01 -2.18945E-01
    8987.687     -7.600  -0.080  9.83039E-02  3.23046E-01 -2.24742E-01
    8987.712     -7.576   0.000  9.93340E-02  3.28724E-01 -2.29390E-01
    8987.767     -7.521   0.120  1.01673E-01  3.41531E-01 -2.39858E-01
    8987.809     -7.478   0.160  1.03442E-01  3.51494E-01 -2.48052E-01
    8987.864     -7.423   0.200  1.05660E-01  3.64204E-01 -2.58544E-01
    8987.931     -7.356   0.240  1.08294E-01  3.79517E-01 -2.71223E-01
    8988.011     -7.277   0.280  1.11310E-01  3.97136E-01 -2.85826E-01
    8988.102     -7.186   0.320  1.14641E-01  4.16587E-01 -3.01946E-01
    8988.206     -7.082   0.360  1.18293E-01  4.37348E-01 -3.19055E-01
    8988.321     -6.966   0.400  1.22288E-01  4.58819E-01 -3.36531E-01
    8988.449     -6.838   0.440  1.26782E-01  4.80474E-01 -3.53691E-01
    8988.590     -6.698   0.480  1.31959E-01  5.01880E-01 -3.69921E-01
    8988.742     -6.546   0.520  1.38142E-01  5.22757E-01 -3.84615E-01
    8988.907     -6.381   0.560  1.45690E-01  5.42981E-01 -3.97291E-01
    8989.083     -6.204   0.600  1.55056E-01  5.62518E-01 -4.07462E-01
    8989.272     -6.015   0.640  1.66727E-01  5.81381E-01 -4.14654E-01
    8989.474     -5.814   0.680  1.81389E-01  5.99682E-01 -4.18293E-01
    8989.687     -5.601   0.720  1.99853E-01  6.17506E-01 -4.17653E-01
    8989.912     -5.375   0.760  2.23224E-01  6.34892E-01 -4.11668E-01
    8990.150     -5.137   0.800  2.53161E-01  6.51935E-01 -3.98774E-01
    8990.400     -4.887   0.840  2.91559E-01  6.68672E-01 -3.77113E-01
    8990.662     -4.625   0.880  3.39064E-01  6.85168E-01 -3.46103E-01
    8990.937     -4.351   0.920  3.92340E-01  7.01434E-01 -3.09093E-01
    8991.223     -4.065   0.960  4.44132E-01  7.17488E-01 -2.73355E-01
    8991.522     -3.766   1.000  4.88534E-01  7.33337E-01 -2.44803E-01
    8991.833     -3.455   1.040  5.24870E-01  7.48939E-01 -2.24070E-01
    8992.156     -3.132   1.080  5.56397E-01  7.64328E-01 -2.07931E-01
    8992.491     -2.797   1.120  5.87067E-01  7.79426E-01 -1.92359E-01
    8992.839     -2.449   1.160  6.17236E-01  7.94256E-01 -1.77020E-01
    8993.198     -2.089   1.200  6.41090E-01  8.08775E-01 -1.67685E-01
    8993.570     -1.718   1.240  6.51036E-01  8.22934E-01 -1.71898E-01
    8993.954     -1.334   1.280  6.48565E-01  8.36729E-01 -1.88164E-01
    8994.350     -0.937   1.320  6.46429E-01  8.50110E-01 -2.03680E-01
    8994.759     -0.529   1.360  6.54815E-01  8.63068E-01 -2.08253E-01
    8995.179     -0.108   1.400  6.74018E-01  8.75554E-01 -2.01536E-01
    8995.612      0.325   1.440  7.04203E-01  8.87541E-01 -1.83337E-01
    8996.057      0.770   1.480  7.47968E-01  8.99040E-01 -1.51072E-01
    8996.514      1.227   1.520  8.06529E-01  9.10004E-01 -1.03475E-01
    8996.984      1.696   1.560  8.76456E-01  9.20408E-01 -4.39520E-02
    8997.465      2.178   1.600  9.45944E-01  9.30269E-01  1.56748E-02
    8997.959      2.672   1.640  1.01006E+00  9.39565E-01  7.04963E-02
    8998.465      3.177   1.680  1.09102E+00  9.48295E-01  1.42720E-01
    8998.983      3.696   1.720  1.22011E+00  9.56438E-01  2.63669E-01
    8999.514      4.226   1.760  1.38655E+00  9.64019E-01  4.22536E-01
    9000.056      4.769   1.800  1.51980E+00  9.71040E-01  5.48755E-01
    9000.611      5.323   1.840  1.56609E+00  9.77485E-01  5.88602E-01
    9001.178      5.890   1.880  1.53908E+00  9.83405E-01  5.55674E-01
    9001.757      6.469   1.920  1.47838E+00  9.88784E-01  4.89600E-01
    9002.348      7.061   1.960  1.41273E+00  9.93651E-01  4.19083E-01
    9002.952      7.664   2.000  1.35508E+00  9.98018E-01  3.57065E-01
    9003.567      8.280   2.040  1.29957E+00  1.00191E+00  2.97654E-01
    9004.195      8.908   2.080  1.22690E+00  1.00535E+00  2.21554E-01
    9004.835      9.548   2.120  1.13807E+00  1.00833E+00  1.29736E-01
    9005.488     10.200   2.160  1.05597E+00  1.01090E+00  4.50727E-02
    9006.152     10.865   2.200  9.96444E-01  1.01309E+00 -1.66421E-02
    9006.829     11.541   2.240  9.60725E-01  1.01492E+00 -5.41938E-02
    9007.518     12.230   2.280  9.42448E-01  1.01639E+00 -7.39416E-02
    9008.219     12.931   2.320  9.37049E-01  1.01753E+00 -8.04845E-02
    9008.932     13.644   2.360  9.47029E-01  1.01838E+00 -7.13539E-02
    9009.657     14.370   2.400  9.77238E-01  1.01897E+00 -4.17299E-02
    9010.395     15.107   2.440  1.02803E+00  1.01928E+00  8.75302E-03
    9011.145     15.857   2.480  1.09191E+00  1.01940E+00  7.25169E-02
    9011.907     16.619   2.520  1.14440E+00  1.01928E+00  1.25117E-01
    9012.681     17.393   2.560  1.17107E+00  1.01899E+00  1.52081E-01
    9013.467     18.180   2.600  1.17865E+00  1.01851E+00  1.60144E-01
    9014.266     18.978   2.640  1.17278E+00  1.01791E+00  1.54869E-01
    9015.077     19.789   2.680  1.15692E+00  1.01717E+00  1.39749E-01
    9015.900     20.612   2.720  1.13274E+00  1.01633E+00  1.16410E-01
    9016.735     21.447   2.760  1.10202E+00  1.01540E+00  8.66164E-02
    9017.582     22.294   2.800  1.06559E+00  1.01437E+00  5.12261E-02
    9018.442     23.154   2.840  1.02528E+00  1.01330E+00  1.19784E-02
    9019.313     24.026   2.880  9.84345E-01  1.01217E+00 -2.78270E-02
    9020.197     24.910   2.920  9.45448E-01  1.01100E+00 -6.55510E-02
    9021.093     25.806   2.960  9.11294E-01  1.00981E+00 -9.85204E-02
    9022.002     26.714   3.000  8.83891E-01  1.00862E+00 -1.24732E-01
    9022.922     27.635   3.040  8.63803E-01  1.00741E+00 -1.43605E-01
    9023.855     28.567   3.080  8.50615E-01  1.00622E+00 -1.55602E-01
    9024.800     29.512   3.120  8.43511E-01  1.00506E+00 -1.61544E-01
    9025.757     30.469   3.160  8.41058E-01  1.00391E+00 -1.62847E-01
    9026.726     31.438   3.200  8.42215E-01  1.00279E+00 -1.60576E-01
    9027.708     32.420   3.240  8.46363E-01  1.00171E+00 -1.55352E-01
    9028.701     33.414   3.280  8.52995E-01  1.00068E+00 -1.47687E-01
    9029.707     34.419   3.320  8.61634E-01  9.99715E-01 -1.38080E-01
    9030.725     35.437   3.360  8.71619E-01  9.98774E-01 -1.27155E-01
    9031.755     36.468   3.400  8.82247E-01  9.97927E-01 -1.15680E-01
    9032.798     37.510   3.440  8.92701E-01  9.97129E-01 -1.04428E-01
    9033.852     38.565   3.480  9.02831E-01  9.96404E-01 -9.35727E-02
    9034.919     39.631   3.520  9.12922E-01  9.95732E-01 -8.28103E-02
    9035.998     40.710   3.560  9.23591E-01  9.95138E-01 -7.15466E-02
    9037.089     41.802   3.600  9.35508E-01  9.94620E-01 -5.91122E-02
    9038.193     42.905   3.640  9.49101E-01  9.94179E-01 -4.50771E-02
    9039.308     44.021   3.680  9.64281E-01  9.93815E-01 -2.95341E-02
    9040.436     45.148   3.720  9.80271E-01  9.93509E-01 -1.32376E-02
    9041.576     46.288   3.760  9.96122E-01  9.93301E-01  2.82076E-03
    9042.728     47.440   3.800  1.01076E+00  9.93148E-01  1.76082E-02
    9043.892     48.605   3.840  1.02326E+00  9.93070E-01  3.01942E-02
    9045.069     49.781   3.880  1.03305E+00  9.93048E-01  4.00004E-02
    9046.258     50.970   3.920  1.04000E+00  9.93122E-01  4.68816E-02
    9047.458     52.171   3.960  1.04435E+00  9.93250E-01  5.10953E-02
    9048.672     53.384   4.000  1.04668E+00  9.93452E-01  5.32257E-02
    9049.897     54.609   4.040  1.04762E+00  9.93704E-01  5.39198E-02
    9051.134     55.847   4.080  1.04767E+00  9.94026E-01  5.36396E-02
    9052.384     57.096   4.120  1.04693E+00  9.94398E-01  5.25374E-02
    9053.646     58.358   4.160  1.04553E+00  9.94838E-01  5.06946E-02
    9054.920     59.632   4.200  1.04348E+00  9.95322E-01  4.81580E-02
    9056.206     60.919   4.240  1.04112E+00  9.95849E-01  4.52687E-02
    9057.505     62.217   4.280  1.03917E+00  9.96418E-01  4.27542E-02
    9058.815     63.528   4.320  1.03848E+00  9.97026E-01  4.14501E-02
    9060.138     64.850   4.360  1.03962E+00  9.97672E-01  4.19493E-02
    9061.473     66.185   4.400  1.04273E+00  9.98352E-01  4.43766E-02
    9062.820     67.533   4.440  1.04752E+00  9.99044E-01  4.84728E-02
    9064.180     68.892   4.480  1.05345E+00  9.99767E-01  5.36883E-02
    9065.551     70.264   4.520  1.06003E+00  1.00050E+00  5.95329E-02
    9066.935     71.647   4.560  1.06695E+00  1.00126E+00  6.56919E-02
    9068.331     73.043   4.600  1.07382E+00  1.00202E+00  7.17953E-02
    9069.739     74.452   4.640  1.07989E+00  1.00279E+00  7.70992E-02
    9071.160     75.872   4.680  1.08408E+00  1.00358E+00  8.04997E-02
    9072.592     77.305   4.720  1.08520E+00  1.00434E+00  8.08569E-02
    9074.037     78.749   4.760  1.08250E+00  1.00510E+00  7.73951E-02
    9075.494     80.206   4.800  1.07577E+00  1.00583E+00  6.99350E-02
    9076.963     81.675   4.840  1.06540E+00  1.00658E+00  5.88146E-02
    9078.444     83.157   4.880  1.05209E+00  1.00730E+00  4.47909E-02
    9079.938     84.650   4.920  1.03688E+00  1.00798E+00  2.88966E-02
    9081.444     86.156   4.960  1.02085E+00  1.00865E+00  1.22028E-02
    9082.961     87.674   5.000  1.00486E+00  1.00928E+00 -4.41977E-03
    9084.492     89.204   5.040  9.89476E-01  1.00987E+00 -2.03952E-02
    9086.034     90.746   5.080  9.75093E-01  1.01042E+00 -3.53314E-02
    9087.588     92.301   5.120  9.62085E-01  1.01094E+00 -4.88522E-02
    9089.155     93.867   5.160  9.50800E-01  1.01143E+00 -6.06311E-02
    9090.734     95.446   5.200  9.41470E-01  1.01186E+00 -7.03900E-02
    9092.325     97.037   5.240  9.34200E-01  1.01224E+00 -7.80438E-02
    9093.928     98.640   5.280  9.28954E-01  1.01258E+00 -8.36279E-02
    9095.544    100.256   5.320  9.25618E-01  1.01285E+00 -8.72338E-02
    9097.171    101.884   5.360  9.24175E-01  1.01310E+00 -8.89244E-02
    9098.811    103.523   5.400  9.24494E-01  1.01328E+00 -8.87861E-02
    9100.463    105.175   5.440  9.26504E-01  1.01341E+00 -8.69096E-02
    9102.127    106.840   5.480  9.30241E-01  1.01350E+00 -8.32597E-02
    9103.804    108.516   5.520  9.36018E-01  1.01352E+00 -7.74986E-02
    9105.492    110.205   5.560  9.44325E-01  1.01348E+00 -6.91583E-02
    9107.193    111.905   5.600  9.55462E-01  1.01338E+00 -5.79221E-02
    9108.906    113.618   5.640  9.69227E-01  1.01326E+00 -4.40344E-02
    9110.631    115.343   5.680  9.84578E-01  1.01307E+00 -2.84933E-02
    9112.368    117.081   5.720  9.99898E-01  1.01284E+00 -1.29383E-02
    9114.118    118.830   5.760  1.01340E+00  1.01256E+00  8.41019E-04
    9115.880    120.592   5.800  1.02375E+00  1.01221E+00  1.15439E-02
    9117.654    122.366   5.840  1.03066E+00  1.01182E+00  1.88398E-02
    9119.440    124.152   5.880  1.03475E+00  1.01142E+00  2.33279E-02
    9121.238    125.950   5.920  1.03705E+00  1.01096E+00  2.60897E-02
    9123.049    127.761   5.960  1.03863E+00  1.01046E+00  2.81734E-02
    9124.871    129.584   6.000  1.04013E+00  1.00989E+00  3.02363E-02
