# # comment:                                                     FEFF 9.9.1  
# # Source:
# # Structure
# # Reduced
# # space
# # abc:
# # angles:118.528010
# # sites:
# # POT  SCF 100  7.0000   0, screened core-hole, AFOLP (folp(0)= 1.150)
# # Abs   Z=29 Rmt= 1.149 Rnm= 1.276 K  shell
# # Pot 1 Z=11 Rmt= 1.505 Rnm= 1.561
# # Pot 2 Z=29 Rmt= 1.214 Rnm= 1.315
# # Pot 3 Z= 8 Rmt= 1.066 Rnm= 1.131
# # Gam_ch=1.729E+00 H-L exch Vi= 0.000E+00 Vr= 0.000E+00
# # Mu=-8.014E+00eV kf=1.940E+00 Vint=-1.482E+01eV Rs_int= 1.870
# FMS rfms= 9.0000
# # PATH  Rmax=-1.000,  Keep_limit= 0.00, Heap_limit 0.00  Pwcrit= 2.50%
#  S02=0.950  Temp=   0.00  Debye_temp=   0.00  Global_sig2= 0.00000
#  Energy zero shift, vr, vi    0.00000E+00   0.00000E+00
#  Curved wave amplitude ratio filter   4.000%
#     file         sig2 tot  cw amp ratio   deg  nlegs   reff  inp sig2
#     0/   0 paths used
#  xsedge+ 50, used to normalize mu           2.4247E-04
#  -----------------------------------------------------------------------
#  omega    e    k    mu    mu0     chi     @#
    8984.155    -11.824  -1.000  3.51787E-02  5.53151E-02 -2.01364E-02
    8984.454    -11.525  -0.960  3.69693E-02  5.92630E-02 -2.22936E-02
    8984.740    -11.239  -0.920  3.89002E-02  6.36383E-02 -2.47382E-02
    8985.014    -10.965  -0.880  4.09874E-02  6.85027E-02 -2.75153E-02
    8985.277    -10.703  -0.840  4.32491E-02  7.39273E-02 -3.06782E-02
    8985.527    -10.453  -0.800  4.57058E-02  7.99946E-02 -3.42888E-02
    8985.764    -10.215  -0.760  4.83799E-02  8.67989E-02 -3.84189E-02
    8985.990     -9.989  -0.720  5.12961E-02  9.44465E-02 -4.31504E-02
    8986.203     -9.776  -0.680  5.44802E-02  1.03054E-01 -4.85739E-02
    8986.404     -9.575  -0.640  5.79581E-02  1.12745E-01 -5.47865E-02
    8986.593     -9.386  -0.600  6.17536E-02  1.23638E-01 -6.18843E-02
    8986.770     -9.209  -0.560  6.58854E-02  1.35836E-01 -6.99507E-02
    8986.935     -9.044  -0.520  7.03618E-02  1.49398E-01 -7.90366E-02
    8987.087     -8.892  -0.480  7.51747E-02  1.64309E-01 -8.91340E-02
    8987.227     -8.752  -0.440  8.02920E-02  1.80437E-01 -1.00145E-01
    8987.355     -8.624  -0.400  8.56510E-02  1.97507E-01 -1.11856E-01
    8987.471     -8.508  -0.360  9.11547E-02  2.15086E-01 -1.23932E-01
    8987.575     -8.404  -0.320  9.66732E-02  2.32612E-01 -1.35939E-01
    8987.666     -8.313  -0.280  1.02052E-01  2.49458E-01 -1.47406E-01
    8987.745     -8.234  -0.240  1.07127E-01  2.65021E-01 -1.57893E-01
    8987.813     -8.167  -0.200  1.11735E-01  2.78790E-01 -1.67055E-01
    8987.867     -8.112  -0.160  1.15729E-01  2.90387E-01 -1.74659E-01
    8987.910     -8.069  -0.120  1.18985E-01  2.99568E-01 -1.80583E-01
    8987.941     -8.039  -0.080  1.21408E-01  3.06190E-01 -1.84782E-01
    8987.965     -8.014   0.000  1.23451E-01  3.11517E-01 -1.88066E-01
    8988.020     -7.959   0.120  1.27993E-01  3.23547E-01 -1.95554E-01
    8988.062     -7.917   0.160  1.31550E-01  3.32905E-01 -2.01355E-01
    8988.117     -7.862   0.200  1.36238E-01  3.44887E-01 -2.08648E-01
    8988.184     -7.795   0.240  1.42132E-01  3.59357E-01 -2.17225E-01
    8988.264     -7.715   0.280  1.49301E-01  3.76067E-01 -2.26767E-01
    8988.355     -7.624   0.320  1.57810E-01  3.94621E-01 -2.36811E-01
    8988.459     -7.520   0.360  1.67670E-01  4.14528E-01 -2.46858E-01
    8988.575     -7.405   0.400  1.78836E-01  4.35303E-01 -2.56467E-01
    8988.703     -7.277   0.440  1.91183E-01  4.56463E-01 -2.65280E-01
    8988.843     -7.136   0.480  2.04467E-01  4.77648E-01 -2.73181E-01
    8988.995     -6.984   0.520  2.18246E-01  4.98586E-01 -2.80340E-01
    8989.160     -6.819   0.560  2.31934E-01  5.19189E-01 -2.87255E-01
    8989.337     -6.643   0.600  2.44553E-01  5.39402E-01 -2.94849E-01
    8989.525     -6.454   0.640  2.54664E-01  5.59249E-01 -3.04585E-01
    8989.727     -6.252   0.680  2.60660E-01  5.78788E-01 -3.18128E-01
    8989.940     -6.039   0.720  2.61838E-01  5.98103E-01 -3.36265E-01
    8990.166     -5.814   0.760  2.59468E-01  6.17217E-01 -3.57749E-01
    8990.403     -5.576   0.800  2.56426E-01  6.36205E-01 -3.79779E-01
    8990.653     -5.326   0.840  2.55406E-01  6.55085E-01 -3.99679E-01
    8990.915     -5.064   0.880  2.58024E-01  6.73864E-01 -4.15840E-01
    8991.190     -4.789   0.920  2.65284E-01  6.92554E-01 -4.27270E-01
    8991.476     -4.503   0.960  2.78197E-01  7.11138E-01 -4.32940E-01
    8991.775     -4.204   1.000  2.98104E-01  7.29606E-01 -4.31502E-01
    8992.086     -3.893   1.040  3.26394E-01  7.47900E-01 -4.21506E-01
    8992.409     -3.570   1.080  3.62883E-01  7.65999E-01 -4.03115E-01
    8992.744     -3.235   1.120  4.04229E-01  7.83850E-01 -3.79621E-01
    8993.092     -2.887   1.160  4.46508E-01  8.01421E-01 -3.54913E-01
    8993.451     -2.528   1.200  4.85624E-01  8.18615E-01 -3.32991E-01
    8993.823     -2.156   1.240  5.11346E-01  8.35433E-01 -3.24087E-01
    8994.207     -1.772   1.280  5.13968E-01  8.51797E-01 -3.37828E-01
    8994.603     -1.376   1.320  5.00028E-01  8.67666E-01 -3.67638E-01
    8995.012     -0.967   1.360  4.86224E-01  8.82981E-01 -3.96757E-01
    8995.432     -0.547   1.400  4.85007E-01  8.97705E-01 -4.12698E-01
    8995.865     -0.114   1.440  4.99978E-01  9.11799E-01 -4.11821E-01
    8996.310      0.331   1.480  5.28283E-01  9.25252E-01 -3.96969E-01
    8996.768      0.788   1.520  5.64940E-01  9.37990E-01 -3.73050E-01
    8997.237      1.258   1.560  6.08665E-01  9.50024E-01 -3.41359E-01
    8997.718      1.739   1.600  6.64231E-01  9.61327E-01 -2.97097E-01
    8998.212      2.233   1.640  7.34985E-01  9.71894E-01 -2.36910E-01
    8998.718      2.739   1.680  8.08910E-01  9.81705E-01 -1.72794E-01
    8999.236      3.257   1.720  8.69000E-01  9.90779E-01 -1.21779E-01
    8999.767      3.788   1.760  9.17427E-01  9.99098E-01 -8.16718E-02
    9000.309      4.330   1.800  9.70754E-01  1.00667E+00 -3.59152E-02
    9000.864      4.885   1.840  1.04266E+00  1.01352E+00  2.91435E-02
    9001.431      5.452   1.880  1.13910E+00  1.01968E+00  1.19414E-01
    9002.010      6.031   1.920  1.25724E+00  1.02515E+00  2.32092E-01
    9002.601      6.622   1.960  1.38403E+00  1.02996E+00  3.54069E-01
    9003.205      7.226   2.000  1.49738E+00  1.03413E+00  4.63253E-01
    9003.821      7.841   2.040  1.57461E+00  1.03769E+00  5.36912E-01
    9004.448      8.469   2.080  1.60259E+00  1.04068E+00  5.61913E-01
    9005.089      9.109   2.120  1.58112E+00  1.04314E+00  5.37974E-01
    9005.741      9.762   2.160  1.52614E+00  1.04508E+00  4.81066E-01
    9006.405     10.426   2.200  1.46464E+00  1.04652E+00  4.18120E-01
    9007.082     11.103   2.240  1.41698E+00  1.04754E+00  3.69448E-01
    9007.771     11.792   2.280  1.38674E+00  1.04813E+00  3.38605E-01
    9008.472     12.493   2.320  1.36287E+00  1.04835E+00  3.14527E-01
    9009.185     13.206   2.360  1.32748E+00  1.04822E+00  2.79253E-01
    9009.910     13.931   2.400  1.27420E+00  1.04777E+00  2.26428E-01
    9010.648     14.669   2.440  1.21537E+00  1.04703E+00  1.68335E-01
    9011.398     15.419   2.480  1.16121E+00  1.04604E+00  1.15171E-01
    9012.160     16.181   2.520  1.11625E+00  1.04482E+00  7.14249E-02
    9012.934     16.955   2.560  1.08096E+00  1.04338E+00  3.75819E-02
    9013.720     17.741   2.600  1.05502E+00  1.04179E+00  1.32311E-02
    9014.519     18.540   2.640  1.03729E+00  1.04003E+00 -2.74542E-03
    9015.330     19.351   2.680  1.02647E+00  1.03816E+00 -1.16875E-02
    9016.153     20.174   2.720  1.02063E+00  1.03618E+00 -1.55515E-02
    9016.988     21.009   2.760  1.01750E+00  1.03412E+00 -1.66196E-02
    9017.835     21.856   2.800  1.01493E+00  1.03199E+00 -1.70610E-02
    9018.695     22.716   2.840  1.01135E+00  1.02981E+00 -1.84557E-02
    9019.566     23.587   2.880  1.00610E+00  1.02759E+00 -2.14840E-02
    9020.450     24.471   2.920  9.99305E-01  1.02536E+00 -2.60563E-02
    9021.346     25.367   2.960  9.91590E-01  1.02313E+00 -3.15441E-02
    9022.255     26.276   3.000  9.83406E-01  1.02093E+00 -3.75275E-02
    9023.175     27.196   3.040  9.74402E-01  1.01874E+00 -4.43425E-02
    9024.108     28.129   3.080  9.64163E-01  1.01659E+00 -5.24309E-02
    9025.053     29.074   3.120  9.52364E-01  1.01451E+00 -6.21437E-02
    9026.010     30.031   3.160  9.38905E-01  1.01245E+00 -7.35424E-02
    9026.979     31.000   3.200  9.24234E-01  1.01048E+00 -8.62487E-02
    9027.961     31.981   3.240  9.09214E-01  1.00857E+00 -9.93585E-02
    9028.954     32.975   3.280  8.94656E-01  1.00674E+00 -1.12089E-01
    9029.960     33.981   3.320  8.81364E-01  1.00502E+00 -1.23657E-01
    9030.978     34.999   3.360  8.70197E-01  1.00336E+00 -1.33164E-01
    9032.008     36.029   3.400  8.61975E-01  1.00181E+00 -1.39836E-01
    9033.051     37.072   3.440  8.57192E-01  1.00037E+00 -1.43180E-01
    9034.105     38.126   3.480  8.56046E-01  9.99026E-01 -1.42980E-01
    9035.172     39.193   3.520  8.58523E-01  9.97773E-01 -1.39251E-01
    9036.251     40.272   3.560  8.63978E-01  9.96656E-01 -1.32678E-01
    9037.342     41.363   3.600  8.71573E-01  9.95635E-01 -1.24062E-01
    9038.446     42.467   3.640  8.80569E-01  9.94709E-01 -1.14140E-01
    9039.561     43.582   3.680  8.90490E-01  9.93920E-01 -1.03429E-01
    9040.689     44.710   3.720  9.00992E-01  9.93228E-01 -9.22364E-02
    9041.829     45.850   3.760  9.12002E-01  9.92653E-01 -8.06515E-02
    9042.981     47.002   3.800  9.23365E-01  9.92174E-01 -6.88095E-02
    9044.145     48.166   3.840  9.34816E-01  9.91833E-01 -5.70168E-02
    9045.322     49.343   3.880  9.46028E-01  9.91586E-01 -4.55576E-02
    9046.511     50.532   3.920  9.56864E-01  9.91431E-01 -3.45669E-02
    9047.712     51.732   3.960  9.67247E-01  9.91391E-01 -2.41443E-02
    9048.925     52.946   4.000  9.77267E-01  9.91464E-01 -1.41969E-02
    9050.150     54.171   4.040  9.87175E-01  9.91628E-01 -4.45293E-03
    9051.387     55.408   4.080  9.97315E-01  9.91902E-01  5.41237E-03
    9052.637     56.658   4.120  1.00791E+00  9.92241E-01  1.56653E-02
    9053.899     57.920   4.160  1.01905E+00  9.92686E-01  2.63634E-02
    9055.173     59.194   4.200  1.03049E+00  9.93215E-01  3.72748E-02
    9056.459     60.480   4.240  1.04172E+00  9.93826E-01  4.78994E-02
    9057.758     61.779   4.280  1.05222E+00  9.94516E-01  5.77009E-02
    9059.068     63.089   4.320  1.06152E+00  9.95284E-01  6.62348E-02
    9060.391     64.412   4.360  1.06930E+00  9.96104E-01  7.32001E-02
    9061.726     65.747   4.400  1.07554E+00  9.96996E-01  7.85453E-02
    9063.073     67.094   4.440  1.08041E+00  9.97937E-01  8.24737E-02
    9064.433     68.454   4.480  1.08423E+00  9.98944E-01  8.52875E-02
    9065.804     69.825   4.520  1.08709E+00  9.99975E-01  8.71174E-02
    9067.188     71.209   4.560  1.08905E+00  1.00106E+00  8.79812E-02
    9068.584     72.605   4.600  1.08993E+00  1.00217E+00  8.77591E-02
    9069.992     74.013   4.640  1.08972E+00  1.00334E+00  8.63874E-02
    9071.413     75.434   4.680  1.08834E+00  1.00449E+00  8.38478E-02
    9072.845     76.866   4.720  1.08572E+00  1.00569E+00  8.00281E-02
    9074.290     78.311   4.760  1.08156E+00  1.00688E+00  7.46774E-02
    9075.747     79.768   4.800  1.07575E+00  1.00809E+00  6.76565E-02
    9077.216     81.237   4.840  1.06840E+00  1.00928E+00  5.91184E-02
    9078.697     82.718   4.880  1.06004E+00  1.01049E+00  4.95503E-02
    9080.191     84.212   4.920  1.05129E+00  1.01167E+00  3.96257E-02
    9081.697     85.718   4.960  1.04281E+00  1.01284E+00  2.99731E-02
    9083.215     87.235   5.000  1.03503E+00  1.01398E+00  2.10556E-02
    9084.745     88.765   5.040  1.02825E+00  1.01510E+00  1.31504E-02
    9086.287     90.308   5.080  1.02253E+00  1.01616E+00  6.36437E-03
    9087.841     91.862   5.120  1.01789E+00  1.01721E+00  6.83750E-04
    9089.408     93.429   5.160  1.01419E+00  1.01821E+00 -4.01668E-03
    9090.987     95.008   5.200  1.01133E+00  1.01917E+00 -7.83417E-03
    9092.578     96.599   5.240  1.00923E+00  1.02006E+00 -1.08291E-02
    9094.181     98.202   5.280  1.00775E+00  1.02090E+00 -1.31496E-02
    9095.797     99.817   5.320  1.00645E+00  1.02169E+00 -1.52431E-02
    9097.424    101.445   5.360  1.00461E+00  1.02241E+00 -1.77936E-02
    9099.064    103.085   5.400  1.00175E+00  1.02305E+00 -2.12968E-02
    9100.716    104.737   5.440  9.97981E-01  1.02363E+00 -2.56521E-02
    9102.380    106.401   5.480  9.93935E-01  1.02414E+00 -3.02071E-02
    9104.057    108.078   5.520  9.90390E-01  1.02457E+00 -3.41800E-02
    9105.745    109.766   5.560  9.87896E-01  1.02492E+00 -3.70233E-02
    9107.446    111.467   5.600  9.86851E-01  1.02521E+00 -3.83600E-02
    9109.159    113.180   5.640  9.87514E-01  1.02540E+00 -3.78865E-02
    9110.884    114.905   5.680  9.90043E-01  1.02553E+00 -3.54864E-02
    9112.621    116.642   5.720  9.93909E-01  1.02556E+00 -3.16481E-02
    9114.371    118.392   5.760  9.98049E-01  1.02553E+00 -2.74788E-02
    9116.133    120.154   5.800  1.00115E+00  1.02542E+00 -2.42716E-02
    9117.907    121.928   5.840  1.00235E+00  1.02523E+00 -2.28802E-02
    9119.693    123.714   5.880  1.00142E+00  1.02497E+00 -2.35494E-02
    9121.491    125.512   5.920  9.98544E-01  1.02465E+00 -2.61095E-02
    9123.302    127.323   5.960  9.94121E-01  1.02422E+00 -3.01040E-02
    9125.124    129.145   6.000  9.88827E-01  1.02368E+00 -3.48569E-02
