# # comment:                                                     FEFF 9.9.1  
# # Source:
# # Structure
# # Reduced
# # space
# # abc:
# # angles:
# # sites:
# # POT  SCF 100  7.0000   0, screened core-hole, AFOLP (folp(0)= 1.150)
# # Abs   Z=29 Rmt= 1.134 Rnm= 1.307 K  shell
# # Pot 1 Z=29 Rmt= 1.134 Rnm= 1.307
# # Pot 2 Z= 7 Rmt= 1.112 Rnm= 1.319
# # Pot 3 Z= 8 Rmt= 0.726 Rnm= 1.018
# # Gam_ch=1.729E+00 H-L exch Vi= 0.000E+00 Vr= 0.000E+00
# # Mu=-8.237E+00eV kf=2.263E+00 Vint=-1.342E+01eV Rs_int= 1.603
# FMS rfms= 9.0000
# # PATH  Rmax=-1.000,  Keep_limit= 0.00, Heap_limit 0.00  Pwcrit= 2.50%
#  S02=0.950  Temp=   0.00  Debye_temp=   0.00  Global_sig2= 0.00000
#  Energy zero shift, vr, vi    0.00000E+00   0.00000E+00
#  Curved wave amplitude ratio filter   4.000%
#     file         sig2 tot  cw amp ratio   deg  nlegs   reff  inp sig2
#     0/   0 paths used
#  xsedge+ 50, used to normalize mu           2.4043E-04
#  -----------------------------------------------------------------------
#  omega    e    k    mu    mu0     chi     @#
    8983.298    -12.047  -1.000  3.11268E-02  5.27809E-02 -2.16541E-02
    8983.596    -11.749  -0.960  3.24479E-02  5.63935E-02 -2.39456E-02
    8983.883    -11.462  -0.920  3.38546E-02  6.03797E-02 -2.65251E-02
    8984.157    -11.188  -0.880  3.53575E-02  6.47910E-02 -2.94335E-02
    8984.419    -10.926  -0.840  3.69696E-02  6.96873E-02 -3.27177E-02
    8984.669    -10.676  -0.800  3.87066E-02  7.51373E-02 -3.64307E-02
    8984.907    -10.438  -0.760  4.05872E-02  8.12195E-02 -4.06323E-02
    8985.133    -10.212  -0.720  4.26333E-02  8.80218E-02 -4.53885E-02
    8985.346     -9.999  -0.680  4.48703E-02  9.56404E-02 -5.07701E-02
    8985.547     -9.798  -0.640  4.73255E-02  1.04176E-01 -5.68505E-02
    8985.736     -9.609  -0.600  5.00263E-02  1.13726E-01 -6.37002E-02
    8985.913     -9.432  -0.560  5.29952E-02  1.24374E-01 -7.13787E-02
    8986.078     -9.268  -0.520  5.62425E-02  1.36165E-01 -7.99220E-02
    8986.230     -9.115  -0.480  5.97557E-02  1.49082E-01 -8.93259E-02
    8986.370     -8.975  -0.440  6.34873E-02  1.63014E-01 -9.95263E-02
    8986.498     -8.847  -0.400  6.73460E-02  1.77728E-01 -1.10382E-01
    8986.614     -8.731  -0.360  7.11978E-02  1.92860E-01 -1.21663E-01
    8986.718     -8.627  -0.320  7.48815E-02  2.07940E-01 -1.33059E-01
    8986.809     -8.536  -0.280  7.82386E-02  2.22440E-01 -1.44202E-01
    8986.888     -8.457  -0.240  8.11455E-02  2.35850E-01 -1.54704E-01
    8986.955     -8.390  -0.200  8.35341E-02  2.47732E-01 -1.64198E-01
    8987.010     -8.335  -0.160  8.53883E-02  2.57758E-01 -1.72370E-01
    8987.053     -8.292  -0.120  8.67228E-02  2.65710E-01 -1.78987E-01
    8987.083     -8.262  -0.080  8.75700E-02  2.71454E-01 -1.83884E-01
    8987.108     -8.237   0.000  8.80790E-02  2.76083E-01 -1.88004E-01
    8987.163     -8.182   0.120  9.04803E-02  2.86541E-01 -1.96060E-01
    8987.205     -8.140   0.160  9.21265E-02  2.94715E-01 -2.02589E-01
    8987.260     -8.085   0.200  9.40504E-02  3.05212E-01 -2.11162E-01
    8987.327     -8.018   0.240  9.60869E-02  3.17963E-01 -2.21876E-01
    8987.406     -7.939   0.280  9.79650E-02  3.32750E-01 -2.34785E-01
    8987.498     -7.847   0.320  9.94939E-02  3.49319E-01 -2.49826E-01
    8987.602     -7.744   0.360  1.00529E-01  3.67319E-01 -2.66790E-01
    8987.717     -7.628   0.400  1.01021E-01  3.86368E-01 -2.85347E-01
    8987.845     -7.500   0.440  1.01094E-01  4.06092E-01 -3.04998E-01
    8987.986     -7.360   0.480  1.01024E-01  4.26216E-01 -3.25191E-01
    8988.138     -7.207   0.520  1.01116E-01  4.46565E-01 -3.45450E-01
    8988.303     -7.043   0.560  1.01632E-01  4.67015E-01 -3.65383E-01
    8988.479     -6.866   0.600  1.02789E-01  4.87552E-01 -3.84764E-01
    8988.668     -6.677   0.640  1.04753E-01  5.08208E-01 -4.03455E-01
    8988.869     -6.476   0.680  1.07551E-01  5.28975E-01 -4.21424E-01
    8989.083     -6.262   0.720  1.11334E-01  5.49912E-01 -4.38578E-01
    8989.308     -6.037   0.760  1.16332E-01  5.71053E-01 -4.54721E-01
    8989.546     -5.799   0.800  1.22908E-01  5.92379E-01 -4.69471E-01
    8989.796     -5.549   0.840  1.31597E-01  6.13901E-01 -4.82305E-01
    8990.058     -5.287   0.880  1.43080E-01  6.35597E-01 -4.92517E-01
    8990.333     -5.013   0.920  1.58334E-01  6.57411E-01 -4.99077E-01
    8990.619     -4.726   0.960  1.78902E-01  6.79319E-01 -5.00417E-01
    8990.918     -4.427   1.000  2.07038E-01  7.01266E-01 -4.94228E-01
    8991.229     -4.116   1.040  2.45993E-01  7.23125E-01 -4.77133E-01
    8991.552     -3.793   1.080  3.00258E-01  7.44872E-01 -4.44613E-01
    8991.887     -3.458   1.120  3.75694E-01  7.66409E-01 -3.90716E-01
    8992.234     -3.111   1.160  4.79023E-01  7.87642E-01 -3.08618E-01
    8992.594     -2.751   1.200  6.10096E-01  8.08471E-01 -1.98375E-01
    8992.966     -2.379   1.240  7.45066E-01  8.28815E-01 -8.37494E-02
    8993.350     -1.995   1.280  8.41002E-01  8.48618E-01 -7.61659E-03
    8993.746     -1.599   1.320  8.70394E-01  8.67761E-01  2.63246E-03
    8994.155     -1.190   1.360  8.22079E-01  8.86189E-01 -6.41100E-02
    8994.575     -0.770   1.400  7.14426E-01  9.03831E-01 -1.89405E-01
    8995.008     -0.337   1.440  6.01688E-01  9.20640E-01 -3.18952E-01
    8995.453      0.108   1.480  5.20213E-01  9.36550E-01 -4.16337E-01
    8995.910      0.565   1.520  4.72293E-01  9.51523E-01 -4.79230E-01
    8996.380      1.035   1.560  4.46422E-01  9.65546E-01 -5.19125E-01
    8996.861      1.516   1.600  4.37525E-01  9.78589E-01 -5.41064E-01
    8997.355      2.010   1.640  4.48047E-01  9.90626E-01 -5.42579E-01
    8997.861      2.516   1.680  4.78151E-01  1.00166E+00 -5.23506E-01
    8998.379      3.034   1.720  5.27881E-01  1.01170E+00 -4.83823E-01
    8998.910      3.564   1.760  5.97204E-01  1.02078E+00 -4.23574E-01
    8999.452      4.107   1.800  6.82559E-01  1.02889E+00 -3.46329E-01
    9000.007      4.662   1.840  7.76426E-01  1.03607E+00 -2.59646E-01
    9000.574      5.229   1.880  8.73083E-01  1.04236E+00 -1.69280E-01
    9001.153      5.808   1.920  9.69928E-01  1.04778E+00 -7.78525E-02
    9001.744      6.399   1.960  1.06707E+00  1.05237E+00  1.46996E-02
    9002.348      7.003   2.000  1.17078E+00  1.05619E+00  1.14589E-01
    9002.963      7.618   2.040  1.29040E+00  1.05928E+00  2.31122E-01
    9003.591      8.246   2.080  1.41957E+00  1.06168E+00  3.57892E-01
    9004.231      8.886   2.120  1.51962E+00  1.06344E+00  4.56180E-01
    9004.884      9.539   2.160  1.56417E+00  1.06459E+00  4.99583E-01
    9005.548     10.203   2.200  1.57240E+00  1.06521E+00  5.07192E-01
    9006.225     10.880   2.240  1.55804E+00  1.06533E+00  4.92712E-01
    9006.914     11.568   2.280  1.52418E+00  1.06500E+00  4.59176E-01
    9007.615     12.270   2.320  1.48352E+00  1.06427E+00  4.19242E-01
    9008.328     12.983   2.360  1.43801E+00  1.06318E+00  3.74836E-01
    9009.053     13.708   2.400  1.38078E+00  1.06175E+00  3.19029E-01
    9009.791     14.446   2.440  1.32546E+00  1.06003E+00  2.65431E-01
    9010.541     15.196   2.480  1.29251E+00  1.05808E+00  2.34423E-01
    9011.303     15.958   2.520  1.29237E+00  1.05590E+00  2.36468E-01
    9012.077     16.732   2.560  1.31576E+00  1.05355E+00  2.62213E-01
    9012.863     17.518   2.600  1.33140E+00  1.05106E+00  2.80349E-01
    9013.662     18.317   2.640  1.29607E+00  1.04844E+00  2.47630E-01
    9014.473     19.127   2.680  1.20065E+00  1.04571E+00  1.54941E-01
    9015.296     19.950   2.720  1.11957E+00  1.04295E+00  7.66222E-02
    9016.131     20.786   2.760  1.06841E+00  1.04013E+00  2.82830E-02
    9016.978     21.633   2.800  1.03625E+00  1.03727E+00 -1.01459E-03
    9017.838     22.492   2.840  1.01376E+00  1.03442E+00 -2.06676E-02
    9018.709     23.364   2.880  9.95992E-01  1.03159E+00 -3.55988E-02
    9019.593     24.248   2.920  9.81112E-01  1.02879E+00 -4.76797E-02
    9020.489     25.144   2.960  9.68742E-01  1.02603E+00 -5.72925E-02
    9021.398     26.053   3.000  9.58960E-01  1.02333E+00 -6.43670E-02
    9022.318     26.973   3.040  9.51884E-01  1.02070E+00 -6.88130E-02
    9023.251     27.906   3.080  9.47463E-01  1.01817E+00 -7.07069E-02
    9024.196     28.851   3.120  9.45128E-01  1.01571E+00 -7.05804E-02
    9025.153     29.808   3.160  9.43855E-01  1.01336E+00 -6.95039E-02
    9026.122     30.777   3.200  9.42215E-01  1.01113E+00 -6.89100E-02
    9027.103     31.758   3.240  9.38811E-01  1.00899E+00 -7.01778E-02
    9028.097     32.752   3.280  9.32791E-01  1.00698E+00 -7.41850E-02
    9029.103     33.758   3.320  9.24021E-01  1.00511E+00 -8.10869E-02
    9030.121     34.776   3.360  9.12958E-01  1.00335E+00 -9.03880E-02
    9031.151     35.806   3.400  9.00500E-01  1.00173E+00 -1.01233E-01
    9032.194     36.848   3.440  8.87652E-01  1.00025E+00 -1.12600E-01
    9033.248     37.903   3.480  8.75571E-01  9.98921E-01 -1.23349E-01
    9034.315     38.970   3.520  8.65155E-01  9.97700E-01 -1.32545E-01
    9035.394     40.049   3.560  8.57499E-01  9.96653E-01 -1.39154E-01
    9036.485     41.140   3.600  8.53511E-01  9.95718E-01 -1.42207E-01
    9037.589     42.243   3.640  8.53890E-01  9.94936E-01 -1.41046E-01
    9038.704     43.359   3.680  8.58945E-01  9.94308E-01 -1.35362E-01
    9039.832     44.487   3.720  8.68598E-01  9.93810E-01 -1.25212E-01
    9040.972     45.627   3.760  8.82462E-01  9.93442E-01 -1.10980E-01
    9042.124     46.779   3.800  8.99819E-01  9.93204E-01 -9.33848E-02
    9043.288     47.943   3.840  9.19639E-01  9.93117E-01 -7.34775E-02
    9044.465     49.120   3.880  9.40600E-01  9.93156E-01 -5.25565E-02
    9045.653     50.308   3.920  9.61211E-01  9.93320E-01 -3.21098E-02
    9046.854     51.509   3.960  9.80088E-01  9.93609E-01 -1.35206E-02
    9048.068     52.722   4.000  9.96364E-01  9.94017E-01  2.34633E-03
    9049.293     53.948   4.040  1.00976E+00  9.94523E-01  1.52408E-02
    9050.530     55.185   4.080  1.02062E+00  9.95148E-01  2.54729E-02
    9051.780     56.435   4.120  1.02959E+00  9.95888E-01  3.37065E-02
    9053.042     57.697   4.160  1.03747E+00  9.96742E-01  4.07315E-02
    9054.316     58.971   4.200  1.04479E+00  9.97663E-01  4.71254E-02
    9055.602     60.257   4.240  1.05187E+00  9.98691E-01  5.31775E-02
    9056.901     61.555   4.280  1.05872E+00  9.99803E-01  5.89141E-02
    9058.211     62.866   4.320  1.06521E+00  1.00099E+00  6.42150E-02
    9059.534     64.189   4.360  1.07114E+00  1.00224E+00  6.89036E-02
    9060.869     65.524   4.400  1.07635E+00  1.00356E+00  7.27937E-02
    9062.216     66.871   4.440  1.08053E+00  1.00493E+00  7.55997E-02
    9063.576     68.231   4.480  1.08336E+00  1.00636E+00  7.69942E-02
    9064.947     69.602   4.520  1.08451E+00  1.00785E+00  7.66660E-02
    9066.331     70.986   4.560  1.08375E+00  1.00937E+00  7.43849E-02
    9067.727     72.382   4.600  1.08088E+00  1.01090E+00  6.99861E-02
    9069.135     73.790   4.640  1.07591E+00  1.01246E+00  6.34478E-02
    9070.556     75.210   4.680  1.06914E+00  1.01403E+00  5.51077E-02
    9071.988     76.643   4.720  1.06130E+00  1.01563E+00  4.56687E-02
    9073.433     78.088   4.760  1.05331E+00  1.01723E+00  3.60800E-02
    9074.890     79.545   4.800  1.04613E+00  1.01880E+00  2.73281E-02
    9076.359     81.014   4.840  1.04056E+00  1.02037E+00  2.01975E-02
    9077.840     82.495   4.880  1.03705E+00  1.02192E+00  1.51284E-02
    9079.334     83.989   4.920  1.03559E+00  1.02344E+00  1.21489E-02
    9080.839     85.494   4.960  1.03587E+00  1.02492E+00  1.09527E-02
    9082.357     87.012   5.000  1.03734E+00  1.02636E+00  1.09843E-02
    9083.887     88.542   5.040  1.03930E+00  1.02775E+00  1.15453E-02
    9085.430     90.085   5.080  1.04103E+00  1.02910E+00  1.19225E-02
    9086.984     91.639   5.120  1.04186E+00  1.03040E+00  1.14631E-02
    9088.551     93.206   5.160  1.04118E+00  1.03160E+00  9.57964E-03
    9090.130     94.785   5.200  1.03860E+00  1.03274E+00  5.85551E-03
    9091.721     96.376   5.240  1.03412E+00  1.03383E+00  2.96036E-04
    9093.324     97.979   5.280  1.02824E+00  1.03481E+00 -6.56881E-03
    9094.939     99.594   5.320  1.02182E+00  1.03570E+00 -1.38842E-02
    9096.567    101.222   5.360  1.01565E+00  1.03651E+00 -2.08615E-02
    9098.207    102.862   5.400  1.01022E+00  1.03724E+00 -2.70231E-02
    9099.859    104.514   5.440  1.00568E+00  1.03788E+00 -3.21975E-02
    9101.523    106.178   5.480  1.00211E+00  1.03843E+00 -3.63197E-02
    9103.199    107.854   5.520  9.99597E-01  1.03886E+00 -3.92652E-02
    9104.888    109.543   5.560  9.98298E-01  1.03918E+00 -4.08845E-02
    9106.589    111.244   5.600  9.98316E-01  1.03943E+00 -4.11181E-02
    9108.302    112.957   5.640  9.99485E-01  1.03955E+00 -4.00658E-02
    9110.027    114.682   5.680  1.00167E+00  1.03960E+00 -3.79272E-02
    9111.764    116.419   5.720  1.00458E+00  1.03954E+00 -3.49519E-02
    9113.514    118.169   5.760  1.00793E+00  1.03936E+00 -3.14288E-02
    9115.276    119.931   5.800  1.01138E+00  1.03912E+00 -2.77390E-02
    9117.050    121.704   5.840  1.01441E+00  1.03875E+00 -2.43357E-02
    9118.836    123.491   5.880  1.01667E+00  1.03831E+00 -2.16461E-02
    9120.634    125.289   5.920  1.01781E+00  1.03780E+00 -1.99885E-02
    9122.444    127.099   5.960  1.01766E+00  1.03716E+00 -1.94999E-02
    9124.267    128.922   6.000  1.01627E+00  1.03636E+00 -2.00878E-02
