# # comment:                                                     FEFF 9.9.1  
# # Source:
# # Structure
# # Reduced
# # space
# # abc:
# # angles:
# # sites:
# # POT  SCF 100  7.0000   0, screened core-hole, AFOLP (folp(0)= 1.150)
# # Abs   Z=29 Rmt= 1.200 Rnm= 1.296 K  shell
# # Pot 1 Z=56 Rmt= 1.966 Rnm= 2.024
# # Pot 2 Z=29 Rmt= 1.206 Rnm= 1.301
# # Pot 3 Z=80 Rmt= 1.363 Rnm= 1.554
# # Pot 4 Z= 8 Rmt= 1.077 Rnm= 1.126
# # Gam_ch=1.729E+00 H-L exch Vi= 0.000E+00 Vr= 0.000E+00
# # Mu=-8.991E+00eV kf=1.898E+00 Vint=-1.680E+01eV Rs_int= 1.911
# FMS rfms= 9.0000
# # PATH  Rmax=-1.000,  Keep_limit= 0.00, Heap_limit 0.00  Pwcrit= 2.50%
#  S02=0.950  Temp=   0.00  Debye_temp=   0.00  Global_sig2= 0.00000
#  Energy zero shift, vr, vi    0.00000E+00   0.00000E+00
#  Curved wave amplitude ratio filter   4.000%
#     file         sig2 tot  cw amp ratio   deg  nlegs   reff  inp sig2
#     0/   0 paths used
#  xsedge+ 50, used to normalize mu           2.4261E-04
#  -----------------------------------------------------------------------
#  omega    e    k    mu    mu0     chi     @#
    8985.347    -12.801  -1.000  4.20619E-02  5.90728E-02 -1.70109E-02
    8985.645    -12.502  -0.960  4.44503E-02  6.34494E-02 -1.89992E-02
    8985.932    -12.216  -0.920  4.70463E-02  6.83159E-02 -2.12696E-02
    8986.206    -11.942  -0.880  4.98767E-02  7.37441E-02 -2.38673E-02
    8986.468    -11.680  -0.840  5.29726E-02  7.98177E-02 -2.68451E-02
    8986.718    -11.430  -0.800  5.63699E-02  8.66338E-02 -3.02639E-02
    8986.956    -11.192  -0.760  6.01098E-02  9.43035E-02 -3.41936E-02
    8987.182    -10.966  -0.720  6.42390E-02  1.02952E-01 -3.87133E-02
    8987.395    -10.753  -0.680  6.88088E-02  1.12718E-01 -4.39096E-02
    8987.596    -10.552  -0.640  7.38733E-02  1.23747E-01 -4.98742E-02
    8987.785    -10.363  -0.600  7.94853E-02  1.36183E-01 -5.66973E-02
    8987.962    -10.186  -0.560  8.56887E-02  1.50146E-01 -6.44570E-02
    8988.127    -10.021  -0.520  9.25072E-02  1.65709E-01 -7.32020E-02
    8988.279     -9.869  -0.480  9.99278E-02  1.82857E-01 -8.29289E-02
    8988.419     -9.729  -0.440  1.07883E-01  2.01438E-01 -9.35552E-02
    8988.547     -9.601  -0.400  1.16233E-01  2.21130E-01 -1.04897E-01
    8988.663     -9.485  -0.360  1.24765E-01  2.41426E-01 -1.16662E-01
    8988.767     -9.381  -0.320  1.33203E-01  2.61668E-01 -1.28465E-01
    8988.858     -9.290  -0.280  1.41247E-01  2.81123E-01 -1.39876E-01
    8988.937     -9.211  -0.240  1.48613E-01  2.99087E-01 -1.50474E-01
    8989.004     -9.144  -0.200  1.55071E-01  3.14967E-01 -1.59897E-01
    8989.059     -9.089  -0.160  1.60462E-01  3.28331E-01 -1.67869E-01
    8989.102     -9.046  -0.120  1.64700E-01  3.38899E-01 -1.74199E-01
    8989.132     -9.016  -0.080  1.67744E-01  3.46515E-01 -1.78771E-01
    8989.157     -8.991   0.000  1.70197E-01  3.52635E-01 -1.82437E-01
    8989.212     -8.936   0.120  1.75526E-01  3.66437E-01 -1.90912E-01
    8989.254     -8.894   0.160  1.79611E-01  3.77173E-01 -1.97562E-01
    8989.309     -8.839   0.200  1.84726E-01  3.90878E-01 -2.06152E-01
    8989.376     -8.772   0.240  1.90789E-01  4.07397E-01 -2.16607E-01
    8989.455     -8.692   0.280  1.97564E-01  4.26369E-01 -2.28805E-01
    8989.547     -8.601   0.320  2.04847E-01  4.47350E-01 -2.42502E-01
    8989.651     -8.497   0.360  2.12359E-01  4.69714E-01 -2.57355E-01
    8989.766     -8.382   0.400  2.19999E-01  4.92880E-01 -2.72882E-01
    8989.894     -8.254   0.440  2.27663E-01  5.16197E-01 -2.88534E-01
    8990.035     -8.113   0.480  2.35584E-01  5.39262E-01 -3.03678E-01
    8990.187     -7.961   0.520  2.44130E-01  5.61752E-01 -3.17622E-01
    8990.352     -7.796   0.560  2.53918E-01  5.83511E-01 -3.29593E-01
    8990.528     -7.620   0.600  2.65709E-01  6.04520E-01 -3.38811E-01
    8990.717     -7.431   0.640  2.80272E-01  6.24774E-01 -3.44503E-01
    8990.919     -7.229   0.680  2.98208E-01  6.44388E-01 -3.46180E-01
    8991.132     -7.016   0.720  3.19731E-01  6.63408E-01 -3.43677E-01
    8991.357     -6.791   0.760  3.44971E-01  6.81942E-01 -3.36971E-01
    8991.595     -6.553   0.800  3.74275E-01  7.00023E-01 -3.25748E-01
    8991.845     -6.303   0.840  4.08435E-01  7.17732E-01 -3.09297E-01
    8992.107     -6.041   0.880  4.47440E-01  7.35094E-01 -2.87655E-01
    8992.382     -5.766   0.920  4.88977E-01  7.52141E-01 -2.63164E-01
    8992.668     -5.480   0.960  5.28056E-01  7.68848E-01 -2.40792E-01
    8992.967     -5.181   1.000  5.58176E-01  7.85244E-01 -2.27068E-01
    8993.278     -4.870   1.040  5.72566E-01  8.01283E-01 -2.28717E-01
    8993.601     -4.547   1.080  5.68499E-01  8.16957E-01 -2.48458E-01
    8993.936     -4.212   1.120  5.52313E-01  8.32249E-01 -2.79936E-01
    8994.283     -3.864   1.160  5.36683E-01  8.47138E-01 -3.10455E-01
    8994.643     -3.505   1.200  5.32867E-01  8.61560E-01 -3.28693E-01
    8995.015     -3.133   1.240  5.47349E-01  8.75510E-01 -3.28162E-01
    8995.399     -2.749   1.280  5.83458E-01  8.88940E-01 -3.05482E-01
    8995.795     -2.353   1.320  6.39964E-01  9.01822E-01 -2.61858E-01
    8996.204     -1.944   1.360  6.99914E-01  9.14150E-01 -2.14237E-01
    8996.624     -1.524   1.400  7.35788E-01  9.25875E-01 -1.90087E-01
    8997.057     -1.091   1.440  7.48776E-01  9.36993E-01 -1.88217E-01
    8997.502     -0.646   1.480  7.70133E-01  9.47479E-01 -1.77346E-01
    8997.959     -0.189   1.520  8.18649E-01  9.57331E-01 -1.38682E-01
    8998.429      0.281   1.560  8.82864E-01  9.66529E-01 -8.36645E-02
    8998.910      0.762   1.600  9.31609E-01  9.75072E-01 -4.34631E-02
    8999.404      1.256   1.640  9.50766E-01  9.82984E-01 -3.22178E-02
    8999.910      1.762   1.680  9.62430E-01  9.90249E-01 -2.78191E-02
    9000.428      2.280   1.720  1.01038E+00  9.96874E-01  1.35046E-02
    9000.959      2.811   1.760  1.13536E+00  1.00286E+00  1.32493E-01
    9001.501      3.353   1.800  1.33365E+00  1.00825E+00  3.25396E-01
    9002.056      3.908   1.840  1.54595E+00  1.01307E+00  5.32879E-01
    9002.623      4.475   1.880  1.66778E+00  1.01730E+00  6.50476E-01
    9003.202      5.054   1.920  1.63519E+00  1.02101E+00  6.14184E-01
    9003.793      5.645   1.960  1.51119E+00  1.02418E+00  4.87013E-01
    9004.397      6.249   2.000  1.38444E+00  1.02685E+00  3.57586E-01
    9005.012      6.864   2.040  1.28769E+00  1.02908E+00  2.58612E-01
    9005.640      7.492   2.080  1.22591E+00  1.03085E+00  1.95064E-01
    9006.280      8.132   2.120  1.19802E+00  1.03223E+00  1.65793E-01
    9006.933      8.785   2.160  1.19194E+00  1.03320E+00  1.58740E-01
    9007.597      9.449   2.200  1.18258E+00  1.03384E+00  1.48748E-01
    9008.274     10.126   2.240  1.15397E+00  1.03416E+00  1.19817E-01
    9008.963     10.815   2.280  1.11516E+00  1.03416E+00  8.09948E-02
    9009.664     11.516   2.320  1.08332E+00  1.03393E+00  4.93933E-02
    9010.377     12.229   2.360  1.06760E+00  1.03342E+00  3.41776E-02
    9011.102     12.954   2.400  1.06403E+00  1.03270E+00  3.13300E-02
    9011.840     13.692   2.440  1.06823E+00  1.03180E+00  3.64344E-02
    9012.590     14.442   2.480  1.07937E+00  1.03073E+00  4.86402E-02
    9013.352     15.204   2.520  1.09642E+00  1.02950E+00  6.69206E-02
    9014.126     15.978   2.560  1.11523E+00  1.02817E+00  8.70593E-02
    9014.912     16.764   2.600  1.12969E+00  1.02672E+00  1.02973E-01
    9015.711     17.563   2.640  1.13420E+00  1.02518E+00  1.09012E-01
    9016.522     18.374   2.680  1.12581E+00  1.02359E+00  1.02221E-01
    9017.345     19.197   2.720  1.10554E+00  1.02193E+00  8.36038E-02
    9018.180     20.032   2.760  1.07796E+00  1.02026E+00  5.77076E-02
    9019.027     20.879   2.800  1.04743E+00  1.01855E+00  2.88842E-02
    9019.887     21.739   2.840  1.01678E+00  1.01685E+00 -7.81020E-05
    9020.758     22.610   2.880  9.87494E-01  1.01514E+00 -2.76475E-02
    9021.642     23.494   2.920  9.60448E-01  1.01346E+00 -5.30109E-02
    9022.538     24.390   2.960  9.36179E-01  1.01181E+00 -7.56303E-02
    9023.447     25.299   3.000  9.14871E-01  1.01020E+00 -9.53278E-02
    9024.367     26.219   3.040  8.96113E-01  1.00863E+00 -1.12518E-01
    9025.300     27.152   3.080  8.79368E-01  1.00711E+00 -1.27743E-01
    9026.245     28.097   3.120  8.64397E-01  1.00566E+00 -1.41265E-01
    9027.202     29.054   3.160  8.51137E-01  1.00429E+00 -1.53151E-01
    9028.171     30.023   3.200  8.40022E-01  1.00299E+00 -1.62970E-01
    9029.152     31.005   3.240  8.31875E-01  1.00176E+00 -1.69880E-01
    9030.146     31.998   3.280  8.27601E-01  1.00062E+00 -1.73020E-01
    9031.152     33.004   3.320  8.27508E-01  9.99570E-01 -1.72062E-01
    9032.170     34.022   3.360  8.31412E-01  9.98604E-01 -1.67192E-01
    9033.200     35.052   3.400  8.38832E-01  9.97723E-01 -1.58892E-01
    9034.243     36.095   3.440  8.48971E-01  9.96930E-01 -1.47959E-01
    9035.297     37.149   3.480  8.61458E-01  9.96246E-01 -1.34788E-01
    9036.364     38.216   3.520  8.76323E-01  9.95673E-01 -1.19351E-01
    9037.443     39.295   3.560  8.93653E-01  9.95190E-01 -1.01537E-01
    9038.534     40.386   3.600  9.12969E-01  9.94792E-01 -8.18236E-02
    9039.638     41.490   3.640  9.33144E-01  9.94483E-01 -6.13388E-02
    9040.753     42.605   3.680  9.52712E-01  9.94282E-01 -4.15703E-02
    9041.881     43.733   3.720  9.70488E-01  9.94167E-01 -2.36783E-02
    9043.021     44.873   3.760  9.86473E-01  9.94137E-01 -7.66347E-03
    9044.173     46.025   3.800  1.00153E+00  9.94193E-01  7.33479E-03
    9045.337     47.189   3.840  1.01658E+00  9.94354E-01  2.22256E-02
    9046.514     48.366   3.880  1.03185E+00  9.94598E-01  3.72506E-02
    9047.703     49.555   3.920  1.04665E+00  9.94901E-01  5.17539E-02
    9048.903     50.755   3.960  1.05969E+00  9.95304E-01  6.43848E-02
    9050.117     51.969   4.000  1.06950E+00  9.95763E-01  7.37324E-02
    9051.342     53.194   4.040  1.07550E+00  9.96295E-01  7.92022E-02
    9052.579     54.431   4.080  1.07806E+00  9.96878E-01  8.11772E-02
    9053.829     55.681   4.120  1.07833E+00  9.97533E-01  8.07933E-02
    9055.091     56.943   4.160  1.07772E+00  9.98236E-01  7.94817E-02
    9056.365     58.217   4.200  1.07737E+00  9.99007E-01  7.83594E-02
    9057.651     59.503   4.240  1.07779E+00  9.99822E-01  7.79712E-02
    9058.950     60.802   4.280  1.07892E+00  1.00068E+00  7.82415E-02
    9060.260     62.112   4.320  1.08018E+00  1.00155E+00  7.86352E-02
    9061.583     63.435   4.360  1.08049E+00  1.00247E+00  7.80111E-02
    9062.918     64.770   4.400  1.07867E+00  1.00341E+00  7.52531E-02
    9064.265     66.117   4.440  1.07434E+00  1.00436E+00  6.99791E-02
    9065.625     67.477   4.480  1.06808E+00  1.00534E+00  6.27417E-02
    9066.996     68.848   4.520  1.06100E+00  1.00634E+00  5.46559E-02
    9068.380     70.232   4.560  1.05413E+00  1.00732E+00  4.68078E-02
    9069.776     71.628   4.600  1.04819E+00  1.00830E+00  3.98859E-02
    9071.184     73.036   4.640  1.04353E+00  1.00928E+00  3.42536E-02
    9072.605     74.457   4.680  1.04028E+00  1.01025E+00  3.00362E-02
    9074.037     75.889   4.720  1.03832E+00  1.01121E+00  2.71094E-02
    9075.482     77.334   4.760  1.03716E+00  1.01214E+00  2.50212E-02
    9076.939     78.791   4.800  1.03602E+00  1.01304E+00  2.29783E-02
    9078.408     80.260   4.840  1.03384E+00  1.01392E+00  1.99243E-02
    9079.889     81.741   4.880  1.02962E+00  1.01473E+00  1.48826E-02
    9081.383     83.235   4.920  1.02304E+00  1.01553E+00  7.50469E-03
    9082.888     84.741   4.960  1.01475E+00  1.01629E+00 -1.54412E-03
    9084.406     86.258   5.000  1.00632E+00  1.01701E+00 -1.06897E-02
    9085.936     87.789   5.040  9.99570E-01  1.01765E+00 -1.80845E-02
    9087.479     89.331   5.080  9.96002E-01  1.01828E+00 -2.22763E-02
    9089.033     90.885   5.120  9.96128E-01  1.01883E+00 -2.27020E-02
    9090.600     92.452   5.160  9.99428E-01  1.01931E+00 -1.98829E-02
    9092.179     94.031   5.200  1.00443E+00  1.01976E+00 -1.53341E-02
    9093.770     95.622   5.240  1.00888E+00  1.02012E+00 -1.12391E-02
    9095.373     97.225   5.280  1.01063E+00  1.02042E+00 -9.79025E-03
    9096.988     98.841   5.320  1.00829E+00  1.02068E+00 -1.23925E-02
    9098.616    100.468   5.360  1.00207E+00  1.02086E+00 -1.87900E-02
    9100.256    102.108   5.400  9.93443E-01  1.02099E+00 -2.75461E-02
    9101.908    103.760   5.440  9.84551E-01  1.02104E+00 -3.64915E-02
    9103.572    105.424   5.480  9.76914E-01  1.02102E+00 -4.41054E-02
    9105.249    107.101   5.520  9.70804E-01  1.02095E+00 -5.01410E-02
    9106.937    108.789   5.560  9.65584E-01  1.02080E+00 -5.52135E-02
    9108.638    110.490   5.600  9.60757E-01  1.02060E+00 -5.98419E-02
    9110.351    112.203   5.640  9.56476E-01  1.02033E+00 -6.38519E-02
    9112.076    113.928   5.680  9.54044E-01  1.02001E+00 -6.59661E-02
    9113.813    115.665   5.720  9.55033E-01  1.01965E+00 -6.46121E-02
    9115.563    117.415   5.760  9.60414E-01  1.01921E+00 -5.87984E-02
    9117.325    119.177   5.800  9.69777E-01  1.01873E+00 -4.89578E-02
    9119.099    120.951   5.840  9.81063E-01  1.01822E+00 -3.71533E-02
    9120.885    122.737   5.880  9.91460E-01  1.01766E+00 -2.61994E-02
    9122.683    124.535   5.920  9.98924E-01  1.01704E+00 -1.81174E-02
    9124.494    126.346   5.960  1.00320E+00  1.01642E+00 -1.32195E-02
    9126.316    128.168   6.000  1.00533E+00  1.01572E+00 -1.03941E-02
