# # comment:                                                     FEFF 9.9.1  
# # Source:
# # Structure
# # Reduced
# # space
# # abc:
# # angles:
# # sites:
# # POT  SCF 100  7.0000   0, screened core-hole, AFOLP (folp(0)= 1.150)
# # Abs   Z=29 Rmt= 1.224 Rnm= 1.331 K  shell
# # Pot 1 Z= 3 Rmt= 1.286 Rnm= 1.360
# # Pot 2 Z=29 Rmt= 1.224 Rnm= 1.331
# # Pot 3 Z=15 Rmt= 0.939 Rnm= 1.156
# # Pot 4 Z= 8 Rmt= 0.898 Rnm= 1.046
# # Gam_ch=1.729E+00 H-L exch Vi= 0.000E+00 Vr= 0.000E+00
# # Mu=-6.518E+00eV kf=2.391E+00 Vint=-1.673E+01eV Rs_int= 1.517
# FMS rfms= 9.0000
# # PATH  Rmax=-1.000,  Keep_limit= 0.00, Heap_limit 0.00  Pwcrit= 2.50%
#  S02=0.950  Temp=   0.00  Debye_temp=   0.00  Global_sig2= 0.00000
#  Energy zero shift, vr, vi    0.00000E+00   0.00000E+00
#  Curved wave amplitude ratio filter   4.000%
#     file         sig2 tot  cw amp ratio   deg  nlegs   reff  inp sig2
#     0/   0 paths used
#  xsedge+ 50, used to normalize mu           2.4707E-04
#  -----------------------------------------------------------------------
#  omega    e    k    mu    mu0     chi     @#
    8983.570    -10.328  -1.000  4.78830E-02  5.53259E-02 -7.44293E-03
    8983.869    -10.030  -0.960  5.10688E-02  5.94123E-02 -8.34355E-03
    8984.155     -9.743  -0.920  5.45772E-02  6.39602E-02 -9.38293E-03
    8984.429     -9.469  -0.880  5.84519E-02  6.90381E-02 -1.05862E-02
    8984.692     -9.207  -0.840  6.27429E-02  7.47262E-02 -1.19833E-02
    8984.941     -8.957  -0.800  6.75072E-02  8.11172E-02 -1.36100E-02
    8985.179     -8.719  -0.760  7.28095E-02  8.83178E-02 -1.55083E-02
    8985.405     -8.493  -0.720  7.87217E-02  9.64485E-02 -1.77269E-02
    8985.618     -8.280  -0.680  8.53215E-02  1.05642E-01 -2.03209E-02
    8985.819     -8.079  -0.640  9.26896E-02  1.16040E-01 -2.33501E-02
    8986.008     -7.890  -0.600  1.00904E-01  1.27779E-01 -2.68752E-02
    8986.185     -7.713  -0.560  1.10028E-01  1.40978E-01 -3.09503E-02
    8986.350     -7.548  -0.520  1.20097E-01  1.55708E-01 -3.56111E-02
    8986.502     -7.396  -0.480  1.31096E-01  1.71955E-01 -4.08586E-02
    8986.642     -7.256  -0.440  1.42935E-01  1.89575E-01 -4.66399E-02
    8986.770     -7.128  -0.400  1.55427E-01  2.08259E-01 -5.28325E-02
    8986.886     -7.012  -0.360  1.68281E-01  2.27522E-01 -5.92410E-02
    8986.990     -6.908  -0.320  1.81119E-01  2.46733E-01 -6.56139E-02
    8987.081     -6.817  -0.280  1.93510E-01  2.65190E-01 -7.16799E-02
    8987.160     -6.738  -0.240  2.05028E-01  2.82221E-01 -7.71931E-02
    8987.227     -6.671  -0.200  2.15297E-01  2.97265E-01 -8.19675E-02
    8987.282     -6.616  -0.160  2.24022E-01  3.09912E-01 -8.58898E-02
    8987.325     -6.573  -0.120  2.30994E-01  3.19904E-01 -8.89104E-02
    8987.355     -6.543  -0.080  2.36074E-01  3.27098E-01 -9.10245E-02
    8987.380     -6.518   0.000  2.40229E-01  3.32875E-01 -9.26456E-02
    8987.435     -6.463   0.120  2.49360E-01  3.45895E-01 -9.65355E-02
    8987.477     -6.421   0.160  2.56530E-01  3.56010E-01 -9.94799E-02
    8987.532     -6.366   0.200  2.65793E-01  3.68893E-01 -1.03100E-01
    8987.599     -6.299   0.240  2.77179E-01  3.84397E-01 -1.07218E-01
    8987.679     -6.220   0.280  2.90613E-01  4.02134E-01 -1.11520E-01
    8987.770     -6.128   0.320  3.06040E-01  4.21671E-01 -1.15631E-01
    8987.874     -6.024   0.360  3.23344E-01  4.42403E-01 -1.19059E-01
    8987.989     -5.909   0.400  3.42429E-01  4.63704E-01 -1.21275E-01
    8988.117     -5.781   0.440  3.63162E-01  4.84970E-01 -1.21808E-01
    8988.258     -5.640   0.480  3.85438E-01  5.05802E-01 -1.20364E-01
    8988.410     -5.488   0.520  4.08943E-01  5.25860E-01 -1.16918E-01
    8988.575     -5.323   0.560  4.33180E-01  5.45058E-01 -1.11878E-01
    8988.751     -5.147   0.600  4.57308E-01  5.63344E-01 -1.06036E-01
    8988.940     -4.958   0.640  4.80438E-01  5.80761E-01 -1.00323E-01
    8989.142     -4.757   0.680  5.02062E-01  5.97432E-01 -9.53694E-02
    8989.355     -4.543   0.720  5.22244E-01  6.13417E-01 -9.11724E-02
    8989.581     -4.318   0.760  5.41326E-01  6.28876E-01 -8.75499E-02
    8989.818     -4.080   0.800  5.58440E-01  6.43857E-01 -8.54168E-02
    8990.068     -3.830   0.840  5.70962E-01  6.58454E-01 -8.74919E-02
    8990.330     -3.568   0.880  5.76504E-01  6.72749E-01 -9.62449E-02
    8990.605     -3.293   0.920  5.76313E-01  6.86749E-01 -1.10436E-01
    8990.891     -3.007   0.960  5.75373E-01  7.00546E-01 -1.25173E-01
    8991.190     -2.708   1.000  5.78195E-01  7.14103E-01 -1.35907E-01
    8991.501     -2.397   1.040  5.86153E-01  7.27493E-01 -1.41340E-01
    8991.824     -2.074   1.080  5.97542E-01  7.40680E-01 -1.43138E-01
    8992.159     -1.739   1.120  6.10067E-01  7.53682E-01 -1.43616E-01
    8992.507     -1.392   1.160  6.23443E-01  7.66491E-01 -1.43049E-01
    8992.866     -1.032   1.200  6.40383E-01  7.79094E-01 -1.38711E-01
    8993.238     -0.660   1.240  6.63720E-01  7.91478E-01 -1.27758E-01
    8993.622     -0.276   1.280  6.90726E-01  8.03643E-01 -1.12917E-01
    8994.018      0.120   1.320  7.12918E-01  8.15546E-01 -1.02627E-01
    8994.427      0.529   1.360  7.24709E-01  8.27166E-01 -1.02457E-01
    8994.847      0.949   1.400  7.29254E-01  8.38521E-01 -1.09267E-01
    8995.280      1.382   1.440  7.35989E-01  8.49564E-01 -1.13576E-01
    8995.725      1.827   1.480  7.52869E-01  8.60274E-01 -1.07404E-01
    8996.182      2.284   1.520  7.78321E-01  8.70663E-01 -9.23416E-02
    8996.652      2.754   1.560  8.04226E-01  8.80666E-01 -7.64405E-02
    8997.133      3.235   1.600  8.28953E-01  8.90321E-01 -6.13679E-02
    8997.627      3.729   1.640  8.53338E-01  8.99603E-01 -4.62650E-02
    8998.133      4.235   1.680  8.74111E-01  9.08469E-01 -3.43575E-02
    8998.651      4.753   1.720  8.97637E-01  9.16936E-01 -1.92991E-02
    8999.182      5.284   1.760  9.37921E-01  9.25003E-01  1.29184E-02
    8999.724      5.826   1.800  9.95048E-01  9.32670E-01  6.23773E-02
    9000.279      6.381   1.840  1.05654E+00  9.39895E-01  1.16643E-01
    9000.846      6.948   1.880  1.11156E+00  9.46719E-01  1.64843E-01
    9001.425      7.527   1.920  1.15385E+00  9.53144E-01  2.00708E-01
    9002.016      8.118   1.960  1.18056E+00  9.59132E-01  2.21427E-01
    9002.620      8.722   2.000  1.19258E+00  9.64728E-01  2.27853E-01
    9003.235      9.337   2.040  1.19398E+00  9.69913E-01  2.24067E-01
    9003.863      9.965   2.080  1.18940E+00  9.74713E-01  2.14682E-01
    9004.503     10.605   2.120  1.18066E+00  9.79113E-01  2.01543E-01
    9005.156     11.258   2.160  1.16518E+00  9.83160E-01  1.82025E-01
    9005.820     11.922   2.200  1.14174E+00  9.86838E-01  1.54906E-01
    9006.497     12.599   2.240  1.11698E+00  9.90174E-01  1.26805E-01
    9007.186     13.288   2.280  1.10028E+00  9.93156E-01  1.07123E-01
    9007.887     13.989   2.320  1.09484E+00  9.95831E-01  9.90105E-02
    9008.600     14.702   2.360  1.09757E+00  9.98186E-01  9.93847E-02
    9009.325     15.427   2.400  1.10469E+00  1.00025E+00  1.04437E-01
    9010.063     16.165   2.440  1.11471E+00  1.00205E+00  1.12664E-01
    9010.813     16.915   2.480  1.12778E+00  1.00357E+00  1.24204E-01
    9011.575     17.677   2.520  1.14404E+00  1.00485E+00  1.39191E-01
    9012.349     18.451   2.560  1.15908E+00  1.00591E+00  1.53177E-01
    9013.135     19.237   2.600  1.16258E+00  1.00673E+00  1.55846E-01
    9013.934     20.036   2.640  1.14746E+00  1.00737E+00  1.40092E-01
    9014.745     20.847   2.680  1.11618E+00  1.00782E+00  1.08366E-01
    9015.568     21.670   2.720  1.07744E+00  1.00809E+00  6.93470E-02
    9016.403     22.505   2.760  1.04000E+00  1.00820E+00  3.17944E-02
    9017.250     23.352   2.800  1.01153E+00  1.00816E+00  3.36503E-03
    9018.110     24.212   2.840  9.93138E-01  1.00801E+00 -1.48725E-02
    9018.981     25.083   2.880  9.81150E-01  1.00774E+00 -2.65911E-02
    9019.865     25.967   2.920  9.73071E-01  1.00736E+00 -3.42862E-02
    9020.761     26.863   2.960  9.66769E-01  1.00689E+00 -4.01160E-02
    9021.670     27.772   3.000  9.61052E-01  1.00633E+00 -4.52779E-02
    9022.590     28.692   3.040  9.55453E-01  1.00572E+00 -5.02667E-02
    9023.523     29.625   3.080  9.49764E-01  1.00504E+00 -5.52744E-02
    9024.468     30.570   3.120  9.44025E-01  1.00431E+00 -6.02844E-02
    9025.425     31.527   3.160  9.38253E-01  1.00354E+00 -6.52856E-02
    9026.394     32.496   3.200  9.32273E-01  1.00273E+00 -7.04579E-02
    9027.376     33.477   3.240  9.25832E-01  1.00191E+00 -7.60809E-02
    9028.369     34.471   3.280  9.18866E-01  1.00109E+00 -8.22204E-02
    9029.375     35.477   3.320  9.11296E-01  1.00023E+00 -8.89374E-02
    9030.393     36.495   3.360  9.03573E-01  9.99400E-01 -9.58275E-02
    9031.423     37.525   3.400  8.96359E-01  9.98548E-01 -1.02189E-01
    9032.466     38.568   3.440  8.90454E-01  9.97721E-01 -1.07267E-01
    9033.520     39.622   3.480  8.86534E-01  9.96922E-01 -1.10388E-01
    9034.587     40.689   3.520  8.85117E-01  9.96134E-01 -1.11017E-01
    9035.666     41.768   3.560  8.86604E-01  9.95379E-01 -1.08774E-01
    9036.757     42.859   3.600  8.90834E-01  9.94636E-01 -1.03802E-01
    9037.861     43.963   3.640  8.97700E-01  9.93951E-01 -9.62507E-02
    9038.976     45.078   3.680  9.06875E-01  9.93282E-01 -8.64070E-02
    9040.104     46.206   3.720  9.17997E-01  9.92674E-01 -7.46773E-02
    9041.244     47.346   3.760  9.30548E-01  9.92085E-01 -6.15370E-02
    9042.396     48.498   3.800  9.44106E-01  9.91556E-01 -4.74500E-02
    9043.560     49.662   3.840  9.58088E-01  9.91048E-01 -3.29602E-02
    9044.737     50.839   3.880  9.71880E-01  9.90604E-01 -1.87243E-02
    9045.926     52.027   3.920  9.84923E-01  9.90204E-01 -5.28162E-03
    9047.127     53.228   3.960  9.96843E-01  9.89869E-01  6.97376E-03
    9048.340     54.442   4.000  1.00740E+00  9.89556E-01  1.78469E-02
    9049.565     55.667   4.040  1.01672E+00  9.89307E-01  2.74183E-02
    9050.802     56.904   4.080  1.02500E+00  9.89100E-01  3.58961E-02
    9052.052     58.154   4.120  1.03240E+00  9.88937E-01  4.34605E-02
    9053.314     59.416   4.160  1.03909E+00  9.88818E-01  5.02690E-02
    9054.588     60.690   4.200  1.04512E+00  9.88761E-01  5.63609E-02
    9055.874     61.976   4.240  1.05035E+00  9.88746E-01  6.16046E-02
    9057.173     63.275   4.280  1.05444E+00  9.88751E-01  6.56864E-02
    9058.483     64.585   4.320  1.05713E+00  9.88817E-01  6.83179E-02
    9059.806     65.908   4.360  1.05819E+00  9.88922E-01  6.92681E-02
    9061.141     67.243   4.400  1.05755E+00  9.89044E-01  6.85074E-02
    9062.488     68.590   4.440  1.05549E+00  9.89224E-01  6.62638E-02
    9063.848     69.950   4.480  1.05232E+00  9.89422E-01  6.29016E-02
    9065.219     71.321   4.520  1.04847E+00  9.89677E-01  5.87959E-02
    9066.603     72.705   4.560  1.04421E+00  9.89942E-01  5.42652E-02
    9067.999     74.101   4.600  1.03974E+00  9.90219E-01  4.95200E-02
    9069.407     75.509   4.640  1.03519E+00  9.90527E-01  4.46604E-02
    9070.828     76.930   4.680  1.03061E+00  9.90868E-01  3.97423E-02
    9072.260     78.362   4.720  1.02600E+00  9.91216E-01  3.47810E-02
    9073.705     79.807   4.760  1.02133E+00  9.91593E-01  2.97335E-02
    9075.162     81.264   4.800  1.01648E+00  9.91975E-01  2.45053E-02
    9076.631     82.733   4.840  1.01138E+00  9.92359E-01  1.90160E-02
    9078.112     84.214   4.880  1.00601E+00  9.92744E-01  1.32616E-02
    9079.606     85.708   4.920  1.00049E+00  9.93130E-01  7.35799E-03
    9081.112     87.213   4.960  9.95017E-01  9.93540E-01  1.47696E-03
    9082.629     88.731   5.000  9.89713E-01  9.93925E-01 -4.21250E-03
    9084.160     90.261   5.040  9.84729E-01  9.94306E-01 -9.57783E-03
    9085.702     91.804   5.080  9.80185E-01  9.94686E-01 -1.45009E-02
    9087.256     93.358   5.120  9.76268E-01  9.95061E-01 -1.87930E-02
    9088.823     94.925   5.160  9.73257E-01  9.95430E-01 -2.21722E-02
    9090.402     96.504   5.200  9.71409E-01  9.95768E-01 -2.43582E-02
    9091.993     98.095   5.240  9.70817E-01  9.96075E-01 -2.52577E-02
    9093.596     99.698   5.280  9.71378E-01  9.96394E-01 -2.50154E-02
    9095.212    101.313   5.320  9.72768E-01  9.96659E-01 -2.38910E-02
    9096.839    102.941   5.360  9.74776E-01  9.96913E-01 -2.21371E-02
    9098.479    104.581   5.400  9.77157E-01  9.97156E-01 -1.99996E-02
    9100.131    106.233   5.440  9.79583E-01  9.97365E-01 -1.77817E-02
    9101.795    107.897   5.480  9.81691E-01  9.97536E-01 -1.58452E-02
    9103.472    109.573   5.520  9.83122E-01  9.97670E-01 -1.45473E-02
    9105.160    111.262   5.560  9.83604E-01  9.97767E-01 -1.41631E-02
    9106.861    112.963   5.600  9.83038E-01  9.97849E-01 -1.48115E-02
    9108.574    114.676   5.640  9.81484E-01  9.97896E-01 -1.64120E-02
    9110.299    116.401   5.680  9.79219E-01  9.97903E-01 -1.86837E-02
    9112.036    118.138   5.720  9.76645E-01  9.97872E-01 -2.12274E-02
    9113.786    119.888   5.760  9.74165E-01  9.97804E-01 -2.36390E-02
    9115.548    121.650   5.800  9.72116E-01  9.97722E-01 -2.56058E-02
    9117.322    123.424   5.840  9.70670E-01  9.97577E-01 -2.69070E-02
    9119.108    125.210   5.880  9.70042E-01  9.97394E-01 -2.73516E-02
    9120.906    127.008   5.920  9.70411E-01  9.97201E-01 -2.67898E-02
    9122.717    128.818   5.960  9.71809E-01  9.96972E-01 -2.51632E-02
    9124.539    130.641   6.000  9.74194E-01  9.96683E-01 -2.24885E-02
