# # comment:                                                     FEFF 9.9.1  
# # Source:
# # Structure
# # Reduced
# # space
# # abc:
# # angles:
# # sites:
# # POT  SCF 100  7.0000   0, screened core-hole, AFOLP (folp(0)= 1.150)
# # Abs   Z=29 Rmt= 1.280 Rnm= 1.348 K  shell
# # Pot 1 Z= 3 Rmt= 1.347 Rnm= 1.414
# # Pot 2 Z=29 Rmt= 1.287 Rnm= 1.356
# # Pot 3 Z=15 Rmt= 0.942 Rnm= 1.155
# # Pot 4 Z= 8 Rmt= 0.868 Rnm= 1.038
# # Gam_ch=1.729E+00 H-L exch Vi= 0.000E+00 Vr= 0.000E+00
# # Mu=-5.637E+00eV kf=2.479E+00 Vint=-1.714E+01eV Rs_int= 1.463
# FMS rfms= 9.0000
# # PATH  Rmax=-1.000,  Keep_limit= 0.00, Heap_limit 0.00  Pwcrit= 2.50%
#  S02=0.950  Temp=   0.00  Debye_temp=   0.00  Global_sig2= 0.00000
#  Energy zero shift, vr, vi    0.00000E+00   0.00000E+00
#  Curved wave amplitude ratio filter   4.000%
#     file         sig2 tot  cw amp ratio   deg  nlegs   reff  inp sig2
#     0/   0 paths used
#  xsedge+ 50, used to normalize mu           2.4775E-04
#  -----------------------------------------------------------------------
#  omega    e    k    mu    mu0     chi     @#
    8983.439     -9.447  -1.000  4.89696E-02  5.64788E-02 -7.50914E-03
    8983.738     -9.148  -0.960  5.20070E-02  6.06960E-02 -8.68902E-03
    8984.024     -8.861  -0.920  5.53186E-02  6.53943E-02 -1.00758E-02
    8984.299     -8.587  -0.880  5.89378E-02  7.06457E-02 -1.17079E-02
    8984.561     -8.325  -0.840  6.29029E-02  7.65341E-02 -1.36313E-02
    8984.811     -8.075  -0.800  6.72572E-02  8.31573E-02 -1.59001E-02
    8985.049     -7.837  -0.760  7.20494E-02  9.06272E-02 -1.85778E-02
    8985.274     -7.612  -0.720  7.73333E-02  9.90709E-02 -2.17376E-02
    8985.488     -7.398  -0.680  8.31667E-02  1.08628E-01 -2.54618E-02
    8985.689     -7.197  -0.640  8.96089E-02  1.19448E-01 -2.98391E-02
    8985.878     -7.008  -0.600  9.67165E-02  1.31675E-01 -3.49587E-02
    8986.054     -6.831  -0.560  1.04536E-01  1.45435E-01 -4.08995E-02
    8986.219     -6.667  -0.520  1.13092E-01  1.60804E-01 -4.77119E-02
    8986.371     -6.514  -0.480  1.22372E-01  1.77766E-01 -5.53938E-02
    8986.512     -6.374  -0.440  1.32310E-01  1.96172E-01 -6.38617E-02
    8986.640     -6.246  -0.400  1.42770E-01  2.15698E-01 -7.29281E-02
    8986.755     -6.130  -0.360  1.53536E-01  2.35834E-01 -8.22975E-02
    8986.859     -6.027  -0.320  1.64323E-01  2.55916E-01 -9.15926E-02
    8986.951     -5.935  -0.280  1.74796E-01  2.75208E-01 -1.00412E-01
    8987.030     -5.856  -0.240  1.84611E-01  2.93006E-01 -1.08396E-01
    8987.097     -5.789  -0.200  1.93442E-01  3.08722E-01 -1.15280E-01
    8987.152     -5.734  -0.160  2.01016E-01  3.21930E-01 -1.20913E-01
    8987.194     -5.692  -0.120  2.07121E-01  3.32360E-01 -1.25239E-01
    8987.225     -5.661  -0.080  2.11603E-01  3.39867E-01 -1.28264E-01
    8987.249     -5.637   0.000  2.15302E-01  3.45893E-01 -1.30591E-01
    8987.304     -5.582   0.120  2.23458E-01  3.59485E-01 -1.36027E-01
    8987.347     -5.539   0.160  2.29868E-01  3.70010E-01 -1.40142E-01
    8987.402     -5.484   0.200  2.38236E-01  3.83438E-01 -1.45202E-01
    8987.469     -5.417   0.240  2.48577E-01  3.99546E-01 -1.50969E-01
    8987.548     -5.338   0.280  2.60892E-01  4.18003E-01 -1.57111E-01
    8987.639     -5.247   0.320  2.74986E-01  4.38258E-01 -1.63271E-01
    8987.743     -5.143   0.360  2.90602E-01  4.59682E-01 -1.69080E-01
    8987.859     -5.027   0.400  3.07262E-01  4.81630E-01 -1.74368E-01
    8987.987     -4.899   0.440  3.24302E-01  5.03478E-01 -1.79176E-01
    8988.127     -4.759   0.480  3.40958E-01  5.24737E-01 -1.83779E-01
    8988.279     -4.606   0.520  3.56536E-01  5.45111E-01 -1.88575E-01
    8988.444     -4.442   0.560  3.70562E-01  5.64463E-01 -1.93901E-01
    8988.621     -4.265   0.600  3.83040E-01  5.82761E-01 -1.99721E-01
    8988.810     -4.076   0.640  3.94723E-01  6.00077E-01 -2.05355E-01
    8989.011     -3.875   0.680  4.07240E-01  6.16503E-01 -2.09263E-01
    8989.224     -3.662   0.720  4.22704E-01  6.32167E-01 -2.09463E-01
    8989.450     -3.436   0.760  4.42522E-01  6.47161E-01 -2.04638E-01
    8989.688     -3.198   0.800  4.66639E-01  6.61603E-01 -1.94965E-01
    8989.938     -2.948   0.840  4.94554E-01  6.75598E-01 -1.81044E-01
    8990.200     -2.686   0.880  5.27023E-01  6.89217E-01 -1.62193E-01
    8990.474     -2.412   0.920  5.65273E-01  7.02513E-01 -1.37240E-01
    8990.761     -2.125   0.960  6.08784E-01  7.15529E-01 -1.06745E-01
    8991.059     -1.827   1.000  6.55588E-01  7.28314E-01 -7.27258E-02
    8991.370     -1.516   1.040  7.03395E-01  7.40886E-01 -3.74911E-02
    8991.693     -1.193   1.080  7.49221E-01  7.53238E-01 -4.01671E-03
    8992.029     -0.857   1.120  7.90220E-01  7.65410E-01  2.48091E-02
    8992.376     -0.510   1.160  8.26104E-01  7.77383E-01  4.87213E-02
    8992.736     -0.150   1.200  8.60070E-01  7.89168E-01  7.09021E-02
    8993.107      0.222   1.240  8.96718E-01  8.00752E-01  9.59660E-02
    8993.492      0.606   1.280  9.38355E-01  8.12101E-01  1.26254E-01
    8993.888      1.002   1.320  9.81299E-01  8.23258E-01  1.58042E-01
    8994.296      1.410   1.360  1.01756E+00  8.34162E-01  1.83400E-01
    8994.717      1.831   1.400  1.04238E+00  8.44815E-01  1.97566E-01
    8995.150      2.264   1.440  1.05615E+00  8.55191E-01  2.00963E-01
    8995.595      2.709   1.480  1.06843E+00  8.65291E-01  2.03143E-01
    8996.052      3.166   1.520  1.09107E+00  8.75089E-01  2.15984E-01
    8996.521      3.635   1.560  1.12171E+00  8.84583E-01  2.37127E-01
    8997.003      4.117   1.600  1.14586E+00  8.93750E-01  2.52108E-01
    8997.497      4.611   1.640  1.15189E+00  9.02585E-01  2.49302E-01
    8998.003      5.117   1.680  1.14253E+00  9.11087E-01  2.31445E-01
    8998.521      5.635   1.720  1.12555E+00  9.19213E-01  2.06337E-01
    8999.051      6.165   1.760  1.10880E+00  9.26979E-01  1.81819E-01
    8999.594      6.708   1.800  1.09783E+00  9.34385E-01  1.63441E-01
    9000.148      7.262   1.840  1.08937E+00  9.41410E-01  1.47961E-01
    9000.715      7.829   1.880  1.08368E+00  9.48075E-01  1.35605E-01
    9001.294      8.408   1.920  1.08755E+00  9.54339E-01  1.33216E-01
    9001.886      9.000   1.960  1.10357E+00  9.60243E-01  1.43328E-01
    9002.489      9.603   2.000  1.12584E+00  9.65770E-01  1.60069E-01
    9003.105     10.219   2.040  1.14591E+00  9.70922E-01  1.74984E-01
    9003.733     10.847   2.080  1.15866E+00  9.75721E-01  1.82943E-01
    9004.373     11.487   2.120  1.16514E+00  9.80130E-01  1.85007E-01
    9005.025     12.139   2.160  1.16908E+00  9.84217E-01  1.84862E-01
    9005.690     12.804   2.200  1.17197E+00  9.87944E-01  1.84027E-01
    9006.366     13.480   2.240  1.17299E+00  9.91335E-01  1.81652E-01
    9007.055     14.169   2.280  1.16962E+00  9.94397E-01  1.75225E-01
    9007.756     14.870   2.320  1.15902E+00  9.97156E-01  1.61859E-01
    9008.469     15.583   2.360  1.13976E+00  9.99597E-01  1.40166E-01
    9009.195     16.309   2.400  1.11231E+00  1.00175E+00  1.10566E-01
    9009.932     17.046   2.440  1.07962E+00  1.00364E+00  7.59868E-02
    9010.682     17.796   2.480  1.04532E+00  1.00525E+00  4.00687E-02
    9011.444     18.558   2.520  1.01257E+00  1.00661E+00  5.95880E-03
    9012.218     19.332   2.560  9.85210E-01  1.00775E+00 -2.25407E-02
    9013.005     20.119   2.600  9.67193E-01  1.00865E+00 -4.14615E-02
    9013.803     20.917   2.640  9.58704E-01  1.00935E+00 -5.06457E-02
    9014.614     21.728   2.680  9.53918E-01  1.00984E+00 -5.59262E-02
    9015.437     22.551   2.720  9.43827E-01  1.01017E+00 -6.63381E-02
    9016.272     23.386   2.760  9.24737E-01  1.01032E+00 -8.55812E-02
    9017.120     24.234   2.800  9.03484E-01  1.01031E+00 -1.06825E-01
    9017.979     25.093   2.840  8.90805E-01  1.01017E+00 -1.19363E-01
    9018.851     25.965   2.880  8.95886E-01  1.00988E+00 -1.13993E-01
    9019.735     26.849   2.920  9.07697E-01  1.00949E+00 -1.01792E-01
    9020.631     27.745   2.960  9.18745E-01  1.00898E+00 -9.02393E-02
    9021.539     28.653   3.000  9.26556E-01  1.00839E+00 -8.18359E-02
    9022.460     29.574   3.040  9.30566E-01  1.00772E+00 -7.71505E-02
    9023.392     30.506   3.080  9.30944E-01  1.00698E+00 -7.60405E-02
    9024.337     31.451   3.120  9.27939E-01  1.00616E+00 -7.82190E-02
    9025.294     32.408   3.160  9.22646E-01  1.00530E+00 -8.26586E-02
    9026.263     33.378   3.200  9.16559E-01  1.00441E+00 -8.78512E-02
    9027.245     34.359   3.240  9.11255E-01  1.00348E+00 -9.22221E-02
    9028.239     35.353   3.280  9.07892E-01  1.00251E+00 -9.46182E-02
    9029.244     36.359   3.320  9.07057E-01  1.00155E+00 -9.44974E-02
    9030.262     37.377   3.360  9.08991E-01  1.00055E+00 -9.15616E-02
    9031.293     38.407   3.400  9.13975E-01  9.99569E-01 -8.55945E-02
    9032.335     39.449   3.440  9.21682E-01  9.98607E-01 -7.69253E-02
    9033.390     40.504   3.480  9.31324E-01  9.97628E-01 -6.63043E-02
    9034.456     41.571   3.520  9.42212E-01  9.96676E-01 -5.44641E-02
    9035.535     42.650   3.560  9.53676E-01  9.95733E-01 -4.20571E-02
    9036.627     43.741   3.600  9.65252E-01  9.94823E-01 -2.95706E-02
    9037.730     44.844   3.640  9.76714E-01  9.93948E-01 -1.72336E-02
    9038.846     45.960   3.680  9.87947E-01  9.93109E-01 -5.16225E-03
    9039.973     47.087   3.720  9.98761E-01  9.92310E-01  6.45122E-03
    9041.113     48.227   3.760  1.00885E+00  9.91550E-01  1.73007E-02
    9042.265     49.380   3.800  1.01784E+00  9.90830E-01  2.70113E-02
    9043.430     50.544   3.840  1.02535E+00  9.90151E-01  3.51971E-02
    9044.606     51.720   3.880  1.03120E+00  9.89515E-01  4.16842E-02
    9045.795     52.909   3.920  1.03550E+00  9.88943E-01  4.65583E-02
    9046.996     54.110   3.960  1.03850E+00  9.88395E-01  5.01081E-02
    9048.209     55.323   4.000  1.04065E+00  9.87934E-01  5.27124E-02
    9049.434     56.548   4.040  1.04231E+00  9.87496E-01  5.48158E-02
    9050.672     57.786   4.080  1.04382E+00  9.87126E-01  5.66989E-02
    9051.921     59.036   4.120  1.04520E+00  9.86800E-01  5.83987E-02
    9053.183     60.297   4.160  1.04626E+00  9.86518E-01  5.97416E-02
    9054.457     61.571   4.200  1.04673E+00  9.86303E-01  6.04293E-02
    9055.744     62.858   4.240  1.04625E+00  9.86132E-01  6.01220E-02
    9057.042     64.156   4.280  1.04463E+00  9.86005E-01  5.86264E-02
    9058.353     65.467   4.320  1.04198E+00  9.85922E-01  5.60588E-02
    9059.676     66.790   4.360  1.03860E+00  9.85904E-01  5.26938E-02
    9061.011     68.125   4.400  1.03478E+00  9.85927E-01  4.88493E-02
    9062.358     69.472   4.440  1.03080E+00  9.85990E-01  4.48092E-02
    9063.717     70.831   4.480  1.02681E+00  9.86071E-01  4.07430E-02
    9065.089     72.203   4.520  1.02290E+00  9.86214E-01  3.66893E-02
    9066.473     73.587   4.560  1.01897E+00  9.86397E-01  3.25743E-02
    9067.869     74.983   4.600  1.01485E+00  9.86615E-01  2.82358E-02
    9069.277     76.391   4.640  1.01035E+00  9.86847E-01  2.35037E-02
    9070.697     77.811   4.680  1.00544E+00  9.87114E-01  1.83229E-02
    9072.130     79.244   4.720  1.00013E+00  9.87415E-01  1.27177E-02
    9073.574     80.688   4.760  9.94447E-01  9.87749E-01  6.69770E-03
    9075.031     82.145   4.800  9.88387E-01  9.88090E-01  2.97232E-04
    9076.500     83.615   4.840  9.82074E-01  9.88439E-01 -6.36501E-03
    9077.982     85.096   4.880  9.75824E-01  9.88815E-01 -1.29913E-02
    9079.475     86.589   4.920  9.70078E-01  9.89196E-01 -1.91177E-02
    9080.981     88.095   4.960  9.65249E-01  9.89581E-01 -2.43317E-02
    9082.499     89.613   5.000  9.61595E-01  9.89988E-01 -2.83933E-02
    9084.029     91.143   5.040  9.59066E-01  9.90375E-01 -3.13085E-02
    9085.571     92.685   5.080  9.57506E-01  9.90782E-01 -3.32756E-02
    9087.126     94.240   5.120  9.56635E-01  9.91165E-01 -3.45300E-02
    9088.692     95.806   5.160  9.56278E-01  9.91543E-01 -3.52652E-02
    9090.271     97.385   5.200  9.56394E-01  9.91917E-01 -3.55229E-02
    9091.862     98.976   5.240  9.57015E-01  9.92285E-01 -3.52705E-02
    9093.466    100.580   5.280  9.58110E-01  9.92624E-01 -3.45143E-02
    9095.081    102.195   5.320  9.59561E-01  9.92953E-01 -3.33921E-02
    9096.709    103.823   5.360  9.61117E-01  9.93250E-01 -3.21338E-02
    9098.348    105.462   5.400  9.62614E-01  9.93537E-01 -3.09229E-02
    9100.000    107.114   5.440  9.63930E-01  9.93789E-01 -2.98585E-02
    9101.665    108.779   5.480  9.65010E-01  9.94006E-01 -2.89965E-02
    9103.341    110.455   5.520  9.65813E-01  9.94210E-01 -2.83974E-02
    9105.030    112.144   5.560  9.66266E-01  9.94378E-01 -2.81124E-02
    9106.730    113.844   5.600  9.66385E-01  9.94509E-01 -2.81242E-02
    9108.443    115.557   5.640  9.66354E-01  9.94603E-01 -2.82495E-02
    9110.168    117.283   5.680  9.66562E-01  9.94681E-01 -2.81195E-02
    9111.906    119.020   5.720  9.67416E-01  9.94700E-01 -2.72834E-02
    9113.655    120.769   5.760  9.69406E-01  9.94702E-01 -2.52961E-02
    9115.417    122.531   5.800  9.72860E-01  9.94665E-01 -2.18047E-02
    9117.191    124.305   5.840  9.77907E-01  9.94566E-01 -1.66591E-02
    9118.977    126.091   5.880  9.84394E-01  9.94452E-01 -1.00584E-02
    9120.775    127.890   5.920  9.91690E-01  9.94304E-01 -2.61335E-03
    9122.586    129.700   5.960  9.98892E-01  9.94115E-01  4.77755E-03
    9124.409    131.523   6.000  1.00520E+00  9.93863E-01  1.13420E-02
