# # comment:                                                     FEFF 9.9.1  
# # Source:
# # Structure
# # Reduced
# # space
# # abc:
# # angles:109.471220
# # sites:
# # POT  SCF 100  7.0000   0, screened core-hole, AFOLP (folp(0)= 1.150)
# # Abs   Z=29 Rmt= 1.213 Rnm= 1.277 K  shell
# # Pot 1 Z=57 Rmt= 1.880 Rnm= 1.927
# # Pot 2 Z=29 Rmt= 1.213 Rnm= 1.277
# # Pot 3 Z=42 Rmt= 1.201 Rnm= 1.348
# # Pot 4 Z= 8 Rmt= 1.078 Rnm= 1.123
# # Gam_ch=1.729E+00 H-L exch Vi= 0.000E+00 Vr= 0.000E+00
# # Mu=-7.846E+00eV kf=2.065E+00 Vint=-1.774E+01eV Rs_int= 1.756
# FMS rfms= 9.0000
# # PATH  Rmax=-1.000,  Keep_limit= 0.00, Heap_limit 0.00  Pwcrit= 2.50%
#  S02=0.950  Temp=   0.00  Debye_temp=   0.00  Global_sig2= 0.00000
#  Energy zero shift, vr, vi    0.00000E+00   0.00000E+00
#  Curved wave amplitude ratio filter   4.000%
#     file         sig2 tot  cw amp ratio   deg  nlegs   reff  inp sig2
#     0/   0 paths used
#  xsedge+ 50, used to normalize mu           2.4497E-04
#  -----------------------------------------------------------------------
#  omega    e    k    mu    mu0     chi     @#
    8984.770    -11.656  -1.000  3.35691E-02  5.64891E-02 -2.29199E-02
    8985.069    -11.358  -0.960  3.49979E-02  6.06897E-02 -2.56918E-02
    8985.355    -11.071  -0.920  3.65091E-02  6.53664E-02 -2.88573E-02
    8985.629    -10.797  -0.880  3.81117E-02  7.05903E-02 -3.24786E-02
    8985.892    -10.535  -0.840  3.98161E-02  7.64439E-02 -3.66278E-02
    8986.142    -10.285  -0.800  4.16346E-02  8.30232E-02 -4.13886E-02
    8986.379    -10.047  -0.760  4.35819E-02  9.04382E-02 -4.68564E-02
    8986.605     -9.821  -0.720  4.56748E-02  9.88137E-02 -5.31389E-02
    8986.818     -9.608  -0.680  4.79323E-02  1.08287E-01 -6.03546E-02
    8987.019     -9.407  -0.640  5.03746E-02  1.19003E-01 -6.86284E-02
    8987.208     -9.218  -0.600  5.30217E-02  1.31105E-01 -7.80831E-02
    8987.385     -9.041  -0.560  5.58897E-02  1.44714E-01 -8.88248E-02
    8987.550     -8.877  -0.520  5.89865E-02  1.59905E-01 -1.00919E-01
    8987.702     -8.724  -0.480  6.23035E-02  1.76663E-01 -1.14359E-01
    8987.842     -8.584  -0.440  6.58086E-02  1.94839E-01 -1.29031E-01
    8987.970     -8.456  -0.400  6.94387E-02  2.14116E-01 -1.44677E-01
    8988.086     -8.340  -0.360  7.30986E-02  2.33991E-01 -1.60893E-01
    8988.190     -8.236  -0.320  7.66692E-02  2.53813E-01 -1.77144E-01
    8988.281     -8.145  -0.280  8.00240E-02  2.72859E-01 -1.92835E-01
    8988.360     -8.066  -0.240  8.30498E-02  2.90434E-01 -2.07384E-01
    8988.427     -7.999  -0.200  8.56624E-02  3.05959E-01 -2.20296E-01
    8988.482     -7.944  -0.160  8.78119E-02  3.19011E-01 -2.31199E-01
    8988.525     -7.901  -0.120  8.94774E-02  3.29323E-01 -2.39845E-01
    8988.556     -7.871  -0.080  9.06567E-02  3.36747E-01 -2.46091E-01
    8988.580     -7.846   0.000  9.15893E-02  3.42710E-01 -2.51121E-01
    8988.635     -7.791   0.120  9.37743E-02  3.56144E-01 -2.62370E-01
    8988.677     -7.749   0.160  9.53662E-02  3.66569E-01 -2.71202E-01
    8988.732     -7.694   0.200  9.73567E-02  3.79880E-01 -2.82524E-01
    8988.799     -7.627   0.240  9.96211E-02  3.95868E-01 -2.96247E-01
    8988.879     -7.548   0.280  1.02062E-01  4.14192E-01 -3.12130E-01
    8988.970     -7.456   0.320  1.04565E-01  4.34344E-01 -3.29779E-01
    8989.074     -7.353   0.360  1.07043E-01  4.55719E-01 -3.48676E-01
    8989.189     -7.237   0.400  1.09488E-01  4.77674E-01 -3.68186E-01
    8989.318     -7.109   0.440  1.11955E-01  4.99624E-01 -3.87669E-01
    8989.458     -6.969   0.480  1.14590E-01  5.21076E-01 -4.06485E-01
    8989.610     -6.816   0.520  1.17629E-01  5.41760E-01 -4.24131E-01
    8989.775     -6.652   0.560  1.21286E-01  5.61525E-01 -4.40239E-01
    8989.951     -6.475   0.600  1.25715E-01  5.80316E-01 -4.54601E-01
    8990.140     -6.286   0.640  1.31051E-01  5.98237E-01 -4.67186E-01
    8990.342     -6.085   0.680  1.37214E-01  6.15312E-01 -4.78098E-01
    8990.555     -5.871   0.720  1.44136E-01  6.31706E-01 -4.87570E-01
    8990.781     -5.646   0.760  1.51495E-01  6.47498E-01 -4.96003E-01
    8991.018     -5.408   0.800  1.58914E-01  6.62778E-01 -5.03864E-01
    8991.268     -5.158   0.840  1.66118E-01  6.77625E-01 -5.11506E-01
    8991.530     -4.896   0.880  1.73389E-01  6.92117E-01 -5.18727E-01
    8991.805     -4.622   0.920  1.81689E-01  7.06284E-01 -5.24595E-01
    8992.091     -4.335   0.960  1.92708E-01  7.20178E-01 -5.27470E-01
    8992.390     -4.036   1.000  2.08681E-01  7.33801E-01 -5.25119E-01
    8992.701     -3.725   1.040  2.32125E-01  7.47186E-01 -5.15061E-01
    8993.024     -3.402   1.080  2.65195E-01  7.60339E-01 -4.95144E-01
    8993.359     -3.067   1.120  3.07018E-01  7.73235E-01 -4.66217E-01
    8993.707     -2.720   1.160  3.47820E-01  7.85887E-01 -4.38067E-01
    8994.066     -2.360   1.200  3.71242E-01  7.98263E-01 -4.27021E-01
    8994.438     -1.988   1.240  3.77492E-01  8.10387E-01 -4.32895E-01
    8994.822     -1.604   1.280  3.86964E-01  8.22201E-01 -4.35236E-01
    8995.218     -1.208   1.320  4.16768E-01  8.33723E-01 -4.16955E-01
    8995.627     -0.799   1.360  4.74933E-01  8.44913E-01 -3.69980E-01
    8996.047     -0.379   1.400  5.65982E-01  8.55748E-01 -2.89766E-01
    8996.480      0.054   1.440  6.91309E-01  8.66244E-01 -1.74935E-01
    8996.925      0.499   1.480  8.46863E-01  8.76379E-01 -2.95161E-02
    8997.382      0.956   1.520  1.02881E+00  8.86109E-01  1.42698E-01
    8997.852      1.426   1.560  1.24521E+00  8.95451E-01  3.49756E-01
    8998.333      1.907   1.600  1.48949E+00  9.04383E-01  5.85102E-01
    8998.827      2.401   1.640  1.71169E+00  9.12904E-01  7.98783E-01
    8999.333      2.907   1.680  1.83865E+00  9.20993E-01  9.17653E-01
    8999.851      3.425   1.720  1.81275E+00  9.28670E-01  8.84083E-01
    9000.382      3.955   1.760  1.67417E+00  9.35913E-01  7.38256E-01
    9000.924      4.498   1.800  1.53904E+00  9.42726E-01  5.96313E-01
    9001.479      5.053   1.840  1.45479E+00  9.49132E-01  5.05655E-01
    9002.046      5.620   1.880  1.39856E+00  9.55091E-01  4.43464E-01
    9002.625      6.199   1.920  1.36689E+00  9.60651E-01  4.06237E-01
    9003.216      6.790   1.960  1.33562E+00  9.65815E-01  3.69802E-01
    9003.820      7.394   2.000  1.29409E+00  9.70567E-01  3.23524E-01
    9004.436      8.009   2.040  1.24541E+00  9.74914E-01  2.70495E-01
    9005.063      8.637   2.080  1.20537E+00  9.78903E-01  2.26465E-01
    9005.703      9.277   2.120  1.18107E+00  9.82543E-01  1.98528E-01
    9006.356      9.930   2.160  1.16380E+00  9.85820E-01  1.77983E-01
    9007.020     10.594   2.200  1.14065E+00  9.88759E-01  1.51891E-01
    9007.697     11.271   2.240  1.11380E+00  9.91392E-01  1.22408E-01
    9008.386     11.959   2.280  1.09491E+00  9.93707E-01  1.01204E-01
    9009.087     12.661   2.320  1.08643E+00  9.95751E-01  9.06738E-02
    9009.800     13.374   2.360  1.08198E+00  9.97513E-01  8.44695E-02
    9010.525     14.099   2.400  1.07966E+00  9.99021E-01  8.06428E-02
    9011.263     14.837   2.440  1.08062E+00  1.00029E+00  8.03319E-02
    9012.013     15.587   2.480  1.07959E+00  1.00133E+00  7.82538E-02
    9012.775     16.349   2.520  1.06690E+00  1.00219E+00  6.47101E-02
    9013.549     17.123   2.560  1.04412E+00  1.00284E+00  4.12872E-02
    9014.335     17.909   2.600  1.01677E+00  1.00333E+00  1.34423E-02
    9015.134     18.708   2.640  9.88605E-01  1.00366E+00 -1.50519E-02
    9015.945     19.518   2.680  9.61512E-01  1.00383E+00 -4.23181E-02
    9016.768     20.341   2.720  9.36304E-01  1.00390E+00 -6.75933E-02
    9017.603     21.177   2.760  9.13107E-01  1.00384E+00 -9.07365E-02
    9018.450     22.024   2.800  8.92621E-01  1.00367E+00 -1.11054E-01
    9019.310     22.883   2.840  8.76281E-01  1.00342E+00 -1.27137E-01
    9020.181     23.755   2.880  8.65006E-01  1.00310E+00 -1.38095E-01
    9021.065     24.639   2.920  8.58890E-01  1.00271E+00 -1.43820E-01
    9021.961     25.535   2.960  8.57299E-01  1.00225E+00 -1.44949E-01
    9022.870     26.444   3.000  8.58177E-01  1.00176E+00 -1.43585E-01
    9023.790     27.364   3.040  8.58256E-01  1.00124E+00 -1.42982E-01
    9024.723     28.297   3.080  8.55633E-01  1.00068E+00 -1.45046E-01
    9025.668     29.242   3.120  8.50962E-01  1.00011E+00 -1.49149E-01
    9026.625     30.199   3.160  8.45107E-01  9.99536E-01 -1.54429E-01
    9027.594     31.168   3.200  8.38861E-01  9.98960E-01 -1.60099E-01
    9028.576     32.149   3.240  8.33514E-01  9.98385E-01 -1.64871E-01
    9029.569     33.143   3.280  8.30079E-01  9.97814E-01 -1.67735E-01
    9030.575     34.149   3.320  8.29343E-01  9.97273E-01 -1.67931E-01
    9031.593     35.167   3.360  8.31863E-01  9.96763E-01 -1.64901E-01
    9032.623     36.197   3.400  8.37849E-01  9.96265E-01 -1.58416E-01
    9033.666     37.239   3.440  8.47236E-01  9.95802E-01 -1.48566E-01
    9034.720     38.294   3.480  8.60202E-01  9.95375E-01 -1.35172E-01
    9035.787     39.361   3.520  8.76999E-01  9.94986E-01 -1.17987E-01
    9036.866     40.440   3.560  8.97633E-01  9.94637E-01 -9.70038E-02
    9037.957     41.531   3.600  9.21892E-01  9.94328E-01 -7.24358E-02
    9039.061     42.634   3.640  9.49445E-01  9.94059E-01 -4.46144E-02
    9040.176     43.750   3.680  9.79531E-01  9.93833E-01 -1.43017E-02
    9041.304     44.878   3.720  1.01098E+00  9.93651E-01  1.73338E-02
    9042.444     46.018   3.760  1.04242E+00  9.93533E-01  4.88863E-02
    9043.596     47.170   3.800  1.07168E+00  9.93461E-01  7.82178E-02
    9044.760     48.334   3.840  1.09613E+00  9.93432E-01  1.02702E-01
    9045.937     49.511   3.880  1.11344E+00  9.93468E-01  1.19970E-01
    9047.126     50.699   3.920  1.12219E+00  9.93526E-01  1.28666E-01
    9048.327     51.900   3.960  1.12246E+00  9.93647E-01  1.28812E-01
    9049.540     53.113   4.000  1.11581E+00  9.93812E-01  1.21996E-01
    9050.765     54.339   4.040  1.10482E+00  9.94019E-01  1.10803E-01
    9052.002     55.576   4.080  1.09232E+00  9.94266E-01  9.80544E-02
    9053.252     56.826   4.120  1.08077E+00  9.94555E-01  8.62113E-02
    9054.514     58.088   4.160  1.07184E+00  9.94904E-01  7.69409E-02
    9055.788     59.362   4.200  1.06634E+00  9.95268E-01  7.10716E-02
    9057.074     60.648   4.240  1.06426E+00  9.95648E-01  6.86085E-02
    9058.373     61.946   4.280  1.06480E+00  9.96084E-01  6.87112E-02
    9059.683     63.257   4.320  1.06648E+00  9.96556E-01  6.99189E-02
    9061.006     64.580   4.360  1.06777E+00  9.97039E-01  7.07295E-02
    9062.341     65.915   4.400  1.06805E+00  9.97530E-01  7.05251E-02
    9063.688     67.262   4.440  1.06794E+00  9.98052E-01  6.98900E-02
    9065.048     68.622   4.480  1.06855E+00  9.98604E-01  6.99502E-02
    9066.419     69.993   4.520  1.07062E+00  9.99161E-01  7.14595E-02
    9067.803     71.377   4.560  1.07379E+00  9.99722E-01  7.40678E-02
    9069.199     72.773   4.600  1.07630E+00  1.00029E+00  7.60117E-02
    9070.607     74.181   4.640  1.07536E+00  1.00087E+00  7.44906E-02
    9072.028     75.601   4.680  1.06808E+00  1.00144E+00  6.66398E-02
    9073.460     77.034   4.720  1.05282E+00  1.00202E+00  5.08003E-02
    9074.905     78.479   4.760  1.03011E+00  1.00258E+00  2.75353E-02
    9076.362     79.936   4.800  1.00288E+00  1.00313E+00 -2.58082E-04
    9077.831     81.405   4.840  9.75358E-01  1.00368E+00 -2.83224E-02
    9079.312     82.886   4.880  9.51711E-01  1.00420E+00 -5.24860E-02
    9080.806     84.380   4.920  9.34827E-01  1.00471E+00 -6.98782E-02
    9082.312     85.885   4.960  9.25888E-01  1.00520E+00 -7.93171E-02
    9083.829     87.403   5.000  9.24716E-01  1.00567E+00 -8.09545E-02
    9085.360     88.933   5.040  9.30137E-01  1.00610E+00 -7.59613E-02
    9086.902     90.476   5.080  9.40180E-01  1.00649E+00 -6.63103E-02
    9088.456     92.030   5.120  9.51954E-01  1.00687E+00 -5.49131E-02
    9090.023     93.597   5.160  9.62056E-01  1.00721E+00 -4.51516E-02
    9091.602     95.176   5.200  9.67945E-01  1.00751E+00 -3.95637E-02
    9093.193     96.767   5.240  9.69030E-01  1.00777E+00 -3.87415E-02
    9094.796     98.370   5.280  9.66582E-01  1.00802E+00 -4.14345E-02
    9096.412     99.985   5.320  9.62333E-01  1.00820E+00 -4.58657E-02
    9098.039    101.613   5.360  9.57605E-01  1.00834E+00 -5.07343E-02
    9099.679    103.253   5.400  9.53113E-01  1.00846E+00 -5.53470E-02
    9101.331    104.905   5.440  9.49293E-01  1.00852E+00 -5.92240E-02
    9102.995    106.569   5.480  9.46803E-01  1.00853E+00 -6.17263E-02
    9104.672    108.245   5.520  9.46703E-01  1.00850E+00 -6.17959E-02
    9106.360    109.934   5.560  9.50042E-01  1.00843E+00 -5.83864E-02
    9108.061    111.635   5.600  9.57092E-01  1.00832E+00 -5.12244E-02
    9109.774    113.348   5.640  9.66562E-01  1.00816E+00 -4.16010E-02
    9111.499    115.073   5.680  9.76539E-01  1.00797E+00 -3.14293E-02
    9113.236    116.810   5.720  9.84892E-01  1.00773E+00 -2.28422E-02
    9114.986    118.560   5.760  9.90514E-01  1.00746E+00 -1.69461E-02
    9116.748    120.322   5.800  9.93868E-01  1.00715E+00 -1.32788E-02
    9118.522    122.095   5.840  9.96555E-01  1.00679E+00 -1.02398E-02
    9120.308    123.882   5.880  1.00009E+00  1.00641E+00 -6.31893E-03
    9122.106    125.680   5.920  1.00542E+00  1.00601E+00 -5.98683E-04
    9123.917    127.490   5.960  1.01146E+00  1.00556E+00  5.90172E-03
    9125.739    129.313   6.000  1.01732E+00  1.00508E+00  1.22386E-02
