# # comment:                                                     FEFF 9.9.1  
# # Source:
# # Structure
# # Reduced
# # space
# # abc:
# # angles:
# # sites:
# # POT  SCF 100  7.0000   0, screened core-hole, AFOLP (folp(0)= 1.150)
# # Abs   Z=29 Rmt= 1.340 Rnm= 1.401 K  shell
# # Pot 1 Z= 3 Rmt= 1.281 Rnm= 1.340
# # Pot 2 Z=29 Rmt= 1.334 Rnm= 1.394
# # Pot 3 Z=15 Rmt= 0.946 Rnm= 1.156
# # Pot 4 Z= 8 Rmt= 0.938 Rnm= 1.038
# # Gam_ch=1.729E+00 H-L exch Vi= 0.000E+00 Vr= 0.000E+00
# # Mu=-6.349E+00eV kf=2.372E+00 Vint=-1.736E+01eV Rs_int= 1.529
# FMS rfms= 9.0000
# # PATH  Rmax=-1.000,  Keep_limit= 0.00, Heap_limit 0.00  Pwcrit= 2.50%
#  S02=0.950  Temp=   0.00  Debye_temp=   0.00  Global_sig2= 0.00000
#  Energy zero shift, vr, vi    0.00000E+00   0.00000E+00
#  Curved wave amplitude ratio filter   4.000%
#     file         sig2 tot  cw amp ratio   deg  nlegs   reff  inp sig2
#     0/   0 paths used
#  xsedge+ 50, used to normalize mu           2.4683E-04
#  -----------------------------------------------------------------------
#  omega    e    k    mu    mu0     chi     @#
    8983.622    -10.159  -1.000  4.79652E-02  5.44306E-02 -6.46536E-03
    8983.920     -9.860  -0.960  5.09372E-02  5.84085E-02 -7.47132E-03
    8984.207     -9.574  -0.920  5.41812E-02  6.28327E-02 -8.65156E-03
    8984.481     -9.299  -0.880  5.77310E-02  6.77694E-02 -1.00384E-02
    8984.743     -9.037  -0.840  6.16255E-02  7.32959E-02 -1.16704E-02
    8984.993     -8.787  -0.800  6.59086E-02  7.95016E-02 -1.35930E-02
    8985.231     -8.550  -0.760  7.06299E-02  8.64895E-02 -1.58596E-02
    8985.456     -8.324  -0.720  7.58441E-02  9.43758E-02 -1.85317E-02
    8985.670     -8.111  -0.680  8.16103E-02  1.03289E-01 -2.16785E-02
    8985.871     -7.910  -0.640  8.79892E-02  1.13364E-01 -2.53749E-02
    8986.060     -7.721  -0.600  9.50383E-02  1.24735E-01 -2.96964E-02
    8986.237     -7.544  -0.560  1.02804E-01  1.37515E-01 -3.47108E-02
    8986.401     -7.379  -0.520  1.11309E-01  1.51773E-01 -4.04635E-02
    8986.554     -7.227  -0.480  1.20536E-01  1.67494E-01 -4.69579E-02
    8986.694     -7.087  -0.440  1.30408E-01  1.84541E-01 -5.41328E-02
    8986.822     -6.959  -0.400  1.40771E-01  2.02614E-01 -6.18429E-02
    8986.938     -6.843  -0.360  1.51390E-01  2.21243E-01 -6.98534E-02
    8987.041     -6.739  -0.320  1.61961E-01  2.39820E-01 -7.78589E-02
    8987.133     -6.648  -0.280  1.72142E-01  2.57667E-01 -8.55248E-02
    8987.212     -6.568  -0.240  1.81594E-01  2.74134E-01 -9.25405E-02
    8987.279     -6.501  -0.200  1.90016E-01  2.88679E-01 -9.86628E-02
    8987.334     -6.446  -0.160  1.97172E-01  3.00907E-01 -1.03736E-01
    8987.377     -6.404  -0.120  2.02883E-01  3.10568E-01 -1.07685E-01
    8987.407     -6.373  -0.080  2.07031E-01  3.17523E-01 -1.10493E-01
    8987.432     -6.349   0.000  2.10385E-01  3.23109E-01 -1.12725E-01
    8987.486     -6.294   0.120  2.18177E-01  3.35711E-01 -1.17534E-01
    8987.529     -6.251   0.160  2.24271E-01  3.45484E-01 -1.21214E-01
    8987.584     -6.197   0.200  2.32177E-01  3.57949E-01 -1.25772E-01
    8987.651     -6.129   0.240  2.41911E-01  3.72923E-01 -1.31011E-01
    8987.730     -6.050   0.280  2.53483E-01  3.90088E-01 -1.36606E-01
    8987.822     -5.959   0.320  2.66871E-01  4.08988E-01 -1.42117E-01
    8987.925     -5.855   0.360  2.82017E-01  4.29035E-01 -1.47019E-01
    8988.041     -5.739   0.400  2.98927E-01  4.49650E-01 -1.50722E-01
    8988.169     -5.611   0.440  3.17541E-01  4.70242E-01 -1.52701E-01
    8988.309     -5.471   0.480  3.37814E-01  4.90431E-01 -1.52617E-01
    8988.462     -5.319   0.520  3.59359E-01  5.09890E-01 -1.50531E-01
    8988.626     -5.154   0.560  3.81471E-01  5.28535E-01 -1.47064E-01
    8988.803     -4.977   0.600  4.02826E-01  5.46317E-01 -1.43491E-01
    8988.992     -4.788   0.640  4.21859E-01  5.63302E-01 -1.41442E-01
    8989.193     -4.587   0.680  4.37266E-01  5.79592E-01 -1.42326E-01
    8989.407     -4.374   0.720  4.48707E-01  5.95284E-01 -1.46577E-01
    8989.632     -4.148   0.760  4.57294E-01  6.10497E-01 -1.53203E-01
    8989.870     -3.911   0.800  4.65653E-01  6.25320E-01 -1.59666E-01
    8990.120     -3.661   0.840  4.77523E-01  6.39824E-01 -1.62301E-01
    8990.382     -3.398   0.880  4.96443E-01  6.54073E-01 -1.57630E-01
    8990.656     -3.124   0.920  5.24107E-01  6.68154E-01 -1.44047E-01
    8990.943     -2.838   0.960  5.59460E-01  6.82058E-01 -1.22598E-01
    8991.242     -2.539   1.000  5.98815E-01  6.95871E-01 -9.70557E-02
    8991.552     -2.228   1.040  6.36133E-01  7.09564E-01 -7.34309E-02
    8991.876     -1.905   1.080  6.66825E-01  7.23143E-01 -5.63188E-02
    8992.211     -1.570   1.120  6.91902E-01  7.36648E-01 -4.47459E-02
    8992.558     -1.222   1.160  7.16011E-01  7.50027E-01 -3.40164E-02
    8992.918     -0.863   1.200  7.43393E-01  7.63311E-01 -1.99178E-02
    8993.290     -0.491   1.240  7.76955E-01  7.76482E-01  4.73268E-04
    8993.674     -0.107   1.280  8.17184E-01  7.89479E-01  2.77043E-02
    8994.070      0.290   1.320  8.60733E-01  8.02343E-01  5.83901E-02
    8994.479      0.698   1.360  9.02848E-01  8.15006E-01  8.78418E-02
    8994.899      1.119   1.400  9.41842E-01  8.27443E-01  1.14399E-01
    8995.332      1.551   1.440  9.80663E-01  8.39668E-01  1.40994E-01
    8995.777      1.996   1.480  1.02476E+00  8.51632E-01  1.73126E-01
    8996.234      2.454   1.520  1.07928E+00  8.63326E-01  2.15958E-01
    8996.704      2.923   1.560  1.14179E+00  8.74703E-01  2.67083E-01
    8997.185      3.405   1.600  1.20027E+00  8.85751E-01  3.14518E-01
    8997.679      3.898   1.640  1.24987E+00  8.96462E-01  3.53413E-01
    8998.185      4.404   1.680  1.29317E+00  9.06789E-01  3.86384E-01
    8998.703      4.923   1.720  1.32282E+00  9.16724E-01  4.06096E-01
    8999.233      5.453   1.760  1.32783E+00  9.26261E-01  4.01566E-01
    8999.776      5.995   1.800  1.29752E+00  9.35393E-01  3.62122E-01
    9000.331      6.550   1.840  1.23274E+00  9.44074E-01  2.88669E-01
    9000.898      7.117   1.880  1.15337E+00  9.52320E-01  2.01047E-01
    9001.477      7.696   1.920  1.08683E+00  9.60108E-01  1.26719E-01
    9002.068      8.287   1.960  1.04557E+00  9.67436E-01  7.81321E-02
    9002.672      8.891   2.000  1.02654E+00  9.74301E-01  5.22437E-02
    9003.287      9.507   2.040  1.02233E+00  9.80706E-01  4.16244E-02
    9003.915     10.135   2.080  1.02473E+00  9.86650E-01  3.80756E-02
    9004.555     10.775   2.120  1.02838E+00  9.92137E-01  3.62443E-02
    9005.207     11.427   2.160  1.03181E+00  9.97168E-01  3.46449E-02
    9005.872     12.091   2.200  1.03223E+00  1.00177E+00  3.04651E-02
    9006.549     12.768   2.240  1.02741E+00  1.00590E+00  2.15064E-02
    9007.237     13.457   2.280  1.02194E+00  1.00961E+00  1.23329E-02
    9007.938     14.158   2.320  1.02275E+00  1.01293E+00  9.82525E-03
    9008.652     14.871   2.360  1.02863E+00  1.01581E+00  1.28209E-02
    9009.377     15.597   2.400  1.03124E+00  1.01832E+00  1.29201E-02
    9010.115     16.334   2.440  1.02519E+00  1.02045E+00  4.73898E-03
    9010.864     17.084   2.480  1.01381E+00  1.02222E+00 -8.41383E-03
    9011.626     17.846   2.520  1.00331E+00  1.02366E+00 -2.03496E-02
    9012.401     18.620   2.560  9.94647E-01  1.02477E+00 -3.01199E-02
    9013.187     19.407   2.600  9.85636E-01  1.02558E+00 -3.99437E-02
    9013.986     20.205   2.640  9.76191E-01  1.02611E+00 -4.99161E-02
    9014.796     21.016   2.680  9.66645E-01  1.02636E+00 -5.97113E-02
    9015.619     21.839   2.720  9.54174E-01  1.02638E+00 -7.22050E-02
    9016.455     22.674   2.760  9.36617E-01  1.02616E+00 -8.95468E-02
    9017.302     23.521   2.800  9.20685E-01  1.02574E+00 -1.05054E-01
    9018.161     24.381   2.840  9.11545E-01  1.02512E+00 -1.13572E-01
    9019.033     25.253   2.880  9.08658E-01  1.02432E+00 -1.15666E-01
    9019.917     26.137   2.920  9.09602E-01  1.02337E+00 -1.13769E-01
    9020.813     27.033   2.960  9.11765E-01  1.02229E+00 -1.10522E-01
    9021.721     27.941   3.000  9.14223E-01  1.02108E+00 -1.06858E-01
    9022.642     28.861   3.040  9.17024E-01  1.01978E+00 -1.02756E-01
    9023.575     29.794   3.080  9.20417E-01  1.01837E+00 -9.79573E-02
    9024.519     30.739   3.120  9.24835E-01  1.01691E+00 -9.20767E-02
    9025.477     31.696   3.160  9.30560E-01  1.01540E+00 -8.48371E-02
    9026.446     32.665   3.200  9.37439E-01  1.01382E+00 -7.63796E-02
    9027.427     33.647   3.240  9.45485E-01  1.01222E+00 -6.67367E-02
    9028.421     34.640   3.280  9.54574E-01  1.01059E+00 -5.60207E-02
    9029.427     35.646   3.320  9.64404E-01  1.00896E+00 -4.45571E-02
    9030.445     36.664   3.360  9.74631E-01  1.00733E+00 -3.26967E-02
    9031.475     37.694   3.400  9.84796E-01  1.00572E+00 -2.09257E-02
    9032.517     38.737   3.440  9.94272E-01  1.00413E+00 -9.85457E-03
    9033.572     39.791   3.480  1.00278E+00  1.00257E+00  2.11129E-04
    9034.639     40.858   3.520  1.01049E+00  1.00104E+00  9.44127E-03
    9035.718     41.937   3.560  1.01794E+00  9.99588E-01  1.83482E-02
    9036.809     43.028   3.600  1.02565E+00  9.98156E-01  2.74929E-02
    9037.912     44.132   3.640  1.03402E+00  9.96815E-01  3.72064E-02
    9039.028     45.247   3.680  1.04301E+00  9.95506E-01  4.75084E-02
    9040.156     46.375   3.720  1.05238E+00  9.94292E-01  5.80930E-02
    9041.296     47.515   3.760  1.06165E+00  9.93156E-01  6.84896E-02
    9042.448     48.667   3.800  1.07016E+00  9.92079E-01  7.80804E-02
    9043.612     49.832   3.840  1.07724E+00  9.91103E-01  8.61344E-02
    9044.789     51.008   3.880  1.08225E+00  9.90211E-01  9.20344E-02
    9045.977     52.197   3.920  1.08476E+00  9.89400E-01  9.53631E-02
    9047.178     53.398   3.960  1.08461E+00  9.88673E-01  9.59323E-02
    9048.391     54.611   4.000  1.08178E+00  9.88030E-01  9.37529E-02
    9049.617     55.836   4.040  1.07658E+00  9.87493E-01  8.90894E-02
    9050.854     57.074   4.080  1.06922E+00  9.87041E-01  8.21825E-02
    9052.104     58.323   4.120  1.05988E+00  9.86673E-01  7.32075E-02
    9053.366     59.585   4.160  1.04868E+00  9.86388E-01  6.22957E-02
    9054.640     60.859   4.200  1.03589E+00  9.86208E-01  4.96781E-02
    9055.926     62.145   4.240  1.02175E+00  9.86089E-01  3.56599E-02
    9057.224     63.444   4.280  1.00679E+00  9.86072E-01  2.07194E-02
    9058.535     64.755   4.320  9.91615E-01  9.86137E-01  5.47790E-03
    9059.858     66.077   4.360  9.76895E-01  9.86259E-01 -9.36430E-03
    9061.193     67.412   4.400  9.63452E-01  9.86479E-01 -2.30268E-02
    9062.540     68.760   4.440  9.52025E-01  9.86753E-01 -3.47275E-02
    9063.899     70.119   4.480  9.43214E-01  9.87101E-01 -4.38872E-02
    9065.271     71.491   4.520  9.37252E-01  9.87499E-01 -5.02471E-02
    9066.655     72.874   4.560  9.34061E-01  9.87968E-01 -5.39070E-02
    9068.051     74.270   4.600  9.33239E-01  9.88505E-01 -5.52661E-02
    9069.459     75.678   4.640  9.34208E-01  9.89065E-01 -5.48573E-02
    9070.879     77.099   4.680  9.36605E-01  9.89687E-01 -5.30828E-02
    9072.312     78.531   4.720  9.40124E-01  9.90328E-01 -5.02042E-02
    9073.757     79.976   4.760  9.44739E-01  9.91026E-01 -4.62863E-02
    9075.214     81.433   4.800  9.50427E-01  9.91735E-01 -4.13080E-02
    9076.683     82.902   4.840  9.57159E-01  9.92454E-01 -3.52951E-02
    9078.164     84.384   4.880  9.64848E-01  9.93202E-01 -2.83548E-02
    9079.658     85.877   4.920  9.73272E-01  9.93979E-01 -2.07062E-02
    9081.163     87.383   4.960  9.81969E-01  9.94736E-01 -1.27670E-02
    9082.681     88.901   5.000  9.90447E-01  9.95513E-01 -5.06593E-03
    9084.211     90.431   5.040  9.98073E-01  9.96264E-01  1.80868E-03
    9085.754     91.973   5.080  1.00438E+00  9.97011E-01  7.36527E-03
    9087.308     93.528   5.120  1.00906E+00  9.97749E-01  1.13118E-02
    9088.875     95.094   5.160  1.01201E+00  9.98454E-01  1.35520E-02
    9090.454     96.673   5.200  1.01322E+00  9.99124E-01  1.40954E-02
    9092.045     98.264   5.240  1.01282E+00  9.99780E-01  1.30355E-02
    9093.648     99.867   5.280  1.01092E+00  1.00040E+00  1.05277E-02
    9095.263    101.483   5.320  1.00773E+00  1.00095E+00  6.77887E-03
    9096.891    103.110   5.360  1.00343E+00  1.00148E+00  1.94587E-03
    9098.531    104.750   5.400  9.98017E-01  1.00194E+00 -3.92606E-03
    9100.183    106.402   5.440  9.91542E-01  1.00236E+00 -1.08188E-02
    9101.847    108.066   5.480  9.84260E-01  1.00273E+00 -1.84723E-02
    9103.523    109.743   5.520  9.76833E-01  1.00303E+00 -2.62015E-02
    9105.212    111.431   5.560  9.70265E-01  1.00328E+00 -3.30200E-02
    9106.913    113.132   5.600  9.65520E-01  1.00346E+00 -3.79438E-02
    9108.626    114.845   5.640  9.63360E-01  1.00359E+00 -4.02314E-02
    9110.351    116.570   5.680  9.64222E-01  1.00364E+00 -3.94223E-02
    9112.088    118.308   5.720  9.68341E-01  1.00362E+00 -3.52828E-02
    9113.838    120.057   5.760  9.75704E-01  1.00355E+00 -2.78468E-02
    9115.599    121.819   5.800  9.85896E-01  1.00341E+00 -1.75097E-02
    9117.373    123.593   5.840  9.98136E-01  1.00319E+00 -5.05026E-03
    9119.159    125.379   5.880  1.01141E+00  1.00292E+00  8.49411E-03
    9120.958    127.177   5.920  1.02461E+00  1.00258E+00  2.20334E-02
    9122.768    128.988   5.960  1.03668E+00  1.00219E+00  3.44903E-02
    9124.591    130.810   6.000  1.04654E+00  1.00169E+00  4.48498E-02
