# # comment:                                                     FEFF 9.9.1  
# # Source:
# # Structure
# # Reduced
# # space
# # abc:
# # angles:
# # sites:
# # POT  SCF 100  7.0000   0, screened core-hole, AFOLP (folp(0)= 1.150)
# # Abs   Z=29 Rmt= 1.289 Rnm= 1.345 K  shell
# # Pot 1 Z=57 Rmt= 1.731 Rnm= 1.812
# # Pot 2 Z=29 Rmt= 1.289 Rnm= 1.345
# # Pot 3 Z=77 Rmt= 1.328 Rnm= 1.429
# # Pot 4 Z= 8 Rmt= 1.030 Rnm= 1.086
# # Gam_ch=1.729E+00 H-L exch Vi= 0.000E+00 Vr= 0.000E+00
# # Mu=-7.132E+00eV kf=2.110E+00 Vint=-1.808E+01eV Rs_int= 1.719
# FMS rfms= 9.0000
# # PATH  Rmax=-1.000,  Keep_limit= 0.00, Heap_limit 0.00  Pwcrit= 2.50%
#  S02=0.950  Temp=   0.00  Debye_temp=   0.00  Global_sig2= 0.00000
#  Energy zero shift, vr, vi    0.00000E+00   0.00000E+00
#  Curved wave amplitude ratio filter   4.000%
#     file         sig2 tot  cw amp ratio   deg  nlegs   reff  inp sig2
#     0/   0 paths used
#  xsedge+ 50, used to normalize mu           2.4633E-04
#  -----------------------------------------------------------------------
#  omega    e    k    mu    mu0     chi     @#
    8984.696    -10.942  -1.000  4.92697E-02  5.90391E-02 -9.76936E-03
    8984.995    -10.644  -0.960  5.22097E-02  6.35055E-02 -1.12958E-02
    8985.282    -10.357  -0.920  5.54074E-02  6.84849E-02 -1.30775E-02
    8985.556    -10.083  -0.880  5.88956E-02  7.40543E-02 -1.51588E-02
    8985.818     -9.821  -0.840  6.27121E-02  8.03038E-02 -1.75917E-02
    8986.068     -9.571  -0.800  6.69007E-02  8.73376E-02 -2.04369E-02
    8986.306     -9.333  -0.760  7.15110E-02  9.52756E-02 -2.37646E-02
    8986.531     -9.108  -0.720  7.65991E-02  1.04254E-01 -2.76545E-02
    8986.745     -8.894  -0.680  8.22262E-02  1.14421E-01 -3.21952E-02
    8986.946     -8.693  -0.640  8.84564E-02  1.25938E-01 -3.74811E-02
    8987.135     -8.504  -0.600  9.53519E-02  1.38958E-01 -4.36062E-02
    8987.312     -8.327  -0.560  1.02964E-01  1.53617E-01 -5.06525E-02
    8987.476     -8.163  -0.520  1.11322E-01  1.69995E-01 -5.86726E-02
    8987.629     -8.010  -0.480  1.20412E-01  1.88076E-01 -6.76644E-02
    8987.769     -7.870  -0.440  1.30160E-01  2.07702E-01 -7.75429E-02
    8987.897     -7.742  -0.400  1.40411E-01  2.28527E-01 -8.81158E-02
    8988.013     -7.626  -0.360  1.50927E-01  2.50004E-01 -9.90771E-02
    8988.116     -7.523  -0.320  1.61398E-01  2.71427E-01 -1.10029E-01
    8988.208     -7.431  -0.280  1.71476E-01  2.92009E-01 -1.20533E-01
    8988.287     -7.352  -0.240  1.80818E-01  3.10997E-01 -1.30179E-01
    8988.354     -7.285  -0.200  1.89129E-01  3.27764E-01 -1.38635E-01
    8988.409     -7.230  -0.160  1.96175E-01  3.41855E-01 -1.45679E-01
    8988.452     -7.187  -0.120  2.01792E-01  3.52982E-01 -1.51190E-01
    8988.482     -7.157  -0.080  2.05870E-01  3.60992E-01 -1.55122E-01
    8988.506     -7.132   0.000  2.09166E-01  3.67421E-01 -1.58255E-01
    8988.561     -7.078   0.120  2.16589E-01  3.81919E-01 -1.65329E-01
    8988.604     -7.035   0.160  2.22408E-01  3.93142E-01 -1.70735E-01
    8988.659     -6.980   0.200  2.29957E-01  4.07466E-01 -1.77509E-01
    8988.726     -6.913   0.240  2.39197E-01  4.24650E-01 -1.85453E-01
    8988.805     -6.834   0.280  2.50051E-01  4.44319E-01 -1.94268E-01
    8988.897     -6.742   0.320  2.62337E-01  4.65907E-01 -2.03571E-01
    8989.000     -6.639   0.360  2.75734E-01  4.88742E-01 -2.13008E-01
    8989.116     -6.523   0.400  2.89790E-01  5.12113E-01 -2.22323E-01
    8989.244     -6.395   0.440  3.03903E-01  5.35352E-01 -2.31449E-01
    8989.384     -6.255   0.480  3.17409E-01  5.57957E-01 -2.40548E-01
    8989.537     -6.102   0.520  3.29752E-01  5.79591E-01 -2.49839E-01
    8989.701     -5.938   0.560  3.40594E-01  6.00106E-01 -2.59512E-01
    8989.878     -5.761   0.600  3.49779E-01  6.19446E-01 -2.69667E-01
    8990.067     -5.572   0.640  3.57403E-01  6.37705E-01 -2.80302E-01
    8990.268     -5.371   0.680  3.63722E-01  6.54981E-01 -2.91258E-01
    8990.482     -5.157   0.720  3.69406E-01  6.71370E-01 -3.01964E-01
    8990.707     -4.932   0.760  3.75663E-01  6.87029E-01 -3.11366E-01
    8990.945     -4.694   0.800  3.83639E-01  7.02021E-01 -3.18382E-01
    8991.195     -4.444   0.840  3.94046E-01  7.16476E-01 -3.22430E-01
    8991.457     -4.182   0.880  4.07447E-01  7.30470E-01 -3.23023E-01
    8991.731     -3.908   0.920  4.24700E-01  7.44038E-01 -3.19338E-01
    8992.018     -3.621   0.960  4.46681E-01  7.57244E-01 -3.10564E-01
    8992.316     -3.323   1.000  4.74186E-01  7.70122E-01 -2.95936E-01
    8992.627     -3.012   1.040  5.08835E-01  7.82668E-01 -2.73833E-01
    8992.950     -2.689   1.080  5.54315E-01  7.94937E-01 -2.40622E-01
    8993.286     -2.353   1.120  6.15478E-01  8.06911E-01 -1.91433E-01
    8993.633     -2.006   1.160  6.95294E-01  8.18608E-01 -1.23314E-01
    8993.993     -1.646   1.200  7.93473E-01  8.30003E-01 -3.65299E-02
    8994.365     -1.274   1.240  9.10380E-01  8.41083E-01  6.92967E-02
    8994.749     -0.890   1.280  1.04934E+00  8.51875E-01  1.97461E-01
    8995.145     -0.494   1.320  1.20953E+00  8.62344E-01  3.47182E-01
    8995.553     -0.086   1.360  1.37352E+00  8.72469E-01  5.01051E-01
    8995.974      0.335   1.400  1.49913E+00  8.82274E-01  6.16856E-01
    8996.407      0.768   1.440  1.56137E+00  8.91719E-01  6.69654E-01
    8996.852      1.213   1.480  1.60479E+00  9.00801E-01  7.03985E-01
    8997.309      1.670   1.520  1.66609E+00  9.09502E-01  7.56590E-01
    8997.778      2.139   1.560  1.71863E+00  9.17820E-01  8.00811E-01
    8998.260      2.621   1.600  1.73083E+00  9.25757E-01  8.05073E-01
    8998.754      3.115   1.640  1.69144E+00  9.33311E-01  7.58133E-01
    8999.260      3.621   1.680  1.59158E+00  9.40463E-01  6.51112E-01
    8999.778      4.139   1.720  1.45563E+00  9.47216E-01  5.08416E-01
    9000.308      4.669   1.760  1.33442E+00  9.53571E-01  3.80846E-01
    9000.851      5.212   1.800  1.24903E+00  9.59529E-01  2.89505E-01
    9001.406      5.767   1.840  1.18109E+00  9.65094E-01  2.15998E-01
    9001.972      6.334   1.880  1.10668E+00  9.70270E-01  1.36407E-01
    9002.552      6.913   1.920  1.02275E+00  9.75062E-01  4.76831E-02
    9003.143      7.504   1.960  9.45970E-01  9.79473E-01 -3.35032E-02
    9003.746      8.107   2.000  8.92452E-01  9.83531E-01 -9.10790E-02
    9004.362      8.723   2.040  8.66485E-01  9.87242E-01 -1.20757E-01
    9004.990      9.351   2.080  8.63991E-01  9.90590E-01 -1.26599E-01
    9005.630      9.991   2.120  8.77383E-01  9.93624E-01 -1.16240E-01
    9006.282     10.643   2.160  9.01921E-01  9.96329E-01 -9.44084E-02
    9006.947     11.308   2.200  9.33523E-01  9.98736E-01 -6.52130E-02
    9007.623     11.984   2.240  9.68641E-01  1.00085E+00 -3.22087E-02
    9008.312     12.673   2.280  1.00451E+00  1.00270E+00  1.81024E-03
    9009.013     13.374   2.320  1.04288E+00  1.00427E+00  3.86074E-02
    9009.727     14.088   2.360  1.08465E+00  1.00562E+00  7.90360E-02
    9010.452     14.813   2.400  1.11856E+00  1.00672E+00  1.11836E-01
    9011.190     15.551   2.440  1.12124E+00  1.00761E+00  1.13627E-01
    9011.939     16.300   2.480  1.07809E+00  1.00829E+00  6.97989E-02
    9012.701     17.062   2.520  9.98186E-01  1.00880E+00 -1.06152E-02
    9013.476     17.837   2.560  9.18205E-01  1.00912E+00 -9.09132E-02
    9014.262     18.623   2.600  8.59939E-01  1.00929E+00 -1.49355E-01
    9015.060     19.422   2.640  8.22028E-01  1.00934E+00 -1.87307E-01
    9015.871     20.232   2.680  7.99566E-01  1.00925E+00 -2.09682E-01
    9016.694     21.055   2.720  7.88070E-01  1.00902E+00 -2.20949E-01
    9017.529     21.890   2.760  7.84204E-01  1.00872E+00 -2.24512E-01
    9018.377     22.738   2.800  7.85628E-01  1.00830E+00 -2.22677E-01
    9019.236     23.597   2.840  7.91330E-01  1.00781E+00 -2.16480E-01
    9020.108     24.469   2.880  8.00145E-01  1.00726E+00 -2.07115E-01
    9020.992     25.353   2.920  8.10956E-01  1.00666E+00 -1.95703E-01
    9021.888     26.249   2.960  8.23601E-01  1.00599E+00 -1.82390E-01
    9022.796     27.157   3.000  8.38521E-01  1.00528E+00 -1.66760E-01
    9023.717     28.078   3.040  8.56095E-01  1.00456E+00 -1.48461E-01
    9024.649     29.011   3.080  8.76586E-01  1.00382E+00 -1.27234E-01
    9025.594     29.955   3.120  8.99768E-01  1.00305E+00 -1.03285E-01
    9026.551     30.912   3.160  9.24567E-01  1.00228E+00 -7.77156E-02
    9027.521     31.882   3.200  9.50425E-01  1.00151E+00 -5.10850E-02
    9028.502     32.863   3.240  9.76880E-01  1.00074E+00 -2.38589E-02
    9029.496     33.857   3.280  1.00364E+00  9.99993E-01  3.64266E-03
    9030.502     34.863   3.320  1.03047E+00  9.99254E-01  3.12122E-02
    9031.520     35.881   3.360  1.05702E+00  9.98524E-01  5.84957E-02
    9032.550     36.911   3.400  1.08238E+00  9.97848E-01  8.45286E-02
    9033.592     37.953   3.440  1.10517E+00  9.97186E-01  1.07989E-01
    9034.647     39.008   3.480  1.12383E+00  9.96560E-01  1.27267E-01
    9035.714     40.075   3.520  1.13616E+00  9.95971E-01  1.40189E-01
    9036.793     41.154   3.560  1.14012E+00  9.95421E-01  1.44699E-01
    9037.884     42.245   3.600  1.13509E+00  9.94911E-01  1.40183E-01
    9038.987     43.348   3.640  1.12219E+00  9.94443E-01  1.27749E-01
    9040.103     44.464   3.680  1.10388E+00  9.94037E-01  1.09840E-01
    9041.231     45.592   3.720  1.08313E+00  9.93653E-01  8.94802E-02
    9042.370     46.732   3.760  1.06274E+00  9.93332E-01  6.94047E-02
    9043.523     47.884   3.800  1.04478E+00  9.93054E-01  5.17309E-02
    9044.687     49.048   3.840  1.03073E+00  9.92817E-01  3.79083E-02
    9045.863     50.225   3.880  1.02143E+00  9.92622E-01  2.88120E-02
    9047.052     51.413   3.920  1.01713E+00  9.92471E-01  2.46543E-02
    9048.253     52.614   3.960  1.01743E+00  9.92383E-01  2.50456E-02
    9049.466     53.827   4.000  1.02119E+00  9.92336E-01  2.88585E-02
    9050.691     55.053   4.040  1.02659E+00  9.92310E-01  3.42810E-02
    9051.929     56.290   4.080  1.03157E+00  9.92345E-01  3.92197E-02
    9053.179     57.540   4.120  1.03431E+00  9.92421E-01  4.18839E-02
    9054.440     58.802   4.160  1.03388E+00  9.92536E-01  4.13462E-02
    9055.715     60.076   4.200  1.03016E+00  9.92688E-01  3.74732E-02
    9057.001     61.362   4.240  1.02359E+00  9.92856E-01  3.07297E-02
    9058.299     62.660   4.280  1.01499E+00  9.93080E-01  2.19052E-02
    9059.610     63.971   4.320  1.00529E+00  9.93318E-01  1.19702E-02
    9060.933     65.294   4.360  9.95566E-01  9.93588E-01  1.97780E-03
    9062.268     66.629   4.400  9.86812E-01  9.93870E-01 -7.05782E-03
    9063.615     67.976   4.440  9.79619E-01  9.94183E-01 -1.45644E-02
    9064.974     69.335   4.480  9.73972E-01  9.94527E-01 -2.05548E-02
    9066.346     70.707   4.520  9.69327E-01  9.94878E-01 -2.55515E-02
    9067.730     72.091   4.560  9.64911E-01  9.95235E-01 -3.03243E-02
    9069.126     73.487   4.600  9.60120E-01  9.95619E-01 -3.54992E-02
    9070.534     74.895   4.640  9.54720E-01  9.96006E-01 -4.12862E-02
    9071.954     76.315   4.680  9.48962E-01  9.96394E-01 -4.74323E-02
    9073.387     77.748   4.720  9.43460E-01  9.96782E-01 -5.33222E-02
    9074.832     79.193   4.760  9.39036E-01  9.97169E-01 -5.81330E-02
    9076.288     80.650   4.800  9.36439E-01  9.97554E-01 -6.11150E-02
    9077.758     82.119   4.840  9.36132E-01  9.97935E-01 -6.18028E-02
    9079.239     83.600   4.880  9.38223E-01  9.98290E-01 -6.00668E-02
    9080.732     85.094   4.920  9.42587E-01  9.98662E-01 -5.60749E-02
    9082.238     86.599   4.960  9.48857E-01  9.99006E-01 -5.01489E-02
    9083.756     88.117   5.000  9.56682E-01  9.99342E-01 -4.26598E-02
    9085.286     89.647   5.040  9.65562E-01  9.99646E-01 -3.40842E-02
    9086.828     91.189   5.080  9.74879E-01  9.99940E-01 -2.50608E-02
    9088.383     92.744   5.120  9.83851E-01  1.00020E+00 -1.63525E-02
    9089.950     94.311   5.160  9.91773E-01  1.00046E+00 -8.68199E-03
    9091.528     95.889   5.200  9.98123E-01  1.00067E+00 -2.55049E-03
    9093.119     97.481   5.240  1.00275E+00  1.00088E+00  1.86877E-03
    9094.723     99.084   5.280  1.00586E+00  1.00102E+00  4.83304E-03
    9096.338    100.699   5.320  1.00817E+00  1.00116E+00  7.00953E-03
    9097.966    102.327   5.360  1.01050E+00  1.00128E+00  9.22352E-03
    9099.606    103.967   5.400  1.01338E+00  1.00134E+00  1.20488E-02
    9101.258    105.619   5.440  1.01692E+00  1.00138E+00  1.55413E-02
    9102.922    107.283   5.480  1.02069E+00  1.00139E+00  1.93042E-02
    9104.598    108.959   5.520  1.02410E+00  1.00135E+00  2.27429E-02
    9106.287    110.648   5.560  1.02660E+00  1.00128E+00  2.53197E-02
    9107.988    112.349   5.600  1.02788E+00  1.00118E+00  2.66988E-02
    9109.700    114.062   5.640  1.02783E+00  1.00106E+00  2.67784E-02
    9111.426    115.787   5.680  1.02657E+00  1.00090E+00  2.56664E-02
    9113.163    117.524   5.720  1.02438E+00  1.00070E+00  2.36807E-02
    9114.913    119.274   5.760  1.02181E+00  1.00047E+00  2.13380E-02
    9116.674    121.035   5.800  1.01945E+00  1.00020E+00  1.92543E-02
    9118.448    122.809   5.840  1.01777E+00  9.99893E-01  1.78751E-02
    9120.234    124.595   5.880  1.01681E+00  9.99578E-01  1.72356E-02
    9122.033    126.394   5.920  1.01629E+00  9.99232E-01  1.70586E-02
    9123.843    128.204   5.960  1.01590E+00  9.98856E-01  1.70403E-02
    9125.666    130.027   6.000  1.01545E+00  9.98454E-01  1.69918E-02
