# # comment:                                                     FEFF 9.9.1  
# # Source:
# # Structure
# # Reduced
# # space
# # abc:
# # angles:
# # sites:
# # POT  SCF 100  7.0000   0, screened core-hole, AFOLP (folp(0)= 1.150)
# # Abs   Z=29 Rmt= 1.265 Rnm= 1.332 K  shell
# # Pot 1 Z=26 Rmt= 1.324 Rnm= 1.417
# # Pot 2 Z=29 Rmt= 1.235 Rnm= 1.306
# # Pot 3 Z= 8 Rmt= 1.026 Rnm= 1.104
# # Gam_ch=1.729E+00 H-L exch Vi= 0.000E+00 Vr= 0.000E+00
# # Mu=-1.029E+01eV kf=2.158E+00 Vint=-1.752E+01eV Rs_int= 1.681
# FMS rfms= 9.0000
# # PATH  Rmax=-1.000,  Keep_limit= 0.00, Heap_limit 0.00  Pwcrit= 2.50%
#  S02=0.950  Temp=   0.00  Debye_temp=   0.00  Global_sig2= 0.00000
#  Energy zero shift, vr, vi    0.00000E+00   0.00000E+00
#  Curved wave amplitude ratio filter   4.000%
#     file         sig2 tot  cw amp ratio   deg  nlegs   reff  inp sig2
#     0/   0 paths used
#  xsedge+ 50, used to normalize mu           2.4764E-04
#  -----------------------------------------------------------------------
#  omega    e    k    mu    mu0     chi     @#
    8984.427    -14.105  -1.000  3.19996E-02  4.83209E-02 -1.63213E-02
    8984.726    -13.806  -0.960  3.34490E-02  5.16495E-02 -1.82005E-02
    8985.012    -13.520  -0.920  3.49992E-02  5.53324E-02 -2.03332E-02
    8985.287    -13.245  -0.880  3.66633E-02  5.94203E-02 -2.27570E-02
    8985.549    -12.983  -0.840  3.84568E-02  6.39721E-02 -2.55153E-02
    8985.799    -12.733  -0.800  4.03980E-02  6.90559E-02 -2.86579E-02
    8986.036    -12.495  -0.760  4.25088E-02  7.47497E-02 -3.22409E-02
    8986.262    -12.270  -0.720  4.48143E-02  8.11414E-02 -3.63271E-02
    8986.475    -12.057  -0.680  4.73428E-02  8.83273E-02 -4.09846E-02
    8986.676    -11.855  -0.640  5.01250E-02  9.64092E-02 -4.62842E-02
    8986.865    -11.666  -0.600  5.31915E-02  1.05486E-01 -5.22947E-02
    8987.042    -11.490  -0.560  5.65688E-02  1.15643E-01 -5.90738E-02
    8987.207    -11.325  -0.520  6.02723E-02  1.26927E-01 -6.66550E-02
    8987.359    -11.173  -0.480  6.42970E-02  1.39327E-01 -7.50296E-02
    8987.499    -11.032  -0.440  6.86067E-02  1.52732E-01 -8.41257E-02
    8987.627    -10.904  -0.400  7.31245E-02  1.66915E-01 -9.37907E-02
    8987.743    -10.789  -0.360  7.77305E-02  1.81516E-01 -1.03785E-01
    8987.847    -10.685  -0.320  8.22706E-02  1.96068E-01 -1.13797E-01
    8987.938    -10.594  -0.280  8.65773E-02  2.10052E-01 -1.23475E-01
    8988.018    -10.514  -0.240  9.04955E-02  2.22967E-01 -1.32472E-01
    8988.085    -10.447  -0.200  9.39043E-02  2.34392E-01 -1.40488E-01
    8988.139    -10.392  -0.160  9.67266E-02  2.44013E-01 -1.47287E-01
    8988.182    -10.350  -0.120  9.89254E-02  2.51628E-01 -1.52703E-01
    8988.213    -10.319  -0.080  1.00490E-01  2.57120E-01 -1.56630E-01
    8988.237    -10.295   0.000  1.01732E-01  2.61538E-01 -1.59806E-01
    8988.292    -10.240   0.120  1.04448E-01  2.71508E-01 -1.67060E-01
    8988.335    -10.197   0.160  1.06515E-01  2.79272E-01 -1.72757E-01
    8988.389    -10.142   0.200  1.09067E-01  2.89210E-01 -1.80143E-01
    8988.456    -10.075   0.240  1.11983E-01  3.01209E-01 -1.89226E-01
    8988.536     -9.996   0.280  1.15088E-01  3.15035E-01 -1.99947E-01
    8988.627     -9.905   0.320  1.18171E-01  3.30398E-01 -2.12227E-01
    8988.731     -9.801   0.360  1.20998E-01  3.46883E-01 -2.25885E-01
    8988.847     -9.685   0.400  1.23382E-01  3.64088E-01 -2.40706E-01
    8988.975     -9.557   0.440  1.25188E-01  3.81590E-01 -2.56401E-01
    8989.115     -9.417   0.480  1.26531E-01  3.99108E-01 -2.72577E-01
    8989.267     -9.265   0.520  1.27565E-01  4.16434E-01 -2.88869E-01
    8989.432     -9.100   0.560  1.28498E-01  4.33483E-01 -3.04985E-01
    8989.609     -8.923   0.600  1.29448E-01  4.50245E-01 -3.20797E-01
    8989.798     -8.734   0.640  1.30503E-01  4.66723E-01 -3.36220E-01
    8989.999     -8.533   0.680  1.31917E-01  4.83009E-01 -3.51093E-01
    8990.212     -8.320   0.720  1.34130E-01  4.99142E-01 -3.65012E-01
    8990.438     -8.094   0.760  1.37784E-01  5.15199E-01 -3.77415E-01
    8990.675     -7.856   0.800  1.43494E-01  5.31248E-01 -3.87754E-01
    8990.925     -7.607   0.840  1.51527E-01  5.47288E-01 -3.95761E-01
    8991.187     -7.344   0.880  1.62018E-01  5.63386E-01 -4.01368E-01
    8991.462     -7.070   0.920  1.75151E-01  5.79540E-01 -4.04389E-01
    8991.748     -6.784   0.960  1.91777E-01  5.95776E-01 -4.03999E-01
    8992.047     -6.485   1.000  2.13465E-01  6.12051E-01 -3.98587E-01
    8992.358     -6.174   1.040  2.42103E-01  6.28397E-01 -3.86295E-01
    8992.681     -5.851   1.080  2.78841E-01  6.44758E-01 -3.65917E-01
    8993.016     -5.516   1.120  3.23131E-01  6.61131E-01 -3.38000E-01
    8993.364     -5.168   1.160  3.71873E-01  6.77493E-01 -3.05620E-01
    8993.723     -4.808   1.200  4.19391E-01  6.93773E-01 -2.74382E-01
    8994.095     -4.437   1.240  4.60497E-01  7.09961E-01 -2.49464E-01
    8994.479     -4.053   1.280  4.97377E-01  7.26023E-01 -2.28646E-01
    8994.876     -3.656   1.320  5.41223E-01  7.41881E-01 -2.00657E-01
    8995.284     -3.248   1.360  6.01497E-01  7.57541E-01 -1.56044E-01
    8995.705     -2.827   1.400  6.71867E-01  7.72948E-01 -1.01081E-01
    8996.137     -2.394   1.440  7.35137E-01  7.88041E-01 -5.29035E-02
    8996.582     -1.949   1.480  7.85715E-01  8.02805E-01 -1.70903E-02
    8997.040     -1.492   1.520  8.29378E-01  8.17185E-01  1.21929E-02
    8997.509     -1.023   1.560  8.65113E-01  8.31165E-01  3.39479E-02
    8997.991     -0.541   1.600  8.86646E-01  8.44710E-01  4.19363E-02
    8998.484     -0.048   1.640  8.94797E-01  8.57787E-01  3.70102E-02
    8998.990      0.458   1.680  9.02370E-01  8.70366E-01  3.20040E-02
    8999.508      0.977   1.720  9.26041E-01  8.82437E-01  4.36039E-02
    9000.039      1.507   1.760  9.77493E-01  8.93970E-01  8.35233E-02
    9000.581      2.050   1.800  1.06101E+00  9.04958E-01  1.56050E-01
    9001.136      2.604   1.840  1.17839E+00  9.15376E-01  2.63014E-01
    9001.703      3.171   1.880  1.34052E+00  9.25222E-01  4.15299E-01
    9002.282      3.750   1.920  1.55025E+00  9.34515E-01  6.15733E-01
    9002.873      4.342   1.960  1.75442E+00  9.43233E-01  8.11190E-01
    9003.477      4.945   2.000  1.83724E+00  9.51358E-01  8.85877E-01
    9004.093      5.561   2.040  1.75746E+00  9.58933E-01  7.98529E-01
    9004.721      6.189   2.080  1.58645E+00  9.65962E-01  6.20487E-01
    9005.361      6.829   2.120  1.37443E+00  9.72410E-01  4.02017E-01
    9006.013      7.481   2.160  1.17606E+00  9.78344E-01  1.97717E-01
    9006.677      8.145   2.200  1.03957E+00  9.83751E-01  5.58176E-02
    9007.354      8.822   2.240  9.62242E-01  9.88661E-01 -2.64183E-02
    9008.043      9.511   2.280  9.19998E-01  9.93059E-01 -7.30613E-02
    9008.744     10.212   2.320  8.95504E-01  9.96999E-01 -1.01495E-01
    9009.457     10.925   2.360  8.78560E-01  1.00049E+00 -1.21930E-01
    9010.183     11.651   2.400  8.60590E-01  1.00356E+00 -1.42972E-01
    9010.920     12.388   2.440  8.40021E-01  1.00623E+00 -1.66205E-01
    9011.670     13.138   2.480  8.29303E-01  1.00849E+00 -1.79192E-01
    9012.432     13.900   2.520  8.49156E-01  1.01040E+00 -1.61240E-01
    9013.206     14.674   2.560  9.08377E-01  1.01196E+00 -1.03586E-01
    9013.993     15.461   2.600  9.75552E-01  1.01321E+00 -3.76559E-02
    9014.791     16.259   2.640  1.01905E+00  1.01416E+00  4.88535E-03
    9015.602     17.070   2.680  1.04120E+00  1.01483E+00  2.63639E-02
    9016.425     17.893   2.720  1.04734E+00  1.01526E+00  3.20806E-02
    9017.260     18.728   2.760  1.04096E+00  1.01544E+00  2.55213E-02
    9018.107     19.575   2.800  1.02487E+00  1.01541E+00  9.46070E-03
    9018.967     20.435   2.840  1.00303E+00  1.01519E+00 -1.21571E-02
    9019.839     21.307   2.880  9.79455E-01  1.01479E+00 -3.53354E-02
    9020.722     22.191   2.920  9.57516E-01  1.01424E+00 -5.67195E-02
    9021.619     23.087   2.960  9.38917E-01  1.01355E+00 -7.46335E-02
    9022.527     23.995   3.000  9.23546E-01  1.01274E+00 -8.91965E-02
    9023.447     24.916   3.040  9.10514E-01  1.01182E+00 -1.01303E-01
    9024.380     25.848   3.080  8.99199E-01  1.01081E+00 -1.11608E-01
    9025.325     26.793   3.120  8.89005E-01  1.00972E+00 -1.20712E-01
    9026.282     27.750   3.160  8.80198E-01  1.00857E+00 -1.28376E-01
    9027.251     28.719   3.200  8.73652E-01  1.00739E+00 -1.33733E-01
    9028.233     29.701   3.240  8.70285E-01  1.00614E+00 -1.35850E-01
    9029.226     30.694   3.280  8.70865E-01  1.00487E+00 -1.34007E-01
    9030.232     31.700   3.320  8.75760E-01  1.00360E+00 -1.27839E-01
    9031.250     32.718   3.360  8.84941E-01  1.00232E+00 -1.17382E-01
    9032.280     33.749   3.400  8.97511E-01  1.00102E+00 -1.03514E-01
    9033.323     34.791   3.440  9.12600E-01  9.99752E-01 -8.71522E-02
    9034.377     35.846   3.480  9.29187E-01  9.98509E-01 -6.93219E-02
    9035.444     36.912   3.520  9.46410E-01  9.97277E-01 -5.08675E-02
    9036.523     37.991   3.560  9.63846E-01  9.96080E-01 -3.22339E-02
    9037.614     39.083   3.600  9.81410E-01  9.94920E-01 -1.35105E-02
    9038.718     40.186   3.640  9.99031E-01  9.93800E-01  5.23066E-03
    9039.833     41.301   3.680  1.01646E+00  9.92722E-01  2.37402E-02
    9040.961     42.429   3.720  1.03323E+00  9.91687E-01  4.15423E-02
    9042.101     43.569   3.760  1.04860E+00  9.90720E-01  5.78755E-02
    9043.253     44.721   3.800  1.06160E+00  9.89802E-01  7.17950E-02
    9044.418     45.886   3.840  1.07156E+00  9.88953E-01  8.26044E-02
    9045.594     47.062   3.880  1.07826E+00  9.88154E-01  9.01102E-02
    9046.783     48.251   3.920  1.08215E+00  9.87428E-01  9.47197E-02
    9047.984     49.452   3.960  1.08398E+00  9.86776E-01  9.72025E-02
    9049.197     50.665   4.000  1.08443E+00  9.86174E-01  9.82537E-02
    9050.422     51.890   4.040  1.08375E+00  9.85646E-01  9.81013E-02
    9051.660     53.128   4.080  1.08164E+00  9.85191E-01  9.64449E-02
    9052.909     54.377   4.120  1.07750E+00  9.84787E-01  9.27096E-02
    9054.171     55.639   4.160  1.07079E+00  9.84455E-01  8.63374E-02
    9055.445     56.913   4.200  1.06128E+00  9.84174E-01  7.71068E-02
    9056.731     58.200   4.240  1.04917E+00  9.83965E-01  6.52049E-02
    9058.030     59.498   4.280  1.03492E+00  9.83829E-01  5.10935E-02
    9059.340     60.809   4.320  1.01925E+00  9.83742E-01  3.55062E-02
    9060.663     62.131   4.360  1.00330E+00  9.83724E-01  1.95754E-02
    9061.998     63.466   4.400  9.88412E-01  9.83753E-01  4.65852E-03
    9063.346     64.814   4.440  9.75665E-01  9.83829E-01 -8.16423E-03
    9064.705     66.173   4.480  9.65543E-01  9.83970E-01 -1.84270E-02
    9066.077     67.545   4.520  9.57907E-01  9.84155E-01 -2.62484E-02
    9067.460     68.928   4.560  9.52410E-01  9.84383E-01 -3.19728E-02
    9068.856     70.324   4.600  9.48847E-01  9.84650E-01 -3.58031E-02
    9070.264     71.733   4.640  9.47263E-01  9.84957E-01 -3.76934E-02
    9071.685     73.153   4.680  9.47807E-01  9.85301E-01 -3.74942E-02
    9073.117     74.586   4.720  9.50388E-01  9.85683E-01 -3.52956E-02
    9074.562     76.030   4.760  9.54615E-01  9.86078E-01 -3.14627E-02
    9076.019     77.487   4.800  9.59994E-01  9.86529E-01 -2.65342E-02
    9077.488     78.956   4.840  9.65904E-01  9.86989E-01 -2.10852E-02
    9078.970     80.438   4.880  9.71880E-01  9.87455E-01 -1.55746E-02
    9080.463     81.931   4.920  9.77668E-01  9.87927E-01 -1.02594E-02
    9081.969     83.437   4.960  9.83315E-01  9.88428E-01 -5.11261E-03
    9083.487     84.955   5.000  9.89002E-01  9.88953E-01  4.84153E-05
    9085.017     86.485   5.040  9.94579E-01  9.89458E-01  5.12056E-03
    9086.559     88.027   5.080  9.99339E-01  9.89962E-01  9.37764E-03
    9088.113     89.582   5.120  1.00231E+00  9.90462E-01  1.18524E-02
    9089.680     91.148   5.160  1.00330E+00  9.90960E-01  1.23415E-02
    9091.259     92.727   5.200  1.00318E+00  9.91456E-01  1.17243E-02
    9092.850     94.318   5.240  1.00319E+00  9.91944E-01  1.12414E-02
    9094.453     95.921   5.280  1.00388E+00  9.92401E-01  1.14813E-02
    9096.069     97.537   5.320  1.00481E+00  9.92825E-01  1.19876E-02
    9097.696     99.164   5.360  1.00492E+00  9.93239E-01  1.16831E-02
    9099.336    100.804   5.400  1.00306E+00  9.93642E-01  9.42131E-03
    9100.988    102.456   5.440  9.98357E-01  9.93986E-01  4.37085E-03
    9102.652    104.121   5.480  9.90599E-01  9.94315E-01 -3.71666E-03
    9104.329    105.797   5.520  9.80275E-01  9.94609E-01 -1.43339E-02
    9106.017    107.485   5.560  9.68454E-01  9.94866E-01 -2.64114E-02
    9107.718    109.186   5.600  9.56334E-01  9.95105E-01 -3.87719E-02
    9109.431    110.899   5.640  9.44808E-01  9.95285E-01 -5.04765E-02
    9111.156    112.624   5.680  9.34585E-01  9.95445E-01 -6.08600E-02
    9112.894    114.362   5.720  9.26249E-01  9.95544E-01 -6.92948E-02
    9114.643    116.111   5.760  9.20653E-01  9.95624E-01 -7.49710E-02
    9116.405    117.873   5.800  9.18594E-01  9.95639E-01 -7.70444E-02
    9118.179    119.647   5.840  9.20494E-01  9.95611E-01 -7.51167E-02
    9119.965    121.433   5.880  9.26027E-01  9.95543E-01 -6.95156E-02
    9121.763    123.231   5.920  9.34513E-01  9.95435E-01 -6.09218E-02
    9123.574    125.042   5.960  9.45527E-01  9.95284E-01 -4.97570E-02
    9125.396    126.865   6.000  9.59571E-01  9.95065E-01 -3.54939E-02
