# # comment:                                                     FEFF 9.9.1  
# # Source:
# # Structure
# # Reduced
# # space
# # abc:
# # angles:
# # sites:
# # POT  SCF 100  7.0000   0, screened core-hole, AFOLP (folp(0)= 1.150)
# # Abs   Z=29 Rmt= 1.328 Rnm= 1.386 K  shell
# # Pot 1 Z= 3 Rmt= 1.234 Rnm= 1.294
# # Pot 2 Z=29 Rmt= 1.327 Rnm= 1.385
# # Pot 3 Z=15 Rmt= 0.944 Rnm= 1.154
# # Pot 4 Z= 8 Rmt= 0.938 Rnm= 1.040
# # Gam_ch=1.729E+00 H-L exch Vi= 0.000E+00 Vr= 0.000E+00
# # Mu=-6.925E+00eV kf=2.373E+00 Vint=-1.786E+01eV Rs_int= 1.528
# FMS rfms= 9.0000
# # PATH  Rmax=-1.000,  Keep_limit= 0.00, Heap_limit 0.00  Pwcrit= 2.50%
#  S02=0.950  Temp=   0.00  Debye_temp=   0.00  Global_sig2= 0.00000
#  Energy zero shift, vr, vi    0.00000E+00   0.00000E+00
#  Curved wave amplitude ratio filter   4.000%
#     file         sig2 tot  cw amp ratio   deg  nlegs   reff  inp sig2
#     0/   0 paths used
#  xsedge+ 50, used to normalize mu           2.4672E-04
#  -----------------------------------------------------------------------
#  omega    e    k    mu    mu0     chi     @#
    8983.937    -10.735  -1.000  4.94005E-02  5.46890E-02 -5.28854E-03
    8984.236    -10.436  -0.960  5.26191E-02  5.86922E-02 -6.07313E-03
    8984.522    -10.149  -0.920  5.61572E-02  6.31449E-02 -6.98764E-03
    8984.797     -9.875  -0.880  6.00583E-02  6.81138E-02 -8.05551E-03
    8985.059     -9.613  -0.840  6.43722E-02  7.36768E-02 -9.30457E-03
    8985.309     -9.363  -0.800  6.91563E-02  7.99240E-02 -1.07678E-02
    8985.547     -9.125  -0.760  7.44754E-02  8.69591E-02 -1.24837E-02
    8985.772     -8.900  -0.720  8.04023E-02  9.48993E-02 -1.44970E-02
    8985.985     -8.686  -0.680  8.70158E-02  1.03874E-01 -1.68579E-02
    8986.187     -8.485  -0.640  9.43983E-02  1.14019E-01 -1.96207E-02
    8986.376     -8.296  -0.600  1.02629E-01  1.25469E-01 -2.28401E-02
    8986.552     -8.119  -0.560  1.11775E-01  1.38340E-01 -2.65649E-02
    8986.717     -7.955  -0.520  1.21872E-01  1.52699E-01 -3.08264E-02
    8986.869     -7.802  -0.480  1.32908E-01  1.68532E-01 -3.56241E-02
    8987.010     -7.662  -0.440  1.44793E-01  1.85701E-01 -4.09080E-02
    8987.138     -7.534  -0.400  1.57339E-01  2.03903E-01 -4.65641E-02
    8987.253     -7.418  -0.360  1.70256E-01  2.22667E-01 -5.24118E-02
    8987.357     -7.315  -0.320  1.83159E-01  2.41378E-01 -5.82192E-02
    8987.449     -7.223  -0.280  1.95617E-01  2.59354E-01 -6.37376E-02
    8987.528     -7.144  -0.240  2.07198E-01  2.75941E-01 -6.87430E-02
    8987.595     -7.077  -0.200  2.17524E-01  2.90592E-01 -7.30685E-02
    8987.650     -7.022  -0.160  2.26292E-01  3.02910E-01 -7.66172E-02
    8987.692     -6.979  -0.120  2.33286E-01  3.12641E-01 -7.93548E-02
    8987.723     -6.949  -0.080  2.38359E-01  3.19648E-01 -8.12887E-02
    8987.747     -6.925   0.000  2.42447E-01  3.25275E-01 -8.28277E-02
    8987.802     -6.870   0.120  2.51797E-01  3.37959E-01 -8.61618E-02
    8987.845     -6.827   0.160  2.59146E-01  3.47796E-01 -8.86498E-02
    8987.900     -6.772   0.200  2.68676E-01  3.60361E-01 -9.16845E-02
    8987.967     -6.705   0.240  2.80353E-01  3.75450E-01 -9.50971E-02
    8988.046     -6.626   0.280  2.94101E-01  3.92746E-01 -9.86449E-02
    8988.137     -6.534   0.320  3.09707E-01  4.11766E-01 -1.02059E-01
    8988.241     -6.431   0.360  3.26912E-01  4.31959E-01 -1.05047E-01
    8988.357     -6.315   0.400  3.45364E-01  4.52719E-01 -1.07355E-01
    8988.485     -6.187   0.440  3.64640E-01  4.73457E-01 -1.08817E-01
    8988.625     -6.047   0.480  3.84440E-01  4.93786E-01 -1.09346E-01
    8988.777     -5.894   0.520  4.04469E-01  5.13375E-01 -1.08906E-01
    8988.942     -5.730   0.560  4.24590E-01  5.32142E-01 -1.07551E-01
    8989.119     -5.553   0.600  4.44525E-01  5.50037E-01 -1.05512E-01
    8989.308     -5.364   0.640  4.63710E-01  5.67145E-01 -1.03436E-01
    8989.509     -5.163   0.680  4.80982E-01  5.83531E-01 -1.02549E-01
    8989.722     -4.950   0.720  4.94535E-01  5.99310E-01 -1.04775E-01
    8989.948     -4.724   0.760  5.02529E-01  6.14582E-01 -1.12053E-01
    8990.186     -4.486   0.800  5.04978E-01  6.29478E-01 -1.24500E-01
    8990.436     -4.236   0.840  5.05228E-01  6.44029E-01 -1.38800E-01
    8990.698     -3.974   0.880  5.09304E-01  6.58357E-01 -1.49053E-01
    8990.972     -3.700   0.920  5.22934E-01  6.72471E-01 -1.49537E-01
    8991.259     -3.413   0.960  5.47938E-01  6.86424E-01 -1.38486E-01
    8991.557     -3.115   1.000  5.78711E-01  7.00238E-01 -1.21527E-01
    8991.868     -2.804   1.040  6.04266E-01  7.13947E-01 -1.09681E-01
    8992.191     -2.481   1.080  6.16808E-01  7.27535E-01 -1.10727E-01
    8992.526     -2.145   1.120  6.17958E-01  7.41021E-01 -1.23063E-01
    8992.874     -1.798   1.160  6.15984E-01  7.54398E-01 -1.38414E-01
    8993.234     -1.438   1.200  6.21122E-01  7.67652E-01 -1.46530E-01
    8993.605     -1.066   1.240  6.43010E-01  7.80766E-01 -1.37756E-01
    8993.990     -0.682   1.280  6.87346E-01  7.93722E-01 -1.06376E-01
    8994.386     -0.286   1.320  7.51310E-01  8.06497E-01 -5.51862E-02
    8994.794      0.122   1.360  8.23298E-01  8.19085E-01  4.21238E-03
    8995.215      0.543   1.400  8.90465E-01  8.31462E-01  5.90032E-02
    8995.648      0.976   1.440  9.47023E-01  8.43578E-01  1.03445E-01
    8996.093      1.421   1.480  9.97217E-01  8.55428E-01  1.41789E-01
    8996.550      1.878   1.520  1.05181E+00  8.66983E-01  1.84832E-01
    8997.019      2.347   1.560  1.11681E+00  8.78234E-01  2.38572E-01
    8997.501      2.829   1.600  1.18250E+00  8.89132E-01  2.93367E-01
    8997.995      3.323   1.640  1.23929E+00  8.99690E-01  3.39602E-01
    8998.501      3.829   1.680  1.29291E+00  9.09858E-01  3.83051E-01
    8999.019      4.347   1.720  1.34888E+00  9.19631E-01  4.29252E-01
    8999.549      4.877   1.760  1.38977E+00  9.29002E-01  4.60766E-01
    9000.092      5.420   1.800  1.37914E+00  9.37946E-01  4.41192E-01
    9000.646      5.974   1.840  1.31191E+00  9.46437E-01  3.65474E-01
    9001.213      6.541   1.880  1.22776E+00  9.54491E-01  2.73270E-01
    9001.792      7.120   1.920  1.15497E+00  9.62106E-01  1.92867E-01
    9002.384      7.712   1.960  1.10335E+00  9.69241E-01  1.34112E-01
    9002.987      8.315   2.000  1.07541E+00  9.75935E-01  9.94726E-02
    9003.603      8.931   2.040  1.06926E+00  9.82149E-01  8.71117E-02
    9004.231      9.559   2.080  1.07902E+00  9.87924E-01  9.10973E-02
    9004.871     10.199   2.120  1.09361E+00  9.93221E-01  1.00388E-01
    9005.523     10.851   2.160  1.10187E+00  9.98086E-01  1.03787E-01
    9006.188     11.516   2.200  1.09641E+00  1.00250E+00  9.39063E-02
    9006.864     12.192   2.240  1.07806E+00  1.00649E+00  7.15634E-02
    9007.553     12.881   2.280  1.05481E+00  1.01005E+00  4.47604E-02
    9008.254     13.582   2.320  1.03306E+00  1.01321E+00  1.98498E-02
    9008.967     14.295   2.360  1.01287E+00  1.01597E+00 -3.09495E-03
    9009.693     15.021   2.400  9.92331E-01  1.01835E+00 -2.60205E-02
    9010.430     15.758   2.440  9.71102E-01  1.02037E+00 -4.92632E-02
    9011.180     16.508   2.480  9.51291E-01  1.02202E+00 -7.07285E-02
    9011.942     17.270   2.520  9.36599E-01  1.02336E+00 -8.67633E-02
    9012.716     18.044   2.560  9.29766E-01  1.02436E+00 -9.45978E-02
    9013.503     18.831   2.600  9.31184E-01  1.02509E+00 -9.39107E-02
    9014.301     19.629   2.640  9.38421E-01  1.02554E+00 -8.71236E-02
    9015.112     20.440   2.680  9.47526E-01  1.02574E+00 -7.82150E-02
    9015.935     21.263   2.720  9.54076E-01  1.02570E+00 -7.16196E-02
    9016.770     22.098   2.760  9.52827E-01  1.02544E+00 -7.26102E-02
    9017.617     22.946   2.800  9.43344E-01  1.02498E+00 -8.16319E-02
    9018.477     23.805   2.840  9.33024E-01  1.02434E+00 -9.13166E-02
    9019.349     24.677   2.880  9.25733E-01  1.02352E+00 -9.77875E-02
    9020.233     25.561   2.920  9.23196E-01  1.02258E+00 -9.93880E-02
    9021.129     26.457   2.960  9.24488E-01  1.02150E+00 -9.70125E-02
    9022.037     27.365   3.000  9.28112E-01  1.02030E+00 -9.21852E-02
    9022.958     28.286   3.040  9.32758E-01  1.01900E+00 -8.62440E-02
    9023.890     29.218   3.080  9.37660E-01  1.01762E+00 -7.99629E-02
    9024.835     30.163   3.120  9.42624E-01  1.01617E+00 -7.35445E-02
    9025.792     31.120   3.160  9.47656E-01  1.01467E+00 -6.70111E-02
    9026.761     32.090   3.200  9.52564E-01  1.01312E+00 -6.05596E-02
    9027.743     33.071   3.240  9.57384E-01  1.01157E+00 -5.41818E-02
    9028.737     34.065   3.280  9.62033E-01  1.00998E+00 -4.79476E-02
    9029.742     35.071   3.320  9.66447E-01  1.00841E+00 -4.19647E-02
    9030.760     36.089   3.360  9.70537E-01  1.00682E+00 -3.62879E-02
    9031.791     37.119   3.400  9.74367E-01  1.00526E+00 -3.08967E-02
    9032.833     38.161   3.440  9.77913E-01  1.00371E+00 -2.57997E-02
    9033.888     39.216   3.480  9.81193E-01  1.00222E+00 -2.10285E-02
    9034.954     40.283   3.520  9.84125E-01  1.00077E+00 -1.66460E-02
    9036.033     41.362   3.560  9.86773E-01  9.99343E-01 -1.25702E-02
    9037.125     42.453   3.600  9.89614E-01  9.98002E-01 -8.38750E-03
    9038.228     43.556   3.640  9.93306E-01  9.96691E-01 -3.38521E-03
    9039.344     44.672   3.680  9.98668E-01  9.95473E-01  3.19537E-03
    9040.471     45.799   3.720  1.00613E+00  9.94308E-01  1.18222E-02
    9041.611     46.939   3.760  1.01579E+00  9.93222E-01  2.25654E-02
    9042.763     48.092   3.800  1.02736E+00  9.92215E-01  3.51419E-02
    9043.928     49.256   3.840  1.04020E+00  9.91289E-01  4.89137E-02
    9045.104     50.432   3.880  1.05351E+00  9.90465E-01  6.30461E-02
    9046.293     51.621   3.920  1.06640E+00  9.89702E-01  7.66946E-02
    9047.494     52.822   3.960  1.07812E+00  9.89022E-01  8.90930E-02
    9048.707     54.035   4.000  1.08795E+00  9.88446E-01  9.95072E-02
    9049.932     55.260   4.040  1.09524E+00  9.87955E-01  1.07288E-01
    9051.170     56.498   4.080  1.09929E+00  9.87547E-01  1.11747E-01
    9052.419     57.748   4.120  1.09954E+00  9.87222E-01  1.12316E-01
    9053.681     59.009   4.160  1.09576E+00  9.87002E-01  1.08759E-01
    9054.955     60.283   4.200  1.08817E+00  9.86842E-01  1.01327E-01
    9056.242     61.570   4.240  1.07732E+00  9.86783E-01  9.05338E-02
    9057.540     62.868   4.280  1.06388E+00  9.86784E-01  7.70970E-02
    9058.851     64.179   4.320  1.04873E+00  9.86885E-01  6.18417E-02
    9060.173     65.502   4.360  1.03261E+00  9.87042E-01  4.55671E-02
    9061.509     66.837   4.400  1.01630E+00  9.87275E-01  2.90248E-02
    9062.856     68.184   4.440  1.00050E+00  9.87583E-01  1.29202E-02
    9064.215     69.543   4.480  9.85762E-01  9.87963E-01 -2.20085E-03
    9065.587     70.915   4.520  9.72432E-01  9.88370E-01 -1.59383E-02
    9066.971     72.299   4.560  9.60820E-01  9.88867E-01 -2.80470E-02
    9068.366     73.695   4.600  9.50865E-01  9.89388E-01 -3.85232E-02
    9069.775     75.103   4.640  9.42436E-01  9.89973E-01 -4.75369E-02
    9071.195     76.523   4.680  9.35296E-01  9.90598E-01 -5.53017E-02
    9072.628     77.956   4.720  9.29182E-01  9.91239E-01 -6.20570E-02
    9074.072     79.400   4.760  9.24023E-01  9.91938E-01 -6.79154E-02
    9075.529     80.857   4.800  9.19825E-01  9.92647E-01 -7.28219E-02
    9076.998     82.327   4.840  9.16777E-01  9.93364E-01 -7.65865E-02
    9078.480     83.808   4.880  9.15247E-01  9.94108E-01 -7.88609E-02
    9079.973     85.301   4.920  9.15672E-01  9.94856E-01 -7.91836E-02
    9081.479     86.807   4.960  9.18465E-01  9.95606E-01 -7.71402E-02
    9082.997     88.325   5.000  9.23954E-01  9.96353E-01 -7.23996E-02
    9084.527     89.855   5.040  9.32191E-01  9.97098E-01 -6.49066E-02
    9086.069     91.397   5.080  9.42879E-01  9.97836E-01 -5.49570E-02
    9087.624     92.952   5.120  9.55324E-01  9.98542E-01 -4.32171E-02
    9089.190     94.518   5.160  9.68625E-01  9.99214E-01 -3.05885E-02
    9090.769     96.097   5.200  9.81938E-01  9.99872E-01 -1.79337E-02
    9092.360     97.688   5.240  9.94536E-01  1.00049E+00 -5.95783E-03
    9093.963     99.292   5.280  1.00586E+00  1.00108E+00  4.78910E-03
    9095.579    100.907   5.320  1.01552E+00  1.00162E+00  1.39001E-02
    9097.207    102.535   5.360  1.02325E+00  1.00211E+00  2.11345E-02
    9098.846    104.175   5.400  1.02896E+00  1.00254E+00  2.64169E-02
    9100.498    105.827   5.440  1.03268E+00  1.00295E+00  2.97356E-02
    9102.163    107.491   5.480  1.03438E+00  1.00328E+00  3.10973E-02
    9103.839    109.167   5.520  1.03413E+00  1.00354E+00  3.05872E-02
    9105.528    110.856   5.560  1.03215E+00  1.00376E+00  2.83931E-02
    9107.228    112.556   5.600  1.02870E+00  1.00392E+00  2.47778E-02
    9108.941    114.269   5.640  1.02405E+00  1.00399E+00  2.00536E-02
    9110.666    115.995   5.680  1.01868E+00  1.00403E+00  1.46545E-02
    9112.404    117.732   5.720  1.01319E+00  1.00397E+00  9.21949E-03
    9114.153    119.481   5.760  1.00843E+00  1.00387E+00  4.55926E-03
    9115.915    121.243   5.800  1.00515E+00  1.00371E+00  1.44022E-03
    9117.689    123.017   5.840  1.00378E+00  1.00349E+00  2.93294E-04
    9119.475    124.803   5.880  1.00421E+00  1.00319E+00  1.02227E-03
    9121.273    126.602   5.920  1.00589E+00  1.00281E+00  3.07994E-03
    9123.084    128.412   5.960  1.00816E+00  1.00242E+00  5.74349E-03
    9124.907    130.235   6.000  1.01026E+00  1.00188E+00  8.37811E-03
