# # comment:                                                     FEFF 9.9.1  
# # Source:
# # Structure
# # Reduced
# # space
# # abc:
# # angles:
# # sites:
# # POT  SCF 100  7.0000   0, screened core-hole, AFOLP (folp(0)= 1.150)
# # Abs   Z=29 Rmt= 1.296 Rnm= 1.366 K  shell
# # Pot 1 Z=29 Rmt= 1.257 Rnm= 1.368
# # Pot 2 Z= 1 Rmt= 0.690 Rnm= 0.836
# # Pot 3 Z=17 Rmt= 1.127 Rnm= 1.405
# # Pot 4 Z= 8 Rmt= 1.047 Rnm= 1.141
# # Gam_ch=1.729E+00 H-L exch Vi= 0.000E+00 Vr= 0.000E+00
# # Mu=-5.902E+00eV kf=2.033E+00 Vint=-1.351E+01eV Rs_int= 1.784
# FMS rfms= 9.0000
# # PATH  Rmax=-1.000,  Keep_limit= 0.00, Heap_limit 0.00  Pwcrit= 2.50%
#  S02=0.950  Temp=   0.00  Debye_temp=   0.00  Global_sig2= 0.00000
#  Energy zero shift, vr, vi    0.00000E+00   0.00000E+00
#  Curved wave amplitude ratio filter   4.000%
#     file         sig2 tot  cw amp ratio   deg  nlegs   reff  inp sig2
#     0/   0 paths used
#  xsedge+ 50, used to normalize mu           2.4305E-04
#  -----------------------------------------------------------------------
#  omega    e    k    mu    mu0     chi     @#
    8983.396     -9.712  -1.000  3.53944E-02  5.56587E-02 -2.02644E-02
    8983.694     -9.413  -0.960  3.69856E-02  5.97328E-02 -2.27472E-02
    8983.981     -9.127  -0.920  3.86696E-02  6.42600E-02 -2.55905E-02
    8984.255     -8.853  -0.880  4.04542E-02  6.93067E-02 -2.88525E-02
    8984.517     -8.590  -0.840  4.23486E-02  7.49501E-02 -3.26015E-02
    8984.767     -8.340  -0.800  4.43629E-02  8.12797E-02 -3.69168E-02
    8985.005     -8.103  -0.760  4.65083E-02  8.83979E-02 -4.18896E-02
    8985.231     -7.877  -0.720  4.87972E-02  9.64205E-02 -4.76233E-02
    8985.444     -7.664  -0.680  5.12428E-02  1.05475E-01 -5.42321E-02
    8985.645     -7.463  -0.640  5.38583E-02  1.15695E-01 -6.18370E-02
    8985.834     -7.274  -0.600  5.66556E-02  1.27213E-01 -7.05578E-02
    8986.011     -7.097  -0.560  5.96434E-02  1.40142E-01 -8.04982E-02
    8986.175     -6.932  -0.520  6.28238E-02  1.54546E-01 -9.17225E-02
    8986.328     -6.780  -0.480  6.61879E-02  1.70412E-01 -1.04224E-01
    8986.468     -6.640  -0.440  6.97108E-02  1.87600E-01 -1.17889E-01
    8986.596     -6.512  -0.400  7.33475E-02  2.05812E-01 -1.32465E-01
    8986.712     -6.396  -0.360  7.70302E-02  2.24581E-01 -1.47551E-01
    8986.816     -6.292  -0.320  8.06709E-02  2.43298E-01 -1.62627E-01
    8986.907     -6.201  -0.280  8.41685E-02  2.61287E-01 -1.77118E-01
    8986.986     -6.122  -0.240  8.74197E-02  2.77898E-01 -1.90478E-01
    8987.053     -6.054  -0.200  9.03286E-02  2.92583E-01 -2.02255E-01
    8987.108     -6.000  -0.160  9.28144E-02  3.04943E-01 -2.12128E-01
    8987.151     -5.957  -0.120  9.48146E-02  3.14717E-01 -2.19902E-01
    8987.181     -5.926  -0.080  9.62847E-02  3.21761E-01 -2.25476E-01
    8987.206     -5.902   0.000  9.75101E-02  3.27421E-01 -2.29911E-01
    8987.261     -5.847   0.120  1.00289E-01  3.40201E-01 -2.39913E-01
    8987.303     -5.805   0.160  1.02400E-01  3.50126E-01 -2.47726E-01
    8987.358     -5.750   0.200  1.05116E-01  3.62822E-01 -2.57706E-01
    8987.425     -5.683   0.240  1.08439E-01  3.78106E-01 -2.69667E-01
    8987.504     -5.603   0.280  1.12314E-01  3.95688E-01 -2.83374E-01
    8987.596     -5.512   0.320  1.16678E-01  4.15119E-01 -2.98441E-01
    8987.699     -5.408   0.360  1.21466E-01  4.35885E-01 -3.14419E-01
    8987.815     -5.292   0.400  1.26484E-01  4.57373E-01 -3.30890E-01
    8987.943     -5.164   0.440  1.31636E-01  4.79061E-01 -3.47425E-01
    8988.084     -5.024   0.480  1.36831E-01  5.00521E-01 -3.63691E-01
    8988.236     -4.872   0.520  1.42183E-01  5.21494E-01 -3.79311E-01
    8988.401     -4.707   0.560  1.48058E-01  5.41836E-01 -3.93778E-01
    8988.577     -4.530   0.600  1.54988E-01  5.61508E-01 -4.06521E-01
    8988.766     -4.341   0.640  1.63683E-01  5.80522E-01 -4.16839E-01
    8988.967     -4.140   0.680  1.74813E-01  5.98964E-01 -4.24151E-01
    8989.181     -3.927   0.720  1.88680E-01  6.16893E-01 -4.28214E-01
    8989.406     -3.701   0.760  2.04873E-01  6.34407E-01 -4.29535E-01
    8989.644     -3.464   0.800  2.21772E-01  6.51532E-01 -4.29760E-01
    8989.894     -3.214   0.840  2.37451E-01  6.68343E-01 -4.30891E-01
    8990.156     -2.952   0.880  2.51178E-01  6.84879E-01 -4.33701E-01
    8990.430     -2.677   0.920  2.64509E-01  7.01126E-01 -4.36617E-01
    8990.717     -2.391   0.960  2.80260E-01  7.17119E-01 -4.36859E-01
    8991.016     -2.092   1.000  2.99956E-01  7.32823E-01 -4.32867E-01
    8991.327     -1.781   1.040  3.22458E-01  7.48252E-01 -4.25794E-01
    8991.650     -1.458   1.080  3.44792E-01  7.63376E-01 -4.18584E-01
    8991.985     -1.123   1.120  3.65019E-01  7.78177E-01 -4.13158E-01
    8992.332     -0.775   1.160  3.85452E-01  7.92614E-01 -4.07162E-01
    8992.692     -0.416   1.200  4.12423E-01  8.06665E-01 -3.94242E-01
    8993.064     -0.044   1.240  4.52718E-01  8.20281E-01 -3.67563E-01
    8993.448      0.340   1.280  5.11384E-01  8.33479E-01 -3.22096E-01
    8993.844      0.736   1.320  5.89529E-01  8.46191E-01 -2.56662E-01
    8994.253      1.145   1.360  6.82642E-01  8.58409E-01 -1.75767E-01
    8994.673      1.566   1.400  7.83610E-01  8.70128E-01 -8.65175E-02
    8995.106      1.998   1.440  8.91875E-01  8.81280E-01  1.05948E-02
    8995.551      2.443   1.480  1.00957E+00  8.91904E-01  1.17671E-01
    8996.008      2.901   1.520  1.12422E+00  9.01955E-01  2.22262E-01
    8996.478      3.370   1.560  1.21566E+00  9.11432E-01  3.04228E-01
    8996.959      3.851   1.600  1.27356E+00  9.20335E-01  3.53225E-01
    8997.453      4.345   1.640  1.29930E+00  9.28646E-01  3.70653E-01
    8997.959      4.851   1.680  1.30849E+00  9.36411E-01  3.72077E-01
    8998.477      5.369   1.720  1.32774E+00  9.43593E-01  3.84144E-01
    8999.008      5.900   1.760  1.37594E+00  9.50241E-01  4.25695E-01
    8999.550      6.442   1.800  1.44938E+00  9.56340E-01  4.93039E-01
    9000.105      6.997   1.840  1.53200E+00  9.61899E-01  5.70098E-01
    9000.672      7.564   1.880  1.60809E+00  9.66972E-01  6.41122E-01
    9001.251      8.143   1.920  1.65523E+00  9.71546E-01  6.83686E-01
    9001.842      8.734   1.960  1.64265E+00  9.75675E-01  6.66978E-01
    9002.446      9.338   2.000  1.55630E+00  9.79329E-01  5.76970E-01
    9003.061      9.954   2.040  1.41633E+00  9.82583E-01  4.33745E-01
    9003.689     10.581   2.080  1.27175E+00  9.85451E-01  2.86302E-01
    9004.329     11.222   2.120  1.16459E+00  9.87944E-01  1.76648E-01
    9004.982     11.874   2.160  1.10621E+00  9.90073E-01  1.16136E-01
    9005.646     12.538   2.200  1.08525E+00  9.91895E-01  9.33543E-02
    9006.323     13.215   2.240  1.07893E+00  9.93443E-01  8.54889E-02
    9007.012     13.904   2.280  1.05415E+00  9.94688E-01  5.94594E-02
    9007.713     14.605   2.320  9.90441E-01  9.95704E-01 -5.26323E-03
    9008.426     15.318   2.360  9.17698E-01  9.96503E-01 -7.88043E-02
    9009.151     16.043   2.400  8.71426E-01  9.97074E-01 -1.25648E-01
    9009.889     16.781   2.440  8.59643E-01  9.97493E-01 -1.37850E-01
    9010.639     17.531   2.480  8.74922E-01  9.97748E-01 -1.22826E-01
    9011.401     18.293   2.520  8.92865E-01  9.97870E-01 -1.05004E-01
    9012.175     19.067   2.560  9.03763E-01  9.97868E-01 -9.41050E-02
    9012.961     19.853   2.600  9.05169E-01  9.97750E-01 -9.25811E-02
    9013.760     20.652   2.640  8.99639E-01  9.97568E-01 -9.79289E-02
    9014.571     21.463   2.680  8.90746E-01  9.97287E-01 -1.06541E-01
    9015.394     22.286   2.720  8.81344E-01  9.96977E-01 -1.15634E-01
    9016.229     23.121   2.760  8.72632E-01  9.96627E-01 -1.23995E-01
    9017.076     23.968   2.800  8.65222E-01  9.96241E-01 -1.31019E-01
    9017.936     24.828   2.840  8.59560E-01  9.95845E-01 -1.36285E-01
    9018.807     25.699   2.880  8.55723E-01  9.95444E-01 -1.39721E-01
    9019.691     26.583   2.920  8.53894E-01  9.95044E-01 -1.41149E-01
    9020.587     27.479   2.960  8.54071E-01  9.94649E-01 -1.40579E-01
    9021.496     28.388   3.000  8.55681E-01  9.94284E-01 -1.38604E-01
    9022.416     29.308   3.040  8.58381E-01  9.93953E-01 -1.35572E-01
    9023.349     30.241   3.080  8.62146E-01  9.93640E-01 -1.31494E-01
    9024.294     31.186   3.120  8.66370E-01  9.93387E-01 -1.27017E-01
    9025.251     32.143   3.160  8.70413E-01  9.93177E-01 -1.22764E-01
    9026.220     33.112   3.200  8.73853E-01  9.93012E-01 -1.19160E-01
    9027.201     34.094   3.240  8.76622E-01  9.92914E-01 -1.16292E-01
    9028.195     35.087   3.280  8.79254E-01  9.92864E-01 -1.13610E-01
    9029.201     36.093   3.320  8.83148E-01  9.92861E-01 -1.09713E-01
    9030.219     37.111   3.360  8.90178E-01  9.92929E-01 -1.02751E-01
    9031.249     38.141   3.400  9.01962E-01  9.93048E-01 -9.10856E-02
    9032.292     39.184   3.440  9.19566E-01  9.93238E-01 -7.36723E-02
    9033.346     40.238   3.480  9.43083E-01  9.93502E-01 -5.04184E-02
    9034.413     41.305   3.520  9.71342E-01  9.93815E-01 -2.24736E-02
    9035.492     42.384   3.560  1.00222E+00  9.94201E-01  8.01970E-03
    9036.583     43.475   3.600  1.03299E+00  9.94638E-01  3.83511E-02
    9037.686     44.579   3.640  1.06092E+00  9.95142E-01  6.57802E-02
    9038.802     45.694   3.680  1.08414E+00  9.95694E-01  8.84480E-02
    9039.930     46.822   3.720  1.10204E+00  9.96293E-01  1.05747E-01
    9041.070     47.962   3.760  1.11498E+00  9.96959E-01  1.18020E-01
    9042.222     49.114   3.800  1.12374E+00  9.97668E-01  1.26076E-01
    9043.386     50.278   3.840  1.12946E+00  9.98420E-01  1.31037E-01
    9044.563     51.455   3.880  1.13316E+00  9.99212E-01  1.33952E-01
    9045.751     52.644   3.920  1.13561E+00  1.00004E+00  1.35566E-01
    9046.952     53.845   3.960  1.13697E+00  1.00091E+00  1.36063E-01
    9048.165     55.058   4.000  1.13677E+00  1.00179E+00  1.34975E-01
    9049.391     56.283   4.040  1.13385E+00  1.00273E+00  1.31126E-01
    9050.628     57.520   4.080  1.12676E+00  1.00365E+00  1.23115E-01
    9051.878     58.770   4.120  1.11490E+00  1.00462E+00  1.10275E-01
    9053.140     60.032   4.160  1.09882E+00  1.00558E+00  9.32386E-02
    9054.414     61.306   4.200  1.08029E+00  1.00656E+00  7.37243E-02
    9055.700     62.592   4.240  1.06132E+00  1.00754E+00  5.37781E-02
    9056.999     63.891   4.280  1.04350E+00  1.00852E+00  3.49775E-02
    9058.309     65.201   4.320  1.02763E+00  1.00948E+00  1.81481E-02
    9059.632     66.524   4.360  1.01404E+00  1.01045E+00  3.58696E-03
    9060.967     67.859   4.400  1.00269E+00  1.01139E+00 -8.70004E-03
    9062.314     69.206   4.440  9.93244E-01  1.01230E+00 -1.90521E-02
    9063.674     70.566   4.480  9.85052E-01  1.01319E+00 -2.81406E-02
    9065.045     71.937   4.520  9.77538E-01  1.01408E+00 -3.65368E-02
    9066.429     73.321   4.560  9.70644E-01  1.01490E+00 -4.42531E-02
    9067.825     74.717   4.600  9.65029E-01  1.01570E+00 -5.06714E-02
    9069.233     76.125   4.640  9.61594E-01  1.01644E+00 -5.48466E-02
    9070.654     77.546   4.680  9.60917E-01  1.01716E+00 -5.62432E-02
    9072.086     78.978   4.720  9.62820E-01  1.01784E+00 -5.50156E-02
    9073.531     80.423   4.760  9.66582E-01  1.01844E+00 -5.18605E-02
    9074.988     81.880   4.800  9.71326E-01  1.01900E+00 -4.76769E-02
    9076.457     83.349   4.840  9.76298E-01  1.01951E+00 -4.32158E-02
    9077.938     84.830   4.880  9.81059E-01  1.01995E+00 -3.88951E-02
    9079.432     86.324   4.920  9.85248E-01  1.02035E+00 -3.50980E-02
    9080.937     87.830   4.960  9.88411E-01  1.02069E+00 -3.22748E-02
    9082.455     89.348   5.000  9.89968E-01  1.02095E+00 -3.09855E-02
    9083.985     90.878   5.040  9.89527E-01  1.02115E+00 -3.16190E-02
    9085.528     92.420   5.080  9.87419E-01  1.02129E+00 -3.38675E-02
    9087.082     93.974   5.120  9.84906E-01  1.02138E+00 -3.64728E-02
    9088.649     95.541   5.160  9.83931E-01  1.02140E+00 -3.74675E-02
    9090.228     97.120   5.200  9.86432E-01  1.02137E+00 -3.49329E-02
    9091.819     98.711   5.240  9.93381E-01  1.02126E+00 -2.78797E-02
    9093.422    100.314   5.280  1.00417E+00  1.02110E+00 -1.69308E-02
    9095.037    101.930   5.320  1.01636E+00  1.02088E+00 -4.52097E-03
    9096.665    103.557   5.360  1.02640E+00  1.02060E+00  5.79676E-03
    9098.305    105.197   5.400  1.03110E+00  1.02028E+00  1.08296E-02
    9099.957    106.849   5.440  1.02902E+00  1.01988E+00  9.13897E-03
    9101.621    108.513   5.480  1.02076E+00  1.01944E+00  1.32311E-03
    9103.297    110.190   5.520  1.00833E+00  1.01896E+00 -1.06306E-02
    9104.986    111.878   5.560  9.94433E-01  1.01844E+00 -2.40022E-02
    9106.687    113.579   5.600  9.81974E-01  1.01787E+00 -3.58969E-02
    9108.400    115.292   5.640  9.73559E-01  1.01729E+00 -4.37325E-02
    9110.125    117.017   5.680  9.70866E-01  1.01665E+00 -4.57832E-02
    9111.862    118.755   5.720  9.74571E-01  1.01597E+00 -4.13984E-02
    9113.612    120.504   5.760  9.84398E-01  1.01528E+00 -3.08804E-02
    9115.374    122.266   5.800  9.99279E-01  1.01456E+00 -1.52792E-02
    9117.148    124.040   5.840  1.01758E+00  1.01383E+00  3.74921E-03
    9118.934    125.826   5.880  1.03725E+00  1.01308E+00  2.41681E-02
    9120.732    127.624   5.920  1.05611E+00  1.01233E+00  4.37841E-02
    9122.542    129.435   5.960  1.07175E+00  1.01157E+00  6.01849E-02
    9124.365    131.257   6.000  1.08159E+00  1.01082E+00  7.07660E-02
