# # comment:                                                     FEFF 9.9.1  
# # Source:
# # Structure
# # Reduced
# # space
# # abc:
# # angles:109.581391
# # sites:
# # POT  SCF 100  7.0000   0, screened core-hole, AFOLP (folp(0)= 1.150)
# # Abs   Z=29 Rmt= 1.338 Rnm= 1.403 K  shell
# # Pot 1 Z=13 Rmt= 1.686 Rnm= 1.702
# # Pot 2 Z=29 Rmt= 1.320 Rnm= 1.391
# # Pot 3 Z=74 Rmt= 1.336 Rnm= 1.471
# # Pot 4 Z= 8 Rmt= 0.996 Rnm= 1.081
# # Gam_ch=1.729E+00 H-L exch Vi= 0.000E+00 Vr= 0.000E+00
# # Mu=-5.902E+00eV kf=2.235E+00 Vint=-1.593E+01eV Rs_int= 1.622
# FMS rfms= 9.0000
# # PATH  Rmax=-1.000,  Keep_limit= 0.00, Heap_limit 0.00  Pwcrit= 2.50%
#  S02=0.950  Temp=   0.00  Debye_temp=   0.00  Global_sig2= 0.00000
#  Energy zero shift, vr, vi    0.00000E+00   0.00000E+00
#  Curved wave amplitude ratio filter   4.000%
#     file         sig2 tot  cw amp ratio   deg  nlegs   reff  inp sig2
#     0/   0 paths used
#  xsedge+ 50, used to normalize mu           2.4564E-04
#  -----------------------------------------------------------------------
#  omega    e    k    mu    mu0     chi     @#
    8983.461     -9.712  -1.000  5.49762E-02  5.79057E-02 -2.92956E-03
    8983.760     -9.413  -0.960  5.86293E-02  6.22249E-02 -3.59564E-03
    8984.046     -9.127  -0.920  6.26244E-02  6.70340E-02 -4.40961E-03
    8984.321     -8.853  -0.880  6.70020E-02  7.24061E-02 -5.40404E-03
    8984.583     -8.590  -0.840  7.18077E-02  7.84261E-02 -6.61841E-03
    8984.833     -8.340  -0.800  7.70923E-02  8.51927E-02 -8.10033E-03
    8985.070     -8.103  -0.760  8.29128E-02  9.28192E-02 -9.90645E-03
    8985.296     -7.877  -0.720  8.93307E-02  1.01434E-01 -1.21032E-02
    8985.509     -7.664  -0.680  9.64115E-02  1.11178E-01 -1.47663E-02
    8985.710     -7.463  -0.640  1.04221E-01  1.22201E-01 -1.79791E-02
    8985.899     -7.274  -0.600  1.12821E-01  1.34649E-01 -2.18275E-02
    8986.076     -7.097  -0.560  1.22257E-01  1.48648E-01 -2.63911E-02
    8986.241     -6.932  -0.520  1.32546E-01  1.64275E-01 -3.17286E-02
    8986.393     -6.780  -0.480  1.43656E-01  1.81513E-01 -3.78568E-02
    8986.533     -6.640  -0.440  1.55483E-01  2.00210E-01 -4.47273E-02
    8986.661     -6.512  -0.400  1.67835E-01  2.20040E-01 -5.22052E-02
    8986.777     -6.396  -0.360  1.80423E-01  2.40485E-01 -6.00622E-02
    8986.881     -6.292  -0.320  1.92883E-01  2.60876E-01 -6.79930E-02
    8986.972     -6.201  -0.280  2.04811E-01  2.80468E-01 -7.56562E-02
    8987.052     -6.122  -0.240  2.15819E-01  2.98546E-01 -8.27269E-02
    8987.119     -6.055  -0.200  2.25574E-01  3.14516E-01 -8.89424E-02
    8987.173     -6.000  -0.160  2.33819E-01  3.27942E-01 -9.41233E-02
    8987.216     -5.957  -0.120  2.40379E-01  3.38550E-01 -9.81712E-02
    8987.247     -5.926  -0.080  2.45139E-01  3.46188E-01 -1.01049E-01
    8987.271     -5.902   0.000  2.49003E-01  3.52322E-01 -1.03319E-01
    8987.326     -5.847   0.120  2.57629E-01  3.66139E-01 -1.08510E-01
    8987.369     -5.805   0.160  2.64403E-01  3.76889E-01 -1.12486E-01
    8987.423     -5.750   0.200  2.73159E-01  3.90579E-01 -1.17420E-01
    8987.490     -5.683   0.240  2.83909E-01  4.07012E-01 -1.23102E-01
    8987.570     -5.603   0.280  2.96731E-01  4.25860E-01 -1.29128E-01
    8987.661     -5.512   0.320  3.11676E-01  4.46600E-01 -1.34924E-01
    8987.765     -5.408   0.360  3.28922E-01  4.68590E-01 -1.39668E-01
    8987.881     -5.293   0.400  3.48923E-01  4.91190E-01 -1.42267E-01
    8988.009     -5.164   0.440  3.72388E-01  5.13775E-01 -1.41388E-01
    8988.149     -5.024   0.480  4.00380E-01  5.35841E-01 -1.35461E-01
    8988.301     -4.872   0.520  4.34185E-01  5.57131E-01 -1.22947E-01
    8988.466     -4.707   0.560  4.74783E-01  5.77468E-01 -1.02685E-01
    8988.643     -4.531   0.600  5.22538E-01  5.96838E-01 -7.42993E-02
    8988.832     -4.342   0.640  5.76745E-01  6.15266E-01 -3.85212E-02
    8989.033     -4.140   0.680  6.35690E-01  6.32862E-01  2.82873E-03
    8989.246     -3.927   0.720  6.96093E-01  6.49751E-01  4.63418E-02
    8989.472     -3.701   0.760  7.51670E-01  6.66016E-01  8.56534E-02
    8989.709     -3.464   0.800  7.93856E-01  6.81753E-01  1.12104E-01
    8989.959     -3.214   0.840  8.17063E-01  6.97079E-01  1.19984E-01
    8990.221     -2.952   0.880  8.23004E-01  7.11997E-01  1.11007E-01
    8990.496     -2.677   0.920  8.17067E-01  7.26619E-01  9.04487E-02
    8990.782     -2.391   0.960  8.01232E-01  7.40937E-01  6.02953E-02
    8991.081     -2.092   1.000  7.75531E-01  7.54995E-01  2.05358E-02
    8991.392     -1.781   1.040  7.44988E-01  7.68786E-01 -2.37971E-02
    8991.715     -1.458   1.080  7.22709E-01  7.82334E-01 -5.96248E-02
    8992.050     -1.123   1.120  7.24466E-01  7.95618E-01 -7.11512E-02
    8992.398     -0.775   1.160  7.60466E-01  8.08648E-01 -4.81813E-02
    8992.757     -0.416   1.200  8.31986E-01  8.21390E-01  1.05955E-02
    8993.129     -0.044   1.240  9.26934E-01  8.33851E-01  9.30829E-02
    8993.513      0.340   1.280  1.02304E+00  8.46010E-01  1.77028E-01
    8993.910      0.736   1.320  1.10535E+00  8.57826E-01  2.47523E-01
    8994.318      1.145   1.360  1.15950E+00  8.69296E-01  2.90205E-01
    8994.739      1.565   1.400  1.16167E+00  8.80397E-01  2.81268E-01
    8995.171      1.998   1.440  1.11421E+00  8.91124E-01  2.23081E-01
    8995.616      2.443   1.480  1.05505E+00  9.01455E-01  1.53595E-01
    8996.074      2.900   1.520  1.01083E+00  9.11364E-01  9.94676E-02
    8996.543      3.370   1.560  9.77749E-01  9.20829E-01  5.69201E-02
    8997.025      3.851   1.600  9.55268E-01  9.29865E-01  2.54023E-02
    8997.518      4.345   1.640  9.53762E-01  9.38452E-01  1.53106E-02
    8998.024      4.851   1.680  9.74119E-01  9.46586E-01  2.75330E-02
    8998.542      5.369   1.720  1.00780E+00  9.54228E-01  5.35773E-02
    8999.073      5.900   1.760  1.05284E+00  9.61438E-01  9.14057E-02
    8999.615      6.442   1.800  1.09963E+00  9.68157E-01  1.31476E-01
    9000.170      6.997   1.840  1.12483E+00  9.74408E-01  1.50417E-01
    9000.737      7.564   1.880  1.12904E+00  9.80215E-01  1.48823E-01
    9001.316      8.143   1.920  1.13229E+00  9.85560E-01  1.46732E-01
    9001.907      8.734   1.960  1.14331E+00  9.90472E-01  1.52840E-01
    9002.511      9.338   2.000  1.16097E+00  9.94933E-01  1.66041E-01
    9003.127      9.954   2.040  1.18058E+00  9.98992E-01  1.81592E-01
    9003.755     10.581   2.080  1.19298E+00  1.00261E+00  1.90367E-01
    9004.395     11.221   2.120  1.19496E+00  1.00585E+00  1.89112E-01
    9005.047     11.874   2.160  1.19556E+00  1.00871E+00  1.86855E-01
    9005.711     12.538   2.200  1.20318E+00  1.01121E+00  1.91961E-01
    9006.388     13.215   2.240  1.21308E+00  1.01336E+00  1.99725E-01
    9007.077     13.904   2.280  1.21173E+00  1.01517E+00  1.96553E-01
    9007.778     14.605   2.320  1.18638E+00  1.01668E+00  1.69700E-01
    9008.491     15.318   2.360  1.13712E+00  1.01790E+00  1.19220E-01
    9009.217     16.043   2.400  1.07477E+00  1.01884E+00  5.59326E-02
    9009.954     16.781   2.440  1.01224E+00  1.01952E+00 -7.27906E-03
    9010.704     17.531   2.480  9.57830E-01  1.01995E+00 -6.21237E-02
    9011.466     18.293   2.520  9.15313E-01  1.02020E+00 -1.04885E-01
    9012.240     19.067   2.560  8.86012E-01  1.02022E+00 -1.34203E-01
    9013.027     19.853   2.600  8.69914E-01  1.02006E+00 -1.50146E-01
    9013.825     20.652   2.640  8.69999E-01  1.01974E+00 -1.49737E-01
    9014.636     21.463   2.680  8.80552E-01  1.01928E+00 -1.38723E-01
    9015.459     22.286   2.720  8.87150E-01  1.01866E+00 -1.31515E-01
    9016.294     23.121   2.760  8.85075E-01  1.01795E+00 -1.32878E-01
    9017.141     23.968   2.800  8.77737E-01  1.01713E+00 -1.39391E-01
    9018.001     24.828   2.840  8.70601E-01  1.01624E+00 -1.45636E-01
    9018.873     25.699   2.880  8.66517E-01  1.01524E+00 -1.48727E-01
    9019.756     26.583   2.920  8.66098E-01  1.01420E+00 -1.48102E-01
    9020.653     27.479   2.960  8.69038E-01  1.01311E+00 -1.44072E-01
    9021.561     28.388   3.000  8.74648E-01  1.01198E+00 -1.37332E-01
    9022.481     29.308   3.040  8.82344E-01  1.01084E+00 -1.28491E-01
    9023.414     30.241   3.080  8.92060E-01  1.00966E+00 -1.17600E-01
    9024.359     31.186   3.120  9.04359E-01  1.00848E+00 -1.04121E-01
    9025.316     32.143   3.160  9.19805E-01  1.00730E+00 -8.74958E-02
    9026.285     33.112   3.200  9.38548E-01  1.00615E+00 -6.75984E-02
    9027.267     34.094   3.240  9.59826E-01  1.00500E+00 -4.51744E-02
    9028.260     35.087   3.280  9.81949E-01  1.00389E+00 -2.19372E-02
    9029.266     36.093   3.320  1.00303E+00  1.00279E+00  2.44363E-04
    9030.284     37.111   3.360  1.02160E+00  1.00175E+00  1.98585E-02
    9031.314     38.141   3.400  1.03690E+00  1.00075E+00  3.61497E-02
    9032.357     39.184   3.440  1.04917E+00  9.99792E-01  4.93825E-02
    9033.411     40.238   3.480  1.05893E+00  9.98880E-01  6.00547E-02
    9034.478     41.305   3.520  1.06615E+00  9.98037E-01  6.81123E-02
    9035.557     42.384   3.560  1.07011E+00  9.97244E-01  7.28654E-02
    9036.648     43.475   3.600  1.07007E+00  9.96519E-01  7.35557E-02
    9037.752     44.579   3.640  1.06586E+00  9.95844E-01  7.00205E-02
    9038.867     45.694   3.680  1.05791E+00  9.95242E-01  6.26675E-02
    9039.995     46.822   3.720  1.04725E+00  9.94693E-01  5.25618E-02
    9041.135     47.962   3.760  1.03546E+00  9.94240E-01  4.12242E-02
    9042.287     49.114   3.800  1.02433E+00  9.93839E-01  3.04904E-02
    9043.452     50.278   3.840  1.01592E+00  9.93490E-01  2.24285E-02
    9044.628     51.455   3.880  1.01194E+00  9.93236E-01  1.87073E-02
    9045.817     52.644   3.920  1.01335E+00  9.93035E-01  2.03133E-02
    9047.018     53.845   3.960  1.02016E+00  9.92885E-01  2.72735E-02
    9048.231     55.058   4.000  1.03119E+00  9.92829E-01  3.83634E-02
    9049.456     56.283   4.040  1.04405E+00  9.92804E-01  5.12446E-02
    9050.694     57.520   4.080  1.05600E+00  9.92870E-01  6.31274E-02
    9051.943     58.770   4.120  1.06465E+00  9.92983E-01  7.16717E-02
    9053.205     60.032   4.160  1.06879E+00  9.93145E-01  7.56467E-02
    9054.479     61.306   4.200  1.06801E+00  9.93352E-01  7.46628E-02
    9055.765     62.592   4.240  1.06243E+00  9.93623E-01  6.88050E-02
    9057.064     63.891   4.280  1.05252E+00  9.93940E-01  5.85777E-02
    9058.374     65.201   4.320  1.03926E+00  9.94298E-01  4.49599E-02
    9059.697     66.524   4.360  1.02416E+00  9.94696E-01  2.94645E-02
    9061.032     67.859   4.400  1.00917E+00  9.95132E-01  1.40354E-02
    9062.380     69.206   4.440  9.96050E-01  9.95606E-01  4.43579E-04
    9063.739     70.566   4.480  9.85883E-01  9.96116E-01 -1.02327E-02
    9065.111     71.937   4.520  9.78978E-01  9.96636E-01 -1.76580E-02
    9066.494     73.321   4.560  9.75038E-01  9.97185E-01 -2.21468E-02
    9067.890     74.717   4.600  9.73400E-01  9.97741E-01 -2.43407E-02
    9069.298     76.125   4.640  9.73366E-01  9.98304E-01 -2.49377E-02
    9070.719     77.546   4.680  9.74160E-01  9.98892E-01 -2.47319E-02
    9072.151     78.978   4.720  9.74814E-01  9.99483E-01 -2.46695E-02
    9073.596     80.423   4.760  9.74324E-01  1.00007E+00 -2.57507E-02
    9075.053     81.880   4.800  9.71841E-01  1.00066E+00 -2.88233E-02
    9076.522     83.349   4.840  9.66956E-01  1.00125E+00 -3.42936E-02
    9078.004     84.830   4.880  9.59885E-01  1.00181E+00 -4.19231E-02
    9079.497     86.324   4.920  9.51490E-01  1.00238E+00 -5.08915E-02
    9081.003     87.830   4.960  9.42892E-01  1.00290E+00 -6.00094E-02
    9082.521     89.347   5.000  9.35420E-01  1.00343E+00 -6.80117E-02
    9084.051     90.878   5.040  9.30068E-01  1.00391E+00 -7.38395E-02
    9085.593     92.420   5.080  9.27572E-01  1.00437E+00 -7.67967E-02
    9087.147     93.974   5.120  9.28149E-01  1.00479E+00 -7.66456E-02
    9088.714     95.541   5.160  9.31727E-01  1.00520E+00 -7.34777E-02
    9090.293     97.120   5.200  9.38110E-01  1.00555E+00 -6.74437E-02
    9091.884     98.711   5.240  9.47235E-01  1.00588E+00 -5.86477E-02
    9093.487    100.314   5.280  9.59001E-01  1.00615E+00 -4.71482E-02
    9095.103    101.930   5.320  9.73388E-01  1.00639E+00 -3.30065E-02
    9096.730    103.557   5.360  9.90191E-01  1.00657E+00 -1.63831E-02
    9098.370    105.197   5.400  1.00903E+00  1.00671E+00  2.32272E-03
    9100.022    106.849   5.440  1.02891E+00  1.00680E+00  2.21079E-02
    9101.686    108.513   5.480  1.04801E+00  1.00685E+00  4.11519E-02
    9103.363    110.190   5.520  1.06413E+00  1.00686E+00  5.72728E-02
    9105.051    111.878   5.560  1.07575E+00  1.00682E+00  6.89278E-02
    9106.752    113.579   5.600  1.08246E+00  1.00672E+00  7.57419E-02
    9108.465    115.292   5.640  1.08477E+00  1.00657E+00  7.82073E-02
    9110.190    117.017   5.680  1.08326E+00  1.00637E+00  7.68835E-02
    9111.928    118.754   5.720  1.07805E+00  1.00613E+00  7.19117E-02
    9113.677    120.504   5.760  1.06907E+00  1.00583E+00  6.32419E-02
    9115.439    122.266   5.800  1.05685E+00  1.00551E+00  5.13444E-02
    9117.213    124.040   5.840  1.04269E+00  1.00513E+00  3.75613E-02
    9118.999    125.826   5.880  1.02837E+00  1.00473E+00  2.36379E-02
    9120.797    127.624   5.920  1.01524E+00  1.00427E+00  1.09680E-02
    9122.608    129.435   5.960  1.00411E+00  1.00378E+00  3.32444E-04
    9124.430    131.257   6.000  9.95151E-01  1.00325E+00 -8.09723E-03
