# # comment:                                                     FEFF 9.9.1  
# # Source:
# # Structure
# # Reduced
# # space
# # abc:
# # angles:
# # sites:
# # POT  SCF 100  7.0000   0, screened core-hole, AFOLP (folp(0)= 1.150)
# # Abs   Z=29 Rmt= 1.360 Rnm= 1.424 K  shell
# # Pot 1 Z= 3 Rmt= 1.274 Rnm= 1.334
# # Pot 2 Z=29 Rmt= 1.355 Rnm= 1.415
# # Pot 3 Z=15 Rmt= 0.948 Rnm= 1.158
# # Pot 4 Z= 8 Rmt= 0.938 Rnm= 1.036
# # Gam_ch=1.729E+00 H-L exch Vi= 0.000E+00 Vr= 0.000E+00
# # Mu=-5.886E+00eV kf=2.382E+00 Vint=-1.693E+01eV Rs_int= 1.522
# FMS rfms= 9.0000
# # PATH  Rmax=-1.000,  Keep_limit= 0.00, Heap_limit 0.00  Pwcrit= 2.50%
#  S02=0.950  Temp=   0.00  Debye_temp=   0.00  Global_sig2= 0.00000
#  Energy zero shift, vr, vi    0.00000E+00   0.00000E+00
#  Curved wave amplitude ratio filter   4.000%
#     file         sig2 tot  cw amp ratio   deg  nlegs   reff  inp sig2
#     0/   0 paths used
#  xsedge+ 50, used to normalize mu           2.4679E-04
#  -----------------------------------------------------------------------
#  omega    e    k    mu    mu0     chi     @#
    8983.458     -9.696  -1.000  5.21702E-02  5.47837E-02 -2.61356E-03
    8983.757     -9.397  -0.960  5.57349E-02  5.87941E-02 -3.05927E-03
    8984.044     -9.111  -0.920  5.96757E-02  6.32549E-02 -3.57916E-03
    8984.318     -8.836  -0.880  6.40474E-02  6.82329E-02 -4.18553E-03
    8984.580     -8.574  -0.840  6.89133E-02  7.38061E-02 -4.89272E-03
    8984.830     -8.324  -0.800  7.43474E-02  8.00648E-02 -5.71738E-03
    8985.068     -8.087  -0.760  8.04343E-02  8.71129E-02 -6.67864E-03
    8985.293     -7.861  -0.720  8.72697E-02  9.50679E-02 -7.79816E-03
    8985.507     -7.648  -0.680  9.49593E-02  1.04059E-01 -9.09990E-03
    8985.708     -7.447  -0.640  1.03614E-01  1.14224E-01 -1.06093E-02
    8985.897     -7.258  -0.600  1.13344E-01  1.25696E-01 -1.23515E-02
    8986.073     -7.081  -0.560  1.24243E-01  1.38591E-01 -1.43481E-02
    8986.238     -6.916  -0.520  1.36365E-01  1.52978E-01 -1.66126E-02
    8986.390     -6.764  -0.480  1.49699E-01  1.68842E-01 -1.91432E-02
    8986.531     -6.624  -0.440  1.64129E-01  1.86044E-01 -2.19148E-02
    8986.659     -6.496  -0.400  1.79409E-01  2.04283E-01 -2.48731E-02
    8986.775     -6.380  -0.360  1.95151E-01  2.23083E-01 -2.79326E-02
    8986.878     -6.276  -0.320  2.10848E-01  2.41831E-01 -3.09832E-02
    8986.970     -6.185  -0.280  2.25937E-01  2.59842E-01 -3.39049E-02
    8987.049     -6.105  -0.240  2.39875E-01  2.76461E-01 -3.65856E-02
    8987.116     -6.038  -0.200  2.52204E-01  2.91140E-01 -3.89357E-02
    8987.171     -5.983  -0.160  2.62586E-01  3.03480E-01 -4.08936E-02
    8987.213     -5.941  -0.120  2.70805E-01  3.13229E-01 -4.24244E-02
    8987.244     -5.910  -0.080  2.76733E-01  3.20249E-01 -4.35151E-02
    8987.268     -5.886   0.000  2.81499E-01  3.25885E-01 -4.43868E-02
    8987.323     -5.831   0.120  2.92059E-01  3.38596E-01 -4.65372E-02
    8987.366     -5.788   0.160  3.00318E-01  3.48455E-01 -4.81366E-02
    8987.421     -5.734   0.200  3.10934E-01  3.61047E-01 -5.01129E-02
    8987.488     -5.666   0.240  3.23750E-01  3.76148E-01 -5.23980E-02
    8987.567     -5.587   0.280  3.38632E-01  3.93480E-01 -5.48487E-02
    8987.658     -5.496   0.320  3.55269E-01  4.12540E-01 -5.72713E-02
    8987.762     -5.392   0.360  3.73349E-01  4.32753E-01 -5.94048E-02
    8987.878     -5.276   0.400  3.92598E-01  4.53554E-01 -6.09562E-02
    8988.006     -5.148   0.440  4.12602E-01  4.74330E-01 -6.17273E-02
    8988.146     -5.008   0.480  4.32869E-01  4.94652E-01 -6.17832E-02
    8988.299     -4.856   0.520  4.52527E-01  5.14293E-01 -6.17659E-02
    8988.463     -4.691   0.560  4.70055E-01  5.33066E-01 -6.30108E-02
    8988.640     -4.514   0.600  4.83783E-01  5.50986E-01 -6.72021E-02
    8988.829     -4.325   0.640  4.92590E-01  5.68094E-01 -7.55046E-02
    8989.030     -4.124   0.680  4.96624E-01  5.84475E-01 -8.78509E-02
    8989.243     -3.911   0.720  4.97221E-01  6.00269E-01 -1.03048E-01
    8989.469     -3.685   0.760  4.96302E-01  6.15555E-01 -1.19253E-01
    8989.707     -3.448   0.800  4.96459E-01  6.30441E-01 -1.33982E-01
    8989.957     -3.198   0.840  5.00940E-01  6.45024E-01 -1.44084E-01
    8990.219     -2.935   0.880  5.12527E-01  6.59342E-01 -1.46815E-01
    8990.493     -2.661   0.920  5.31806E-01  6.73466E-01 -1.41660E-01
    8990.780     -2.375   0.960  5.56080E-01  6.87429E-01 -1.31349E-01
    8991.078     -2.076   1.000  5.80928E-01  7.01275E-01 -1.20347E-01
    8991.389     -1.765   1.040  6.04272E-01  7.14997E-01 -1.10725E-01
    8991.712     -1.442   1.080  6.27974E-01  7.28620E-01 -1.00646E-01
    8992.048     -1.107   1.120  6.53831E-01  7.42123E-01 -8.82915E-02
    8992.395     -0.759   1.160  6.81667E-01  7.55538E-01 -7.38709E-02
    8992.755     -0.400   1.200  7.13122E-01  7.68811E-01 -5.56896E-02
    8993.127     -0.028   1.240  7.52757E-01  7.81967E-01 -2.92101E-02
    8993.511      0.356   1.280  8.03122E-01  7.94966E-01  8.15590E-03
    8993.907      0.753   1.320  8.63237E-01  8.07806E-01  5.54309E-02
    8994.315      1.161   1.360  9.30508E-01  8.20442E-01  1.10066E-01
    8994.736      1.582   1.400  1.00106E+00  8.32869E-01  1.68193E-01
    8995.169      2.014   1.440  1.06880E+00  8.45059E-01  2.23737E-01
    8995.614      2.459   1.480  1.12879E+00  8.56962E-01  2.71824E-01
    8996.071      2.917   1.520  1.18290E+00  8.68591E-01  3.14312E-01
    8996.540      3.386   1.560  1.23413E+00  8.79919E-01  3.54214E-01
    8997.022      3.868   1.600  1.27548E+00  8.90895E-01  3.84586E-01
    8997.516      4.361   1.640  1.29892E+00  9.01511E-01  3.97412E-01
    8998.022      4.867   1.680  1.30295E+00  9.11778E-01  3.91170E-01
    8998.540      5.386   1.720  1.28724E+00  9.21630E-01  3.65610E-01
    8999.070      5.916   1.760  1.25314E+00  9.31059E-01  3.22083E-01
    8999.613      6.458   1.800  1.20426E+00  9.40080E-01  2.64181E-01
    9000.167      7.013   1.840  1.14676E+00  9.48646E-01  1.98112E-01
    9000.734      7.580   1.880  1.09269E+00  9.56775E-01  1.35918E-01
    9001.313      8.159   1.920  1.05917E+00  9.64444E-01  9.47274E-02
    9001.905      8.750   1.960  1.05389E+00  9.71651E-01  8.22398E-02
    9002.508      9.354   2.000  1.06696E+00  9.78395E-01  8.85663E-02
    9003.124      9.970   2.040  1.07490E+00  9.84676E-01  9.02263E-02
    9003.752     10.598   2.080  1.06101E+00  9.90494E-01  7.05190E-02
    9004.392     11.238   2.120  1.03079E+00  9.95853E-01  3.49327E-02
    9005.044     11.890   2.160  9.98776E-01  1.00074E+00 -1.95964E-03
    9005.709     12.554   2.200  9.74257E-01  1.00518E+00 -3.09277E-02
    9006.385     13.231   2.240  9.61837E-01  1.00918E+00 -4.73477E-02
    9007.074     13.920   2.280  9.62760E-01  1.01276E+00 -5.00042E-02
    9007.775     14.621   2.320  9.73979E-01  1.01591E+00 -4.19278E-02
    9008.488     15.334   2.360  9.88014E-01  1.01866E+00 -3.06482E-02
    9009.214     16.060   2.400  9.97204E-01  1.02104E+00 -2.38352E-02
    9009.951     16.797   2.440  9.99999E-01  1.02302E+00 -2.30248E-02
    9010.701     17.547   2.480  9.96352E-01  1.02466E+00 -2.83133E-02
    9011.463     18.309   2.520  9.85900E-01  1.02597E+00 -4.00725E-02
    9012.237     19.083   2.560  9.71701E-01  1.02696E+00 -5.52547E-02
    9013.024     19.870   2.600  9.59947E-01  1.02762E+00 -6.76752E-02
    9013.822     20.668   2.640  9.54112E-01  1.02802E+00 -7.39122E-02
    9014.633     21.479   2.680  9.52328E-01  1.02817E+00 -7.58432E-02
    9015.456     22.302   2.720  9.50644E-01  1.02805E+00 -7.74090E-02
    9016.291     23.137   2.760  9.48142E-01  1.02772E+00 -7.95753E-02
    9017.139     23.984   2.800  9.49254E-01  1.02718E+00 -7.79220E-02
    9017.998     24.844   2.840  9.51478E-01  1.02646E+00 -7.49805E-02
    9018.870     25.716   2.880  9.53397E-01  1.02555E+00 -7.21567E-02
    9019.754     26.600   2.920  9.55206E-01  1.02451E+00 -6.93066E-02
    9020.650     27.496   2.960  9.56890E-01  1.02334E+00 -6.64513E-02
    9021.558     28.404   3.000  9.58135E-01  1.02205E+00 -6.39138E-02
    9022.479     29.324   3.040  9.58462E-01  1.02065E+00 -6.21837E-02
    9023.411     30.257   3.080  9.57784E-01  1.01918E+00 -6.13950E-02
    9024.356     31.202   3.120  9.56512E-01  1.01764E+00 -6.11236E-02
    9025.313     32.159   3.160  9.55275E-01  1.01604E+00 -6.07695E-02
    9026.283     33.128   3.200  9.54536E-01  1.01439E+00 -5.98532E-02
    9027.264     34.110   3.240  9.54826E-01  1.01272E+00 -5.78925E-02
    9028.258     35.103   3.280  9.56634E-01  1.01104E+00 -5.44062E-02
    9029.263     36.109   3.320  9.60464E-01  1.00936E+00 -4.88959E-02
    9030.282     37.127   3.360  9.66802E-01  1.00768E+00 -4.08786E-02
    9031.312     38.157   3.400  9.75874E-01  1.00601E+00 -3.01354E-02
    9032.354     39.200   3.440  9.87503E-01  1.00437E+00 -1.68667E-02
    9033.409     40.254   3.480  1.00099E+00  1.00277E+00 -1.77971E-03
    9034.476     41.321   3.520  1.01532E+00  1.00123E+00  1.40913E-02
    9035.555     42.400   3.560  1.02936E+00  9.99714E-01  2.96470E-02
    9036.646     43.491   3.600  1.04240E+00  9.98268E-01  4.41347E-02
    9037.749     44.595   3.640  1.05413E+00  9.96893E-01  5.72416E-02
    9038.865     45.710   3.680  1.06440E+00  9.95571E-01  6.88332E-02
    9039.992     46.838   3.720  1.07294E+00  9.94325E-01  7.86153E-02
    9041.132     47.978   3.760  1.07930E+00  9.93160E-01  8.61388E-02
    9042.284     49.130   3.800  1.08290E+00  9.92095E-01  9.08071E-02
    9043.449     50.295   3.840  1.08319E+00  9.91091E-01  9.20978E-02
    9044.625     51.471   3.880  1.08005E+00  9.90170E-01  8.98773E-02
    9045.814     52.660   3.920  1.07372E+00  9.89355E-01  8.43678E-02
    9047.015     53.861   3.960  1.06461E+00  9.88627E-01  7.59881E-02
    9048.228     55.074   4.000  1.05330E+00  9.88004E-01  6.52957E-02
    9049.453     56.299   4.040  1.04055E+00  9.87445E-01  5.31062E-02
    9050.691     57.537   4.080  1.02731E+00  9.86992E-01  4.03197E-02
    9051.940     58.786   4.120  1.01444E+00  9.86624E-01  2.78134E-02
    9053.202     60.048   4.160  1.00265E+00  9.86363E-01  1.62825E-02
    9054.476     61.322   4.200  9.92277E-01  9.86165E-01  6.11257E-03
    9055.763     62.608   4.240  9.83403E-01  9.86071E-01 -2.66793E-03
    9057.061     63.907   4.280  9.75848E-01  9.86058E-01 -1.02106E-02
    9058.372     65.218   4.320  9.69424E-01  9.86127E-01 -1.67027E-02
    9059.695     66.540   4.360  9.63982E-01  9.86274E-01 -2.22912E-02
    9061.030     67.875   4.400  9.59406E-01  9.86477E-01 -2.70714E-02
    9062.377     69.223   4.440  9.55696E-01  9.86778E-01 -3.10820E-02
    9063.736     70.582   4.480  9.52869E-01  9.87132E-01 -3.42633E-02
    9065.108     71.954   4.520  9.51158E-01  9.87559E-01 -3.64008E-02
    9066.492     73.337   4.560  9.50829E-01  9.88035E-01 -3.72058E-02
    9067.888     74.733   4.600  9.52089E-01  9.88579E-01 -3.64902E-02
    9069.296     76.141   4.640  9.54926E-01  9.89168E-01 -3.42419E-02
    9070.716     77.562   4.680  9.59194E-01  9.89797E-01 -3.06032E-02
    9072.149     78.994   4.720  9.64557E-01  9.90465E-01 -2.59075E-02
    9073.593     80.439   4.760  9.70587E-01  9.91147E-01 -2.05599E-02
    9075.050     81.896   4.800  9.76892E-01  9.91886E-01 -1.49941E-02
    9076.519     83.365   4.840  9.82991E-01  9.92635E-01 -9.64471E-03
    9078.001     84.847   4.880  9.88470E-01  9.93391E-01 -4.92090E-03
    9079.494     86.340   4.920  9.92998E-01  9.94175E-01 -1.17739E-03
    9081.000     87.846   4.960  9.96348E-01  9.94961E-01  1.38633E-03
    9082.518     89.364   5.000  9.98532E-01  9.95747E-01  2.78502E-03
    9084.048     90.894   5.040  9.99654E-01  9.96528E-01  3.12654E-03
    9085.590     92.436   5.080  9.99749E-01  9.97280E-01  2.46856E-03
    9087.145     93.991   5.120  9.98846E-01  9.98022E-01  8.23884E-04
    9088.711     95.557   5.160  9.97093E-01  9.98733E-01 -1.64019E-03
    9090.290     97.136   5.200  9.94966E-01  9.99432E-01 -4.46633E-03
    9091.881     98.727   5.240  9.93033E-01  1.00009E+00 -7.06085E-03
    9093.485    100.330   5.280  9.91637E-01  1.00072E+00 -9.07807E-03
    9095.100    101.946   5.320  9.90668E-01  1.00130E+00 -1.06274E-02
    9096.728    103.573   5.360  9.89658E-01  1.00183E+00 -1.21731E-02
    9098.367    105.213   5.400  9.88133E-01  1.00230E+00 -1.41679E-02
    9100.019    106.865   5.440  9.86039E-01  1.00275E+00 -1.67081E-02
    9101.684    108.529   5.480  9.83751E-01  1.00312E+00 -1.93723E-02
    9103.360    110.206   5.520  9.82058E-01  1.00343E+00 -2.13675E-02
    9105.049    111.894   5.560  9.81799E-01  1.00368E+00 -2.18786E-02
    9106.749    113.595   5.600  9.83501E-01  1.00386E+00 -2.03563E-02
    9108.462    115.308   5.640  9.87343E-01  1.00399E+00 -1.66426E-02
    9110.188    117.033   5.680  9.93051E-01  1.00404E+00 -1.09874E-02
    9111.925    118.771   5.720  1.00000E+00  1.00402E+00 -4.01570E-03
    9113.674    120.520   5.760  1.00736E+00  1.00395E+00  3.41752E-03
    9115.436    122.282   5.800  1.01425E+00  1.00380E+00  1.04507E-02
    9117.210    124.056   5.840  1.02003E+00  1.00358E+00  1.64494E-02
    9118.996    125.842   5.880  1.02446E+00  1.00331E+00  2.11478E-02
    9120.795    127.640   5.920  1.02762E+00  1.00297E+00  2.46487E-02
    9122.605    129.451   5.960  1.02981E+00  1.00255E+00  2.72595E-02
    9124.428    131.273   6.000  1.03141E+00  1.00204E+00  2.93633E-02
