# # comment:                                                     FEFF 9.9.1  
# # Source:
# # Structure
# # Reduced
# # space
# # abc:
# # angles:
# # sites:
# # POT  SCF 100  7.0000   0, screened core-hole, AFOLP (folp(0)= 1.150)
# # Abs   Z=29 Rmt= 1.223 Rnm= 1.290 K  shell
# # Pot 1 Z=56 Rmt= 1.930 Rnm= 1.979
# # Pot 2 Z=57 Rmt= 1.746 Rnm= 1.820
# # Pot 3 Z=29 Rmt= 1.234 Rnm= 1.303
# # Pot 4 Z= 8 Rmt= 1.054 Rnm= 1.105
# # Gam_ch=1.729E+00 H-L exch Vi= 0.000E+00 Vr= 0.000E+00
# # Mu=-8.552E+00eV kf=2.036E+00 Vint=-1.792E+01eV Rs_int= 1.781
# FMS rfms= 9.0000
# # PATH  Rmax=-1.000,  Keep_limit= 0.00, Heap_limit 0.00  Pwcrit= 2.50%
#  S02=0.950  Temp=   0.00  Debye_temp=   0.00  Global_sig2= 0.00000
#  Energy zero shift, vr, vi    0.00000E+00   0.00000E+00
#  Curved wave amplitude ratio filter   4.000%
#     file         sig2 tot  cw amp ratio   deg  nlegs   reff  inp sig2
#     0/   0 paths used
#  xsedge+ 50, used to normalize mu           2.4444E-04
#  -----------------------------------------------------------------------
#  omega    e    k    mu    mu0     chi     @#
    8985.189    -12.362  -1.000  3.79098E-02  5.73625E-02 -1.94528E-02
    8985.488    -12.063  -0.960  3.98386E-02  6.16299E-02 -2.17913E-02
    8985.774    -11.777  -0.920  4.19219E-02  6.63799E-02 -2.44580E-02
    8986.048    -11.502  -0.880  4.41807E-02  7.16844E-02 -2.75036E-02
    8986.311    -11.240  -0.840  4.66401E-02  7.76268E-02 -3.09867E-02
    8986.561    -10.990  -0.800  4.93297E-02  8.43040E-02 -3.49743E-02
    8986.798    -10.752  -0.760  5.22843E-02  9.18274E-02 -3.95431E-02
    8987.024    -10.527  -0.720  5.55441E-02  1.00323E-01 -4.47785E-02
    8987.237    -10.313  -0.680  5.91545E-02  1.09928E-01 -5.07738E-02
    8987.438    -10.112  -0.640  6.31642E-02  1.20791E-01 -5.76268E-02
    8987.627     -9.923  -0.600  6.76214E-02  1.33055E-01 -6.54333E-02
    8987.804     -9.747  -0.560  7.25671E-02  1.46843E-01 -7.42755E-02
    8987.969     -9.582  -0.520  7.80230E-02  1.62228E-01 -8.42053E-02
    8988.121     -9.430  -0.480  8.39764E-02  1.79197E-01 -9.52205E-02
    8988.261     -9.289  -0.440  9.03614E-02  1.97599E-01 -1.07237E-01
    8988.389     -9.161  -0.400  9.70452E-02  2.17112E-01 -1.20067E-01
    8988.505     -9.046  -0.360  1.03827E-01  2.37230E-01 -1.33403E-01
    8988.609     -8.942  -0.320  1.10457E-01  2.57294E-01 -1.46838E-01
    8988.700     -8.850  -0.280  1.16675E-01  2.76574E-01 -1.59899E-01
    8988.779     -8.771  -0.240  1.22256E-01  2.94367E-01 -1.72110E-01
    8988.847     -8.704  -0.200  1.27042E-01  3.10087E-01 -1.83045E-01
    8988.901     -8.649  -0.160  1.30946E-01  3.23306E-01 -1.92359E-01
    8988.944     -8.607  -0.120  1.33942E-01  3.33751E-01 -1.99810E-01
    8988.975     -8.576  -0.080  1.36035E-01  3.41274E-01 -2.05239E-01
    8988.999     -8.552   0.000  1.37631E-01  3.47316E-01 -2.09685E-01
    8989.054     -8.497   0.120  1.41365E-01  3.60922E-01 -2.19557E-01
    8989.096     -8.454   0.160  1.44219E-01  3.71505E-01 -2.27286E-01
    8989.151     -8.399   0.200  1.47735E-01  3.84996E-01 -2.37261E-01
    8989.218     -8.332   0.240  1.51786E-01  4.01223E-01 -2.49437E-01
    8989.298     -8.253   0.280  1.56166E-01  4.19811E-01 -2.63645E-01
    8989.389     -8.162   0.320  1.60668E-01  4.40290E-01 -2.79622E-01
    8989.493     -8.058   0.360  1.65084E-01  4.62036E-01 -2.96952E-01
    8989.609     -7.942   0.400  1.69288E-01  4.84405E-01 -3.15117E-01
    8989.737     -7.814   0.440  1.73271E-01  5.06807E-01 -3.33537E-01
    8989.877     -7.674   0.480  1.77090E-01  5.28750E-01 -3.51660E-01
    8990.029     -7.522   0.520  1.80961E-01  5.49943E-01 -3.68982E-01
    8990.194     -7.357   0.560  1.85124E-01  5.70251E-01 -3.85127E-01
    8990.371     -7.180   0.600  1.89789E-01  5.89639E-01 -3.99850E-01
    8990.560     -6.991   0.640  1.95083E-01  6.08152E-01 -4.13069E-01
    8990.761     -6.790   0.680  2.01084E-01  6.25851E-01 -4.24768E-01
    8990.974     -6.577   0.720  2.08188E-01  6.42899E-01 -4.34711E-01
    8991.200     -6.351   0.760  2.16934E-01  6.59331E-01 -4.42397E-01
    8991.437     -6.113   0.800  2.28083E-01  6.75277E-01 -4.47194E-01
    8991.687     -5.863   0.840  2.42124E-01  6.90792E-01 -4.48668E-01
    8991.949     -5.601   0.880  2.59084E-01  7.05953E-01 -4.46869E-01
    8992.224     -5.327   0.920  2.78560E-01  7.20766E-01 -4.42205E-01
    8992.510     -5.040   0.960  3.00111E-01  7.35301E-01 -4.35190E-01
    8992.809     -4.742   1.000  3.22925E-01  7.49558E-01 -4.26634E-01
    8993.120     -4.431   1.040  3.45654E-01  7.63546E-01 -4.17892E-01
    8993.443     -4.108   1.080  3.67185E-01  7.77246E-01 -4.10061E-01
    8993.778     -3.772   1.120  3.88252E-01  7.90694E-01 -4.02442E-01
    8994.126     -3.425   1.160  4.11759E-01  8.03839E-01 -3.92081E-01
    8994.485     -3.065   1.200  4.40874E-01  8.16687E-01 -3.75813E-01
    8994.857     -2.694   1.240  4.76885E-01  8.29199E-01 -3.52314E-01
    8995.241     -2.309   1.280  5.21332E-01  8.41376E-01 -3.20044E-01
    8995.637     -1.913   1.320  5.78348E-01  8.53194E-01 -2.74847E-01
    8996.046     -1.505   1.360  6.52593E-01  8.64633E-01 -2.12040E-01
    8996.467     -1.084   1.400  7.43596E-01  8.75689E-01 -1.32094E-01
    8996.899     -0.651   1.440  8.45598E-01  8.86316E-01 -4.07184E-02
    8997.344     -0.206   1.480  9.56387E-01  8.96511E-01  5.98769E-02
    8997.802      0.251   1.520  1.07343E+00  9.06250E-01  1.67175E-01
    8998.271      0.720   1.560  1.17796E+00  9.15553E-01  2.62410E-01
    8998.753      1.202   1.600  1.24885E+00  9.24398E-01  3.24450E-01
    8999.246      1.696   1.640  1.30418E+00  9.32761E-01  3.71415E-01
    8999.752      2.202   1.680  1.39046E+00  9.40644E-01  4.49816E-01
    9000.270      2.720   1.720  1.53091E+00  9.48048E-01  5.82862E-01
    9000.801      3.250   1.760  1.67203E+00  9.54975E-01  7.17055E-01
    9001.343      3.793   1.800  1.69629E+00  9.61448E-01  7.34838E-01
    9001.898      4.347   1.840  1.57493E+00  9.67430E-01  6.07499E-01
    9002.465      4.914   1.880  1.41727E+00  9.72969E-01  4.44300E-01
    9003.044      5.493   1.920  1.29672E+00  9.78049E-01  3.18671E-01
    9003.635      6.085   1.960  1.21610E+00  9.82718E-01  2.33379E-01
    9004.239      6.688   2.000  1.16661E+00  9.86941E-01  1.79672E-01
    9004.855      7.304   2.040  1.14913E+00  9.90748E-01  1.58386E-01
    9005.482      7.932   2.080  1.15860E+00  9.94166E-01  1.64432E-01
    9006.123      8.572   2.120  1.17646E+00  9.97204E-01  1.79256E-01
    9006.775      9.224   2.160  1.16926E+00  9.99873E-01  1.69390E-01
    9007.439      9.889   2.200  1.12031E+00  1.00222E+00  1.18092E-01
    9008.116     10.565   2.240  1.06165E+00  1.00422E+00  5.74317E-02
    9008.805     11.254   2.280  1.02369E+00  1.00594E+00  1.77477E-02
    9009.506     11.955   2.320  1.01140E+00  1.00735E+00  4.05550E-03
    9010.219     12.668   2.360  1.02066E+00  1.00852E+00  1.21425E-02
    9010.944     13.394   2.400  1.04363E+00  1.00942E+00  3.42123E-02
    9011.682     14.131   2.440  1.07405E+00  1.01009E+00  6.39531E-02
    9012.432     14.881   2.480  1.10119E+00  1.01056E+00  9.06322E-02
    9013.194     15.643   2.520  1.11350E+00  1.01082E+00  1.02675E-01
    9013.968     16.417   2.560  1.11061E+00  1.01092E+00  9.96949E-02
    9014.754     17.204   2.600  1.09394E+00  1.01084E+00  8.30983E-02
    9015.553     18.002   2.640  1.06766E+00  1.01064E+00  5.70254E-02
    9016.364     18.813   2.680  1.03689E+00  1.01031E+00  2.65777E-02
    9017.187     19.636   2.720  1.00602E+00  1.00988E+00 -3.85473E-03
    9018.022     20.471   2.760  9.77208E-01  1.00934E+00 -3.21303E-02
    9018.869     21.319   2.800  9.50278E-01  1.00871E+00 -5.84344E-02
    9019.729     22.178   2.840  9.24610E-01  1.00803E+00 -8.34206E-02
    9020.600     23.050   2.880  9.00014E-01  1.00728E+00 -1.07266E-01
    9021.484     23.934   2.920  8.76880E-01  1.00650E+00 -1.29624E-01
    9022.381     24.830   2.960  8.56416E-01  1.00567E+00 -1.49253E-01
    9023.289     25.738   3.000  8.40124E-01  1.00484E+00 -1.64719E-01
    9024.209     26.659   3.040  8.28900E-01  1.00397E+00 -1.75066E-01
    9025.142     27.591   3.080  8.23017E-01  1.00311E+00 -1.80089E-01
    9026.087     28.536   3.120  8.22323E-01  1.00225E+00 -1.79925E-01
    9027.044     29.493   3.160  8.25817E-01  1.00142E+00 -1.75599E-01
    9028.013     30.462   3.200  8.32532E-01  1.00059E+00 -1.68059E-01
    9028.995     31.444   3.240  8.41591E-01  9.99776E-01 -1.58184E-01
    9029.988     32.438   3.280  8.52102E-01  9.98996E-01 -1.46894E-01
    9030.994     33.443   3.320  8.63448E-01  9.98276E-01 -1.34828E-01
    9032.012     34.461   3.360  8.75467E-01  9.97574E-01 -1.22107E-01
    9033.042     35.492   3.400  8.88628E-01  9.96934E-01 -1.08306E-01
    9034.085     36.534   3.440  9.03190E-01  9.96318E-01 -9.31283E-02
    9035.139     37.589   3.480  9.19585E-01  9.95768E-01 -7.61833E-02
    9036.206     38.655   3.520  9.37814E-01  9.95286E-01 -5.74717E-02
    9037.285     39.734   3.560  9.57320E-01  9.94852E-01 -3.75317E-02
    9038.376     40.826   3.600  9.77213E-01  9.94466E-01 -1.72521E-02
    9039.480     41.929   3.640  9.96608E-01  9.94148E-01  2.46041E-03
    9040.595     43.045   3.680  1.01482E+00  9.93880E-01  2.09406E-02
    9041.723     44.172   3.720  1.03150E+00  9.93682E-01  3.78145E-02
    9042.863     45.312   3.760  1.04648E+00  9.93534E-01  5.29462E-02
    9044.015     46.464   3.800  1.05945E+00  9.93457E-01  6.59923E-02
    9045.179     47.629   3.840  1.06967E+00  9.93428E-01  7.62455E-02
    9046.356     48.805   3.880  1.07667E+00  9.93470E-01  8.32033E-02
    9047.545     49.994   3.920  1.08028E+00  9.93562E-01  8.67191E-02
    9048.746     51.195   3.960  1.08078E+00  9.93722E-01  8.70572E-02
    9049.959     52.408   4.000  1.07863E+00  9.93928E-01  8.46987E-02
    9051.184     53.633   4.040  1.07425E+00  9.94179E-01  8.00706E-02
    9052.421     54.871   4.080  1.06790E+00  9.94496E-01  7.34059E-02
    9053.671     56.120   4.120  1.05965E+00  9.94835E-01  6.48171E-02
    9054.933     57.382   4.160  1.05005E+00  9.95238E-01  5.48164E-02
    9056.207     58.656   4.200  1.04015E+00  9.95682E-01  4.44684E-02
    9057.493     59.943   4.240  1.03157E+00  9.96167E-01  3.54047E-02
    9058.792     61.241   4.280  1.02597E+00  9.96689E-01  2.92818E-02
    9060.102     62.552   4.320  1.02441E+00  9.97248E-01  2.71572E-02
    9061.425     63.875   4.360  1.02682E+00  9.97820E-01  2.89956E-02
    9062.760     65.210   4.400  1.03210E+00  9.98425E-01  3.36756E-02
    9064.107     66.557   4.440  1.03859E+00  9.99061E-01  3.95273E-02
    9065.467     67.916   4.480  1.04462E+00  9.99704E-01  4.49173E-02
    9066.838     69.288   4.520  1.04914E+00  1.00035E+00  4.87874E-02
    9068.222     70.672   4.560  1.05178E+00  1.00103E+00  5.07537E-02
    9069.618     72.068   4.600  1.05253E+00  1.00171E+00  5.08262E-02
    9071.026     73.476   4.640  1.05146E+00  1.00238E+00  4.90783E-02
    9072.447     74.896   4.680  1.04854E+00  1.00304E+00  4.54993E-02
    9073.879     76.329   4.720  1.04375E+00  1.00371E+00  4.00421E-02
    9075.324     77.773   4.760  1.03712E+00  1.00438E+00  3.27370E-02
    9076.781     79.230   4.800  1.02876E+00  1.00502E+00  2.37363E-02
    9078.250     80.699   4.840  1.01896E+00  1.00566E+00  1.33012E-02
    9079.731     82.181   4.880  1.00814E+00  1.00628E+00  1.85989E-03
    9081.225     83.674   4.920  9.96888E-01  1.00687E+00 -9.98704E-03
    9082.731     85.180   4.960  9.85899E-01  1.00743E+00 -2.15335E-02
    9084.249     86.698   5.000  9.75992E-01  1.00798E+00 -3.19844E-02
    9085.779     88.228   5.040  9.67913E-01  1.00848E+00 -4.05700E-02
    9087.321     89.770   5.080  9.62312E-01  1.00895E+00 -4.66398E-02
    9088.875     91.325   5.120  9.59619E-01  1.00938E+00 -4.97620E-02
    9090.442     92.891   5.160  9.59854E-01  1.00979E+00 -4.99388E-02
    9092.021     94.470   5.200  9.62413E-01  1.01014E+00 -4.77274E-02
    9093.612     96.061   5.240  9.66055E-01  1.01044E+00 -4.43895E-02
    9095.215     97.665   5.280  9.69185E-01  1.01071E+00 -4.15231E-02
    9096.831     99.280   5.320  9.70632E-01  1.01095E+00 -4.03191E-02
    9098.458    100.908   5.360  9.70202E-01  1.01113E+00 -4.09251E-02
    9100.098    102.547   5.400  9.68682E-01  1.01123E+00 -4.25531E-02
    9101.750    104.199   5.440  9.67335E-01  1.01132E+00 -4.39873E-02
    9103.414    105.864   5.480  9.67255E-01  1.01137E+00 -4.41105E-02
    9105.091    107.540   5.520  9.68985E-01  1.01134E+00 -4.23553E-02
    9106.779    109.229   5.560  9.72309E-01  1.01127E+00 -3.89633E-02
    9108.480    110.929   5.600  9.76440E-01  1.01116E+00 -3.47191E-02
    9110.193    112.642   5.640  9.80452E-01  1.01100E+00 -3.05517E-02
    9111.918    114.367   5.680  9.84018E-01  1.01080E+00 -2.67869E-02
    9113.656    116.105   5.720  9.87276E-01  1.01054E+00 -2.32639E-02
    9115.405    117.854   5.760  9.90703E-01  1.01026E+00 -1.95531E-02
    9117.167    119.616   5.800  9.94587E-01  1.00991E+00 -1.53210E-02
    9118.941    121.390   5.840  9.99032E-01  1.00952E+00 -1.04894E-02
    9120.727    123.176   5.880  1.00388E+00  1.00912E+00 -5.23816E-03
    9122.525    124.974   5.920  1.00871E+00  1.00866E+00  4.46141E-05
    9124.336    126.785   5.960  1.01319E+00  1.00820E+00  4.99244E-03
    9126.158    128.608   6.000  1.01710E+00  1.00764E+00  9.46182E-03
