# # comment:                                                     FEFF 9.9.1  
# # Source:
# # Structure
# # Reduced
# # space
# # abc:
# # angles:117.185245
# # sites:
# # POT  SCF 100  7.0000   0, screened core-hole, AFOLP (folp(0)= 1.150)
# # Abs   Z=29 Rmt= 1.419 Rnm= 1.472 K  shell
# # Pot 1 Z=29 Rmt= 1.257 Rnm= 1.371
# # Pot 2 Z=74 Rmt= 1.295 Rnm= 1.466
# # Pot 3 Z= 8 Rmt= 1.023 Rnm= 1.075
# # Gam_ch=1.729E+00 H-L exch Vi= 0.000E+00 Vr= 0.000E+00
# # Mu=-6.876E+00eV kf=2.220E+00 Vint=-1.631E+01eV Rs_int= 1.633
# FMS rfms= 9.0000
# # PATH  Rmax=-1.000,  Keep_limit= 0.00, Heap_limit 0.00  Pwcrit= 2.50%
#  S02=0.950  Temp=   0.00  Debye_temp=   0.00  Global_sig2= 0.00000
#  Energy zero shift, vr, vi    0.00000E+00   0.00000E+00
#  Curved wave amplitude ratio filter   4.000%
#     file         sig2 tot  cw amp ratio   deg  nlegs   reff  inp sig2
#     0/   0 paths used
#  xsedge+ 50, used to normalize mu           2.4525E-04
#  -----------------------------------------------------------------------
#  omega    e    k    mu    mu0     chi     @#
    8983.992    -10.686  -1.000  5.27153E-02  5.63261E-02 -3.61076E-03
    8984.290    -10.388  -0.960  5.63915E-02  6.04770E-02 -4.08556E-03
    8984.577    -10.101  -0.920  6.04587E-02  6.50942E-02 -4.63552E-03
    8984.851     -9.827  -0.880  6.49724E-02  7.02466E-02 -5.27412E-03
    8985.113     -9.565  -0.840  6.99972E-02  7.60145E-02 -6.01737E-03
    8985.363     -9.315  -0.800  7.56071E-02  8.24913E-02 -6.88424E-03
    8985.601     -9.077  -0.760  8.18868E-02  8.97838E-02 -7.89692E-03
    8985.827     -8.852  -0.720  8.89318E-02  9.80128E-02 -9.08106E-03
    8986.040     -8.638  -0.680  9.68462E-02  1.07312E-01 -1.04655E-02
    8986.241     -8.437  -0.640  1.05740E-01  1.17821E-01 -1.20814E-02
    8986.430     -8.248  -0.600  1.15719E-01  1.29679E-01 -1.39601E-02
    8986.607     -8.071  -0.560  1.26875E-01  1.43004E-01 -1.61294E-02
    8986.771     -7.907  -0.520  1.39260E-01  1.57867E-01 -1.86070E-02
    8986.924     -7.754  -0.480  1.52860E-01  1.74252E-01 -2.13923E-02
    8987.064     -7.614  -0.440  1.67559E-01  1.92015E-01 -2.44560E-02
    8987.192     -7.486  -0.400  1.83115E-01  2.10847E-01 -2.77322E-02
    8987.308     -7.370  -0.360  1.99142E-01  2.30258E-01 -3.11169E-02
    8987.412     -7.267  -0.320  2.15139E-01  2.49616E-01 -3.44770E-02
    8987.503     -7.175  -0.280  2.30546E-01  2.68217E-01 -3.76706E-02
    8987.582     -7.096  -0.240  2.44814E-01  2.85384E-01 -4.05698E-02
    8987.649     -7.029  -0.200  2.57472E-01  3.00552E-01 -4.30794E-02
    8987.704     -6.974  -0.160  2.68164E-01  3.13308E-01 -4.51435E-02
    8987.747     -6.931  -0.120  2.76647E-01  3.23388E-01 -4.67406E-02
    8987.777     -6.901  -0.080  2.82777E-01  3.30648E-01 -4.78713E-02
    8987.802     -6.876   0.000  2.87712E-01  3.36479E-01 -4.87669E-02
    8987.857     -6.822   0.120  2.98969E-01  3.49636E-01 -5.06675E-02
    8987.899     -6.779   0.160  3.07712E-01  3.59838E-01 -5.21257E-02
    8987.954     -6.724   0.200  3.18939E-01  3.72871E-01 -5.39316E-02
    8988.021     -6.657   0.240  3.32535E-01  3.88554E-01 -5.60182E-02
    8988.100     -6.578   0.280  3.48236E-01  4.06524E-01 -5.82878E-02
    8988.192     -6.486   0.320  3.65714E-01  4.26336E-01 -6.06220E-02
    8988.295     -6.383   0.360  3.84517E-01  4.47410E-01 -6.28933E-02
    8988.411     -6.267   0.400  4.04126E-01  4.69090E-01 -6.49640E-02
    8988.539     -6.139   0.440  4.24170E-01  4.90854E-01 -6.66844E-02
    8988.679     -5.999   0.480  4.44329E-01  5.12207E-01 -6.78783E-02
    8988.832     -5.846   0.520  4.64560E-01  5.32914E-01 -6.83538E-02
    8988.996     -5.682   0.560  4.84784E-01  5.52784E-01 -6.79997E-02
    8989.173     -5.505   0.600  5.04946E-01  5.71826E-01 -6.68796E-02
    8989.362     -5.316   0.640  5.24806E-01  5.90061E-01 -6.52543E-02
    8989.563     -5.115   0.680  5.44186E-01  6.07610E-01 -6.34243E-02
    8989.777     -4.901   0.720  5.62956E-01  6.24549E-01 -6.15927E-02
    8990.002     -4.676   0.760  5.81038E-01  6.40972E-01 -5.99338E-02
    8990.240     -4.438   0.800  5.98009E-01  6.56963E-01 -5.89544E-02
    8990.490     -4.188   0.840  6.12952E-01  6.72615E-01 -5.96632E-02
    8990.752     -3.926   0.880  6.24903E-01  6.87961E-01 -6.30581E-02
    8991.026     -3.652   0.920  6.33932E-01  7.03065E-01 -6.91330E-02
    8991.313     -3.365   0.960  6.41736E-01  7.17935E-01 -7.61986E-02
    8991.612     -3.066   1.000  6.51279E-01  7.32608E-01 -8.13288E-02
    8991.923     -2.756   1.040  6.65128E-01  7.47051E-01 -8.19231E-02
    8992.246     -2.432   1.080  6.84370E-01  7.61304E-01 -7.69338E-02
    8992.581     -2.097   1.120  7.08093E-01  7.75341E-01 -6.72477E-02
    8992.928     -1.750   1.160  7.33844E-01  7.89127E-01 -5.52832E-02
    8993.288     -1.390   1.200  7.59955E-01  8.02687E-01 -4.27325E-02
    8993.660     -1.018   1.240  7.85683E-01  8.15960E-01 -3.02775E-02
    8994.044     -0.634   1.280  8.09644E-01  8.28924E-01 -1.92801E-02
    8994.440     -0.238   1.320  8.30143E-01  8.41594E-01 -1.14508E-02
    8994.849      0.171   1.360  8.46075E-01  8.53903E-01 -7.82788E-03
    8995.269      0.591   1.400  8.59582E-01  8.65844E-01 -6.26250E-03
    8995.702      1.024   1.440  8.75346E-01  8.77391E-01 -2.04551E-03
    8996.147      1.469   1.480  8.97121E-01  8.88539E-01  8.58232E-03
    8996.604      1.926   1.520  9.25964E-01  8.99239E-01  2.67249E-02
    8997.074      2.396   1.560  9.58196E-01  9.09505E-01  4.86901E-02
    8997.555      2.877   1.600  9.86960E-01  9.19294E-01  6.76661E-02
    8998.049      3.371   1.640  1.00810E+00  9.28598E-01  7.94971E-02
    8998.555      3.877   1.680  1.02128E+00  9.37416E-01  8.38663E-02
    8999.073      4.395   1.720  1.03016E+00  9.45746E-01  8.44164E-02
    8999.603      4.925   1.760  1.04126E+00  9.53568E-01  8.76918E-02
    9000.146      5.468   1.800  1.05810E+00  9.60880E-01  9.72204E-02
    9000.701      6.023   1.840  1.07664E+00  9.67685E-01  1.08959E-01
    9001.268      6.590   1.880  1.09091E+00  9.74007E-01  1.16908E-01
    9001.847      7.169   1.920  1.10204E+00  9.79827E-01  1.22213E-01
    9002.438      7.760   1.960  1.11223E+00  9.85152E-01  1.27075E-01
    9003.042      8.364   2.000  1.11633E+00  9.90009E-01  1.26320E-01
    9003.657      8.979   2.040  1.10779E+00  9.94424E-01  1.13368E-01
    9004.285      9.607   2.080  1.08673E+00  9.98365E-01  8.83630E-02
    9004.925     10.247   2.120  1.05662E+00  1.00188E+00  5.47378E-02
    9005.578     10.899   2.160  1.02007E+00  1.00500E+00  1.50689E-02
    9006.242     11.564   2.200  9.82483E-01  1.00769E+00 -2.52063E-02
    9006.919     12.241   2.240  9.52214E-01  1.01002E+00 -5.78091E-02
    9007.607     12.929   2.280  9.32816E-01  1.01199E+00 -7.91748E-02
    9008.309     13.630   2.320  9.21544E-01  1.01362E+00 -9.20797E-02
    9009.022     14.344   2.360  9.17788E-01  1.01495E+00 -9.71633E-02
    9009.747     15.069   2.400  9.25403E-01  1.01596E+00 -9.05604E-02
    9010.485     15.807   2.440  9.44610E-01  1.01671E+00 -7.21022E-02
    9011.235     16.557   2.480  9.70489E-01  1.01719E+00 -4.66983E-02
    9011.997     17.319   2.520  9.92989E-01  1.01744E+00 -2.44526E-02
    9012.771     18.093   2.560  1.00453E+00  1.01748E+00 -1.29594E-02
    9013.557     18.879   2.600  1.00715E+00  1.01733E+00 -1.01754E-02
    9014.356     19.678   2.640  1.00822E+00  1.01702E+00 -8.80248E-03
    9015.166     20.488   2.680  1.01123E+00  1.01653E+00 -5.29582E-03
    9015.989     21.311   2.720  1.01499E+00  1.01590E+00 -9.10498E-04
    9016.825     22.147   2.760  1.01931E+00  1.01516E+00  4.15281E-03
    9017.672     22.994   2.800  1.02434E+00  1.01432E+00  1.00166E-02
    9018.531     23.853   2.840  1.02969E+00  1.01339E+00  1.62973E-02
    9019.403     24.725   2.880  1.03464E+00  1.01239E+00  2.22527E-02
    9020.287     25.609   2.920  1.03815E+00  1.01133E+00  2.68132E-02
    9021.183     26.505   2.960  1.03941E+00  1.01021E+00  2.91937E-02
    9022.092     27.413   3.000  1.03814E+00  1.00908E+00  2.90611E-02
    9023.012     28.334   3.040  1.03449E+00  1.00793E+00  2.65585E-02
    9023.945     29.267   3.080  1.02920E+00  1.00675E+00  2.24498E-02
    9024.890     30.211   3.120  1.02332E+00  1.00560E+00  1.77207E-02
    9025.847     31.169   3.160  1.01765E+00  1.00445E+00  1.31973E-02
    9026.816     32.138   3.200  1.01251E+00  1.00331E+00  9.19929E-03
    9027.797     33.119   3.240  1.00799E+00  1.00223E+00  5.75730E-03
    9028.791     34.113   3.280  1.00390E+00  1.00116E+00  2.73962E-03
    9029.797     35.119   3.320  1.00012E+00  1.00013E+00 -1.40355E-05
    9030.815     36.137   3.360  9.96573E-01  9.99172E-01 -2.59879E-03
    9031.845     37.167   3.400  9.93131E-01  9.98255E-01 -5.12428E-03
    9032.887     38.209   3.440  9.89603E-01  9.97387E-01 -7.78419E-03
    9033.942     39.264   3.480  9.85897E-01  9.96590E-01 -1.06932E-02
    9035.009     40.331   3.520  9.82053E-01  9.95867E-01 -1.38138E-02
    9036.088     41.410   3.560  9.78246E-01  9.95195E-01 -1.69496E-02
    9037.179     42.501   3.600  9.74881E-01  9.94601E-01 -1.97193E-02
    9038.282     43.604   3.640  9.72420E-01  9.94083E-01 -2.16632E-02
    9039.398     44.720   3.680  9.71147E-01  9.93643E-01 -2.24960E-02
    9040.526     45.848   3.720  9.71095E-01  9.93281E-01 -2.21863E-02
    9041.666     46.988   3.760  9.72136E-01  9.92997E-01 -2.08603E-02
    9042.818     48.140   3.800  9.74049E-01  9.92766E-01 -1.87173E-02
    9043.982     49.304   3.840  9.76632E-01  9.92612E-01 -1.59801E-02
    9045.159     50.481   3.880  9.79706E-01  9.92535E-01 -1.28289E-02
    9046.347     51.669   3.920  9.83078E-01  9.92536E-01 -9.45834E-03
    9047.548     52.870   3.960  9.86444E-01  9.92611E-01 -6.16702E-03
    9048.761     54.083   4.000  9.89441E-01  9.92738E-01 -3.29708E-03
    9049.987     55.309   4.040  9.91821E-01  9.92937E-01 -1.11579E-03
    9051.224     56.546   4.080  9.93462E-01  9.93186E-01  2.76204E-04
    9052.474     57.796   4.120  9.94497E-01  9.93504E-01  9.93772E-04
    9053.736     59.058   4.160  9.95173E-01  9.93867E-01  1.30556E-03
    9055.010     60.332   4.200  9.95772E-01  9.94276E-01  1.49649E-03
    9056.296     61.618   4.240  9.96589E-01  9.94749E-01  1.84088E-03
    9057.594     62.916   4.280  9.97819E-01  9.95241E-01  2.57797E-03
    9058.905     64.227   4.320  9.99668E-01  9.95794E-01  3.87475E-03
    9060.228     65.550   4.360  1.00213E+00  9.96362E-01  5.76427E-03
    9061.563     66.885   4.400  1.00506E+00  9.96966E-01  8.09223E-03
    9062.910     68.232   4.440  1.00814E+00  9.97604E-01  1.05349E-02
    9064.270     69.591   4.480  1.01100E+00  9.98270E-01  1.27302E-02
    9065.641     70.963   4.520  1.01331E+00  9.98923E-01  1.43911E-02
    9067.025     72.347   4.560  1.01494E+00  9.99600E-01  1.53435E-02
    9068.421     73.743   4.600  1.01582E+00  1.00028E+00  1.55418E-02
    9069.829     75.151   4.640  1.01599E+00  1.00096E+00  1.50294E-02
    9071.249     76.571   4.680  1.01562E+00  1.00166E+00  1.39608E-02
    9072.682     78.004   4.720  1.01486E+00  1.00231E+00  1.25516E-02
    9074.127     79.449   4.760  1.01398E+00  1.00298E+00  1.10086E-02
    9075.584     80.906   4.800  1.01308E+00  1.00361E+00  9.46431E-03
    9077.053     82.375   4.840  1.01218E+00  1.00424E+00  7.94514E-03
    9078.534     83.856   4.880  1.01117E+00  1.00483E+00  6.33960E-03
    9080.028     85.350   4.920  1.00983E+00  1.00538E+00  4.44707E-03
    9081.533     86.855   4.960  1.00798E+00  1.00589E+00  2.08625E-03
    9083.051     88.373   5.000  1.00559E+00  1.00639E+00 -7.98860E-04
    9084.581     89.903   5.040  1.00273E+00  1.00683E+00 -4.09673E-03
    9086.124     91.446   5.080  9.99663E-01  1.00724E+00 -7.57802E-03
    9087.678     93.000   5.120  9.96597E-01  1.00759E+00 -1.09953E-02
    9089.245     94.567   5.160  9.93796E-01  1.00792E+00 -1.41251E-02
    9090.824     96.146   5.200  9.91403E-01  1.00818E+00 -1.67800E-02
    9092.415     97.737   5.240  9.89630E-01  1.00840E+00 -1.87663E-02
    9094.018     99.340   5.280  9.88715E-01  1.00854E+00 -1.98290E-02
    9095.633    100.955   5.320  9.89012E-01  1.00867E+00 -1.96535E-02
    9097.261    102.583   5.360  9.90768E-01  1.00872E+00 -1.79488E-02
    9098.901    104.223   5.400  9.94109E-01  1.00870E+00 -1.45910E-02
    9100.553    105.875   5.440  9.98876E-01  1.00866E+00 -9.78222E-03
    9102.217    107.539   5.480  1.00440E+00  1.00855E+00 -4.15074E-03
    9103.893    109.215   5.520  1.00969E+00  1.00839E+00  1.29873E-03
    9105.582    110.904   5.560  1.01364E+00  1.00817E+00  5.47346E-03
    9107.283    112.605   5.600  1.01552E+00  1.00790E+00  7.62209E-03
    9108.996    114.318   5.640  1.01527E+00  1.00760E+00  7.66102E-03
    9110.721    116.043   5.680  1.01343E+00  1.00725E+00  6.18307E-03
    9112.458    117.780   5.720  1.01101E+00  1.00682E+00  4.18363E-03
    9114.208    119.530   5.760  1.00906E+00  1.00638E+00  2.67799E-03
    9115.970    121.291   5.800  1.00833E+00  1.00591E+00  2.41883E-03
    9117.743    123.065   5.840  1.00913E+00  1.00539E+00  3.74006E-03
    9119.530    124.851   5.880  1.01138E+00  1.00484E+00  6.53755E-03
    9121.328    126.650   5.920  1.01459E+00  1.00427E+00  1.03281E-02
    9123.138    128.460   5.960  1.01801E+00  1.00369E+00  1.43216E-02
    9124.961    130.283   6.000  1.02058E+00  1.00306E+00  1.75213E-02
