# # comment:                                                     FEFF 9.9.1  
# # Source:
# # Structure
# # Reduced
# # space
# # abc:
# # angles:109.471221
# # sites:
# # POT  SCF 100  7.0000   0, screened core-hole, AFOLP (folp(0)= 1.150)
# # Abs   Z=29 Rmt= 1.479 Rnm= 1.479 K  shell
# # Pot 1 Z=23 Rmt= 1.241 Rnm= 1.372
# # Pot 2 Z=29 Rmt= 1.224 Rnm= 1.301
# # Pot 3 Z= 8 Rmt= 1.001 Rnm= 1.096
# # Gam_ch=1.729E+00 H-L exch Vi= 0.000E+00 Vr= 0.000E+00
# # Mu=-1.014E+01eV kf=2.222E+00 Vint=-1.851E+01eV Rs_int= 1.632
# FMS rfms= 9.0000
# # PATH  Rmax=-1.000,  Keep_limit= 0.00, Heap_limit 0.00  Pwcrit= 2.50%
#  S02=0.950  Temp=   0.00  Debye_temp=   0.00  Global_sig2= 0.00000
#  Energy zero shift, vr, vi    0.00000E+00   0.00000E+00
#  Curved wave amplitude ratio filter   4.000%
#     file         sig2 tot  cw amp ratio   deg  nlegs   reff  inp sig2
#     0/   0 paths used
#  xsedge+ 50, used to normalize mu           2.3939E-04
#  -----------------------------------------------------------------------
#  omega    e    k    mu    mu0     chi     @#
    8984.740    -13.951  -1.000  4.02860E-02  4.87143E-02 -8.42829E-03
    8985.039    -13.652  -0.960  4.20913E-02  5.19735E-02 -9.88227E-03
    8985.325    -13.366  -0.920  4.39779E-02  5.55715E-02 -1.15936E-02
    8985.600    -13.091  -0.880  4.59484E-02  5.95561E-02 -1.36077E-02
    8985.862    -12.829  -0.840  4.80051E-02  6.39831E-02 -1.59780E-02
    8986.112    -12.579  -0.800  5.01506E-02  6.89168E-02 -1.87662E-02
    8986.349    -12.341  -0.760  5.23872E-02  7.44310E-02 -2.20438E-02
    8986.575    -12.116  -0.720  5.47172E-02  8.06084E-02 -2.58913E-02
    8986.788    -11.903  -0.680  5.71425E-02  8.75404E-02 -3.03978E-02
    8986.989    -11.701  -0.640  5.96645E-02  9.53226E-02 -3.56581E-02
    8987.178    -11.512  -0.600  6.22829E-02  1.04049E-01 -4.17658E-02
    8987.355    -11.336  -0.560  6.49951E-02  1.13798E-01 -4.88028E-02
    8987.520    -11.171  -0.520  6.77946E-02  1.24616E-01 -5.68212E-02
    8987.672    -11.019  -0.480  7.06684E-02  1.36489E-01 -6.58201E-02
    8987.812    -10.878  -0.440  7.35954E-02  1.49313E-01 -7.57173E-02
    8987.940    -10.750  -0.400  7.65434E-02  1.62870E-01 -8.63262E-02
    8988.056    -10.635  -0.360  7.94686E-02  1.76817E-01 -9.73487E-02
    8988.160    -10.531  -0.320  8.23165E-02  1.90712E-01 -1.08396E-01
    8988.251    -10.439  -0.280  8.50252E-02  2.04061E-01 -1.19036E-01
    8988.331    -10.360  -0.240  8.75304E-02  2.16387E-01 -1.28857E-01
    8988.398    -10.293  -0.200  8.97702E-02  2.27289E-01 -1.37519E-01
    8988.452    -10.238  -0.160  9.16889E-02  2.36470E-01 -1.44782E-01
    8988.495    -10.196  -0.120  9.32396E-02  2.43737E-01 -1.50497E-01
    8988.526    -10.165  -0.080  9.43853E-02  2.48978E-01 -1.54592E-01
    8988.550    -10.141   0.000  9.53457E-02  2.53193E-01 -1.57848E-01
    8988.605    -10.086   0.120  9.75021E-02  2.62712E-01 -1.65210E-01
    8988.647    -10.043   0.160  9.91808E-02  2.70132E-01 -1.70951E-01
    8988.702     -9.988   0.200  1.01359E-01  2.79621E-01 -1.78262E-01
    8988.769     -9.921   0.240  1.04064E-01  2.91070E-01 -1.87006E-01
    8988.849     -9.842   0.280  1.07311E-01  3.04279E-01 -1.96968E-01
    8988.940     -9.751   0.320  1.11138E-01  3.18971E-01 -2.07833E-01
    8989.044     -9.647   0.360  1.15495E-01  3.34752E-01 -2.19257E-01
    8989.160     -9.531   0.400  1.20291E-01  3.51242E-01 -2.30951E-01
    8989.288     -9.403   0.440  1.25318E-01  3.68059E-01 -2.42742E-01
    8989.428     -9.263   0.480  1.30267E-01  3.84945E-01 -2.54678E-01
    8989.580     -9.111   0.520  1.34754E-01  4.01703E-01 -2.66949E-01
    8989.745     -8.946   0.560  1.38597E-01  4.18258E-01 -2.79660E-01
    8989.922     -8.769   0.600  1.42093E-01  4.34629E-01 -2.92537E-01
    8990.111     -8.580   0.640  1.45966E-01  4.50867E-01 -3.04902E-01
    8990.312     -8.379   0.680  1.51008E-01  4.67007E-01 -3.15999E-01
    8990.525     -8.166   0.720  1.57998E-01  4.83173E-01 -3.25175E-01
    8990.751     -7.940   0.760  1.67472E-01  4.99407E-01 -3.31934E-01
    8990.988     -7.702   0.800  1.79966E-01  5.15826E-01 -3.35861E-01
    8991.238     -7.452   0.840  1.96028E-01  5.32435E-01 -3.36408E-01
    8991.500     -7.190   0.880  2.16497E-01  5.49309E-01 -3.32812E-01
    8991.775     -6.916   0.920  2.42511E-01  5.66492E-01 -3.23981E-01
    8992.061     -6.630   0.960  2.75487E-01  5.83976E-01 -3.08490E-01
    8992.360     -6.331   1.000  3.17753E-01  6.01808E-01 -2.84056E-01
    8992.671     -6.020   1.040  3.73327E-01  6.19962E-01 -2.46636E-01
    8992.994     -5.697   1.080  4.47699E-01  6.38426E-01 -1.90728E-01
    8993.329     -5.362   1.120  5.43995E-01  6.57203E-01 -1.13208E-01
    8993.677     -5.014   1.160  6.59779E-01  6.76248E-01 -1.64690E-02
    8994.036     -4.654   1.200  7.92140E-01  6.95530E-01  9.66100E-02
    8994.408     -4.283   1.240  9.40719E-01  7.15015E-01  2.25704E-01
    8994.792     -3.899   1.280  1.11194E+00  7.34663E-01  3.77275E-01
    8995.188     -3.502   1.320  1.35138E+00  7.54391E-01  5.96988E-01
    8995.597     -3.094   1.360  1.74033E+00  7.74150E-01  9.66176E-01
    8996.018     -2.673   1.400  2.28622E+00  7.93892E-01  1.49233E+00
    8996.450     -2.240   1.440  2.74345E+00  8.13542E-01  1.92991E+00
    8996.895     -1.795   1.480  2.73599E+00  8.33004E-01  1.90299E+00
    8997.353     -1.338   1.520  2.32420E+00  8.52243E-01  1.47195E+00
    8997.822     -0.869   1.560  1.90489E+00  8.71138E-01  1.03375E+00
    8998.304     -0.387   1.600  1.63698E+00  8.89631E-01  7.47351E-01
    8998.797      0.107   1.640  1.42616E+00  9.07644E-01  5.18516E-01
    8999.303      0.613   1.680  1.19320E+00  9.25118E-01  2.68080E-01
    8999.821      1.131   1.720  9.78291E-01  9.41957E-01  3.63336E-02
    9000.352      1.661   1.760  8.13280E-01  9.58085E-01 -1.44805E-01
    9000.894      2.204   1.800  6.85613E-01  9.73470E-01 -2.87857E-01
    9001.449      2.758   1.840  5.91728E-01  9.88043E-01 -3.96315E-01
    9002.016      3.325   1.880  5.34359E-01  1.00174E+00 -4.67379E-01
    9002.595      3.904   1.920  5.03117E-01  1.01453E+00 -5.11414E-01
    9003.186      4.496   1.960  4.83612E-01  1.02636E+00 -5.42752E-01
    9003.790      5.099   2.000  4.72924E-01  1.03722E+00 -5.64300E-01
    9004.406      5.715   2.040  4.72924E-01  1.04708E+00 -5.74157E-01
    9005.033      6.343   2.080  4.80104E-01  1.05595E+00 -5.75845E-01
    9005.674      6.983   2.120  4.94724E-01  1.06379E+00 -5.69064E-01
    9006.326      7.635   2.160  5.28091E-01  1.07065E+00 -5.42555E-01
    9006.990      8.300   2.200  5.90229E-01  1.07653E+00 -4.86301E-01
    9007.667      8.976   2.240  6.76343E-01  1.08145E+00 -4.05108E-01
    9008.356      9.665   2.280  7.68062E-01  1.08544E+00 -3.17382E-01
    9009.057     10.366   2.320  8.57500E-01  1.08853E+00 -2.31029E-01
    9009.770     11.079   2.360  9.51850E-01  1.09079E+00 -1.38941E-01
    9010.495     11.805   2.400  1.05201E+00  1.09223E+00 -4.02151E-02
    9011.233     12.542   2.440  1.14512E+00  1.09293E+00  5.21909E-02
    9011.983     13.292   2.480  1.20002E+00  1.09293E+00  1.07087E-01
    9012.745     14.054   2.520  1.19298E+00  1.09227E+00  1.00717E-01
    9013.519     14.828   2.560  1.15232E+00  1.09101E+00  6.13095E-02
    9014.305     15.615   2.600  1.11769E+00  1.08924E+00  2.84494E-02
    9015.104     16.413   2.640  1.10053E+00  1.08700E+00  1.35224E-02
    9015.915     17.224   2.680  1.10417E+00  1.08434E+00  1.98310E-02
    9016.738     18.047   2.720  1.12548E+00  1.08131E+00  4.41722E-02
    9017.573     18.882   2.760  1.15598E+00  1.07796E+00  7.80214E-02
    9018.420     19.729   2.800  1.18924E+00  1.07436E+00  1.14880E-01
    9019.280     20.589   2.840  1.22116E+00  1.07056E+00  1.50595E-01
    9020.151     21.461   2.880  1.24892E+00  1.06657E+00  1.82347E-01
    9021.035     22.345   2.920  1.26850E+00  1.06250E+00  2.06001E-01
    9021.932     23.241   2.960  1.27303E+00  1.05833E+00  2.14705E-01
    9022.840     24.149   3.000  1.25912E+00  1.05411E+00  2.05006E-01
    9023.760     25.070   3.040  1.22967E+00  1.04992E+00  1.79750E-01
    9024.693     26.002   3.080  1.19303E+00  1.04574E+00  1.47291E-01
    9025.638     26.947   3.120  1.15931E+00  1.04163E+00  1.17676E-01
    9026.595     27.904   3.160  1.13498E+00  1.03761E+00  9.73733E-02
    9027.564     28.873   3.200  1.11966E+00  1.03371E+00  8.59586E-02
    9028.546     29.855   3.240  1.10692E+00  1.02993E+00  7.69890E-02
    9029.539     30.849   3.280  1.08871E+00  1.02632E+00  6.23910E-02
    9030.545     31.854   3.320  1.06090E+00  1.02290E+00  3.79975E-02
    9031.563     32.872   3.360  1.02697E+00  1.01964E+00  7.32939E-03
    9032.593     33.903   3.400  9.95111E-01  1.01660E+00 -2.14867E-02
    9033.636     34.945   3.440  9.71911E-01  1.01377E+00 -4.18606E-02
    9034.690     36.000   3.480  9.59347E-01  1.01117E+00 -5.18192E-02
    9035.757     37.066   3.520  9.55371E-01  1.00879E+00 -5.34239E-02
    9036.836     38.145   3.560  9.55872E-01  1.00667E+00 -5.07985E-02
    9037.927     39.237   3.600  9.57321E-01  1.00479E+00 -4.74707E-02
    9039.031     40.340   3.640  9.58176E-01  1.00314E+00 -4.49632E-02
    9040.146     41.456   3.680  9.58409E-01  1.00174E+00 -4.33270E-02
    9041.274     42.583   3.720  9.58021E-01  1.00060E+00 -4.25804E-02
    9042.414     43.723   3.760  9.56910E-01  9.99693E-01 -4.27837E-02
    9043.566     44.875   3.800  9.55033E-01  9.99032E-01 -4.39990E-02
    9044.730     46.040   3.840  9.52419E-01  9.98613E-01 -4.61941E-02
    9045.907     47.216   3.880  9.49002E-01  9.98415E-01 -4.94127E-02
    9047.096     48.405   3.920  9.44720E-01  9.98456E-01 -5.37353E-02
    9048.297     49.606   3.960  9.39499E-01  9.98710E-01 -5.92110E-02
    9049.510     50.819   4.000  9.33250E-01  9.99174E-01 -6.59248E-02
    9050.735     52.044   4.040  9.26088E-01  9.99846E-01 -7.37578E-02
    9051.972     53.282   4.080  9.18445E-01  1.00072E+00 -8.22729E-02
    9053.222     54.531   4.120  9.11153E-01  1.00176E+00 -9.06106E-02
    9054.484     55.793   4.160  9.05601E-01  1.00298E+00 -9.73774E-02
    9055.758     57.067   4.200  9.03696E-01  1.00436E+00 -1.00661E-01
    9057.044     58.354   4.240  9.07247E-01  1.00589E+00 -9.86453E-02
    9058.343     59.652   4.280  9.17387E-01  1.00755E+00 -9.01678E-02
    9059.653     60.963   4.320  9.34444E-01  1.00931E+00 -7.48704E-02
    9060.976     62.285   4.360  9.58046E-01  1.01119E+00 -5.31411E-02
    9062.311     63.620   4.400  9.87210E-01  1.01314E+00 -2.59353E-02
    9063.658     64.968   4.440  1.02072E+00  1.01518E+00  5.54782E-03
    9065.018     66.327   4.480  1.05745E+00  1.01723E+00  4.02146E-02
    9066.389     67.699   4.520  1.09619E+00  1.01935E+00  7.68368E-02
    9067.773     69.082   4.560  1.13501E+00  1.02148E+00  1.13531E-01
    9069.169     70.478   4.600  1.17066E+00  1.02360E+00  1.47054E-01
    9070.577     71.887   4.640  1.19846E+00  1.02573E+00  1.72733E-01
    9071.998     73.307   4.680  1.21304E+00  1.02783E+00  1.85208E-01
    9073.430     74.740   4.720  1.21057E+00  1.02987E+00  1.80700E-01
    9074.875     76.184   4.760  1.19177E+00  1.03184E+00  1.59938E-01
    9076.332     77.641   4.800  1.16216E+00  1.03374E+00  1.28423E-01
    9077.801     79.110   4.840  1.12873E+00  1.03556E+00  9.31688E-02
    9079.282     80.592   4.880  1.09701E+00  1.03726E+00  5.97445E-02
    9080.776     82.085   4.920  1.07022E+00  1.03884E+00  3.13743E-02
    9082.282     83.591   4.960  1.04956E+00  1.04029E+00  9.26567E-03
    9083.800     85.109   5.000  1.03516E+00  1.04161E+00 -6.45090E-03
    9085.330     86.639   5.040  1.02671E+00  1.04280E+00 -1.60893E-02
    9086.872     88.181   5.080  1.02375E+00  1.04380E+00 -2.00464E-02
    9088.426     89.736   5.120  1.02546E+00  1.04465E+00 -1.91949E-02
    9089.993     91.302   5.160  1.02974E+00  1.04535E+00 -1.56049E-02
    9091.572     92.881   5.200  1.03311E+00  1.04587E+00 -1.27568E-02
    9093.163     94.472   5.240  1.03148E+00  1.04623E+00 -1.47508E-02
    9094.766     96.075   5.280  1.02170E+00  1.04641E+00 -2.47159E-02
    9096.382     97.691   5.320  1.00281E+00  1.04643E+00 -4.36228E-02
    9098.009     99.319   5.360  9.76689E-01  1.04628E+00 -6.95951E-02
    9099.649    100.958   5.400  9.47550E-01  1.04597E+00 -9.84195E-02
    9101.301    102.610   5.440  9.20253E-01  1.04549E+00 -1.25238E-01
    9102.965    104.275   5.480  8.98749E-01  1.04488E+00 -1.46127E-01
    9104.642    105.951   5.520  8.85506E-01  1.04411E+00 -1.58600E-01
    9106.330    107.640   5.560  8.81770E-01  1.04321E+00 -1.61436E-01
    9108.031    109.340   5.600  8.87835E-01  1.04218E+00 -1.54348E-01
    9109.744    111.053   5.640  9.03424E-01  1.04106E+00 -1.37640E-01
    9111.469    112.778   5.680  9.27838E-01  1.03983E+00 -1.11991E-01
    9113.207    114.516   5.720  9.59917E-01  1.03849E+00 -7.85689E-02
    9114.956    116.265   5.760  9.97618E-01  1.03709E+00 -3.94727E-02
    9116.718    118.027   5.800  1.03745E+00  1.03565E+00  1.80306E-03
    9118.492    119.801   5.840  1.07498E+00  1.03414E+00  4.08401E-02
    9120.278    121.587   5.880  1.10617E+00  1.03260E+00  7.35644E-02
    9122.076    123.385   5.920  1.12895E+00  1.03107E+00  9.78735E-02
    9123.887    125.196   5.960  1.14408E+00  1.02955E+00  1.14535E-01
    9125.709    127.019   6.000  1.15464E+00  1.02801E+00  1.26636E-01
