# # comment:                                                     FEFF 9.9.1  
# # Source:
# # Structure
# # Reduced
# # space
# # abc:
# # angles:109.471221
# # sites:
# # POT  SCF 100  7.0000   0, screened core-hole, AFOLP (folp(0)= 1.150)
# # Abs   Z=29 Rmt= 1.162 Rnm= 1.269 K  shell
# # Pot 1 Z=66 Rmt= 1.702 Rnm= 1.748
# # Pot 2 Z=26 Rmt= 1.299 Rnm= 1.399
# # Pot 3 Z=29 Rmt= 1.162 Rnm= 1.269
# # Pot 4 Z= 8 Rmt= 1.029 Rnm= 1.100
# # Gam_ch=1.729E+00 H-L exch Vi= 0.000E+00 Vr= 0.000E+00
# # Mu=-1.012E+01eV kf=2.173E+00 Vint=-1.768E+01eV Rs_int= 1.669
# FMS rfms= 9.0000
# # PATH  Rmax=-1.000,  Keep_limit= 0.00, Heap_limit 0.00  Pwcrit= 2.50%
#  S02=0.950  Temp=   0.00  Debye_temp=   0.00  Global_sig2= 0.00000
#  Energy zero shift, vr, vi    0.00000E+00   0.00000E+00
#  Curved wave amplitude ratio filter   4.000%
#     file         sig2 tot  cw amp ratio   deg  nlegs   reff  inp sig2
#     0/   0 paths used
#  xsedge+ 50, used to normalize mu           2.4716E-04
#  -----------------------------------------------------------------------
#  omega    e    k    mu    mu0     chi     @#
    8984.381    -13.930  -1.000  3.26150E-02  5.11295E-02 -1.85144E-02
    8984.679    -13.631  -0.960  3.41073E-02  5.47240E-02 -2.06167E-02
    8984.966    -13.345  -0.920  3.56909E-02  5.87065E-02 -2.30157E-02
    8985.240    -13.070  -0.880  3.73732E-02  6.31332E-02 -2.57600E-02
    8985.502    -12.808  -0.840  3.91625E-02  6.80689E-02 -2.89065E-02
    8985.752    -12.558  -0.800  4.10676E-02  7.35891E-02 -3.25215E-02
    8985.990    -12.321  -0.760  4.30982E-02  7.97798E-02 -3.66816E-02
    8986.216    -12.095  -0.720  4.52644E-02  8.67383E-02 -4.14739E-02
    8986.429    -11.882  -0.680  4.75765E-02  9.45714E-02 -4.69949E-02
    8986.630    -11.680  -0.640  5.00441E-02  1.03392E-01 -5.33475E-02
    8986.819    -11.492  -0.600  5.26754E-02  1.13309E-01 -6.06335E-02
    8986.996    -11.315  -0.560  5.54749E-02  1.24417E-01 -6.89421E-02
    8987.161    -11.150  -0.520  5.84413E-02  1.36771E-01 -7.83293E-02
    8987.313    -10.998  -0.480  6.15635E-02  1.50355E-01 -8.87918E-02
    8987.453    -10.858  -0.440  6.48172E-02  1.65052E-01 -1.00235E-01
    8987.581    -10.730  -0.400  6.81614E-02  1.80609E-01 -1.12448E-01
    8987.697    -10.614  -0.360  7.15372E-02  1.96630E-01 -1.25093E-01
    8987.801    -10.510  -0.320  7.48699E-02  2.12600E-01 -1.37730E-01
    8987.892    -10.419  -0.280  7.80742E-02  2.27947E-01 -1.49873E-01
    8987.971    -10.339  -0.240  8.10625E-02  2.42120E-01 -1.61058E-01
    8988.038    -10.272  -0.200  8.37510E-02  2.54655E-01 -1.70904E-01
    8988.093    -10.217  -0.160  8.60650E-02  2.65209E-01 -1.79144E-01
    8988.136    -10.175  -0.120  8.79405E-02  2.73559E-01 -1.85619E-01
    8988.166    -10.144  -0.080  8.93259E-02  2.79580E-01 -1.90254E-01
    8988.191    -10.120   0.000  9.04792E-02  2.84422E-01 -1.93943E-01
    8988.246    -10.065   0.120  9.32110E-02  2.95347E-01 -2.02136E-01
    8988.288    -10.022   0.160  9.53358E-02  3.03844E-01 -2.08508E-01
    8988.343     -9.968   0.200  9.81258E-02  3.14724E-01 -2.16598E-01
    8988.410     -9.900   0.240  1.01618E-01  3.27836E-01 -2.26218E-01
    8988.489     -9.821   0.280  1.05853E-01  3.42942E-01 -2.37090E-01
    8988.581     -9.730   0.320  1.10934E-01  3.59711E-01 -2.48778E-01
    8988.685     -9.626   0.360  1.16864E-01  3.77661E-01 -2.60797E-01
    8988.800     -9.510   0.400  1.23701E-01  3.96341E-01 -2.72640E-01
    8988.928     -9.382   0.440  1.31375E-01  4.15300E-01 -2.83925E-01
    8989.069     -9.242   0.480  1.39708E-01  4.34204E-01 -2.94496E-01
    8989.221     -9.090   0.520  1.48316E-01  4.52819E-01 -3.04503E-01
    8989.386     -8.925   0.560  1.56689E-01  4.71050E-01 -3.14360E-01
    8989.562     -8.748   0.600  1.64398E-01  4.88885E-01 -3.24487E-01
    8989.751     -8.559   0.640  1.71138E-01  5.06332E-01 -3.35194E-01
    8989.953     -8.358   0.680  1.76766E-01  5.23467E-01 -3.46701E-01
    8990.166     -8.145   0.720  1.81323E-01  5.40379E-01 -3.59056E-01
    8990.391     -7.919   0.760  1.85313E-01  5.57092E-01 -3.71779E-01
    8990.629     -7.682   0.800  1.90333E-01  5.73723E-01 -3.83389E-01
    8990.879     -7.432   0.840  1.98951E-01  5.90277E-01 -3.91326E-01
    8991.141     -7.169   0.880  2.14249E-01  6.06786E-01 -3.92538E-01
    8991.416     -6.895   0.920  2.39480E-01  6.23292E-01 -3.83812E-01
    8991.702     -6.609   0.960  2.78494E-01  6.39784E-01 -3.61290E-01
    8992.001     -6.310   1.000  3.35491E-01  6.56263E-01 -3.20772E-01
    8992.312     -5.999   1.040  4.10810E-01  6.72702E-01 -2.61892E-01
    8992.635     -5.676   1.080  4.92180E-01  6.89105E-01 -1.96925E-01
    8992.970     -5.341   1.120  5.59748E-01  7.05433E-01 -1.45685E-01
    8993.317     -4.993   1.160  6.18191E-01  7.21661E-01 -1.03471E-01
    8993.677     -4.634   1.200  6.95734E-01  7.37742E-01 -4.20084E-02
    8994.049     -4.262   1.240  7.86137E-01  7.53644E-01  3.24927E-02
    8994.433     -3.878   1.280  8.19914E-01  7.69335E-01  5.05797E-02
    8994.829     -3.481   1.320  7.51867E-01  7.84779E-01 -3.29124E-02
    8995.238     -3.073   1.360  6.35803E-01  7.99922E-01 -1.64119E-01
    8995.658     -2.652   1.400  5.42154E-01  8.14728E-01 -2.72574E-01
    8996.091     -2.220   1.440  4.93663E-01  8.29162E-01 -3.35499E-01
    8996.536     -1.775   1.480  4.80496E-01  8.43189E-01 -3.62693E-01
    8996.993     -1.317   1.520  4.86130E-01  8.56773E-01 -3.70643E-01
    8997.463     -0.848   1.560  5.00846E-01  8.69883E-01 -3.69037E-01
    8997.944     -0.366   1.600  5.28585E-01  8.82508E-01 -3.53923E-01
    8998.438      0.127   1.640  5.73056E-01  8.94595E-01 -3.21539E-01
    8998.944      0.633   1.680  6.29148E-01  9.06157E-01 -2.77009E-01
    8999.462      1.152   1.720  6.97445E-01  9.17166E-01 -2.19721E-01
    8999.993      1.682   1.760  7.75846E-01  9.27577E-01 -1.51731E-01
    9000.535      2.224   1.800  8.50186E-01  9.37427E-01 -8.72413E-02
    9001.090      2.779   1.840  9.14397E-01  9.46693E-01 -3.22967E-02
    9001.657      3.346   1.880  9.56940E-01  9.55353E-01  1.58657E-03
    9002.236      3.925   1.920  9.72307E-01  9.63452E-01  8.85593E-03
    9002.827      4.517   1.960  9.94006E-01  9.70950E-01  2.30563E-02
    9003.431      5.120   2.000  1.04912E+00  9.77872E-01  7.12445E-02
    9004.046      5.736   2.040  1.12030E+00  9.84243E-01  1.36053E-01
    9004.674      6.364   2.080  1.17558E+00  9.90050E-01  1.85527E-01
    9005.314      7.004   2.120  1.21936E+00  9.95321E-01  2.24035E-01
    9005.967      7.656   2.160  1.26927E+00  1.00006E+00  2.69207E-01
    9006.631      8.320   2.200  1.33973E+00  1.00431E+00  3.35420E-01
    9007.308      8.997   2.240  1.43446E+00  1.00806E+00  4.26398E-01
    9007.997      9.686   2.280  1.51413E+00  1.01136E+00  5.02761E-01
    9008.698     10.387   2.320  1.53334E+00  1.01422E+00  5.19125E-01
    9009.411     11.100   2.360  1.49801E+00  1.01666E+00  4.81354E-01
    9010.136     11.826   2.400  1.43357E+00  1.01869E+00  4.14882E-01
    9010.874     12.563   2.440  1.35902E+00  1.02036E+00  3.38667E-01
    9011.624     13.313   2.480  1.28948E+00  1.02168E+00  2.67801E-01
    9012.386     14.075   2.520  1.23628E+00  1.02266E+00  2.13616E-01
    9013.160     14.849   2.560  1.19960E+00  1.02337E+00  1.76236E-01
    9013.946     15.636   2.600  1.16965E+00  1.02377E+00  1.45888E-01
    9014.745     16.434   2.640  1.13621E+00  1.02391E+00  1.12295E-01
    9015.556     17.245   2.680  1.09600E+00  1.02382E+00  7.21854E-02
    9016.379     18.068   2.720  1.05865E+00  1.02351E+00  3.51457E-02
    9017.214     18.903   2.760  1.03051E+00  1.02300E+00  7.50414E-03
    9018.061     19.750   2.800  1.01253E+00  1.02233E+00 -9.79465E-03
    9018.921     20.610   2.840  1.00235E+00  1.02151E+00 -1.91596E-02
    9019.792     21.482   2.880  9.94698E-01  1.02052E+00 -2.58225E-02
    9020.676     22.366   2.920  9.85061E-01  1.01943E+00 -3.43693E-02
    9021.572     23.262   2.960  9.71241E-01  1.01825E+00 -4.70043E-02
    9022.481     24.170   3.000  9.53306E-01  1.01695E+00 -6.36480E-02
    9023.401     25.090   3.040  9.33059E-01  1.01558E+00 -8.25240E-02
    9024.334     26.023   3.080  9.13646E-01  1.01416E+00 -1.00515E-01
    9025.279     26.968   3.120  8.97854E-01  1.01270E+00 -1.14842E-01
    9026.236     27.925   3.160  8.86799E-01  1.01121E+00 -1.24414E-01
    9027.205     28.894   3.200  8.80513E-01  1.00968E+00 -1.29162E-01
    9028.186     29.876   3.240  8.78204E-01  1.00815E+00 -1.29947E-01
    9029.180     30.869   3.280  8.78140E-01  1.00660E+00 -1.28462E-01
    9030.186     31.875   3.320  8.78937E-01  1.00506E+00 -1.26119E-01
    9031.204     32.893   3.360  8.79789E-01  1.00354E+00 -1.23748E-01
    9032.234     33.924   3.400  8.80176E-01  1.00205E+00 -1.21875E-01
    9033.277     34.966   3.440  8.79707E-01  1.00058E+00 -1.20873E-01
    9034.331     36.021   3.480  8.78478E-01  9.99166E-01 -1.20688E-01
    9035.398     37.087   3.520  8.77030E-01  9.97772E-01 -1.20742E-01
    9036.477     38.166   3.560  8.76433E-01  9.96443E-01 -1.20010E-01
    9037.568     39.257   3.600  8.77989E-01  9.95158E-01 -1.17169E-01
    9038.672     40.361   3.640  8.82739E-01  9.93921E-01 -1.11182E-01
    9039.787     41.476   3.680  8.91115E-01  9.92756E-01 -1.01641E-01
    9040.915     42.604   3.720  9.02783E-01  9.91663E-01 -8.88792E-02
    9042.055     43.744   3.760  9.16994E-01  9.90623E-01 -7.36291E-02
    9043.207     44.896   3.800  9.32669E-01  9.89679E-01 -5.70098E-02
    9044.371     46.061   3.840  9.48285E-01  9.88767E-01 -4.04824E-02
    9045.548     47.237   3.880  9.62367E-01  9.87953E-01 -2.55854E-02
    9046.737     48.426   3.920  9.73594E-01  9.87216E-01 -1.36213E-02
    9047.937     49.627   3.960  9.81235E-01  9.86534E-01 -5.29946E-03
    9049.151     50.840   4.000  9.85558E-01  9.85931E-01 -3.72283E-04
    9050.376     52.065   4.040  9.87901E-01  9.85426E-01  2.47515E-03
    9051.613     53.303   4.080  9.90242E-01  9.84977E-01  5.26504E-03
    9052.863     54.552   4.120  9.94585E-01  9.84604E-01  9.98181E-03
    9054.125     55.814   4.160  1.00213E+00  9.84285E-01  1.78473E-02
    9055.399     57.088   4.200  1.01272E+00  9.84063E-01  2.86574E-02
    9056.685     58.374   4.240  1.02473E+00  9.83895E-01  4.08300E-02
    9057.984     59.673   4.280  1.03612E+00  9.83801E-01  5.23173E-02
    9059.294     60.984   4.320  1.04538E+00  9.83759E-01  6.16256E-02
    9060.617     62.306   4.360  1.05201E+00  9.83810E-01  6.81963E-02
    9061.952     63.641   4.400  1.05592E+00  9.83890E-01  7.20314E-02
    9063.299     64.989   4.440  1.05705E+00  9.84040E-01  7.30081E-02
    9064.659     66.348   4.480  1.05487E+00  9.84259E-01  7.06131E-02
    9066.030     67.720   4.520  1.04930E+00  9.84524E-01  6.47748E-02
    9067.414     69.103   4.560  1.04160E+00  9.84832E-01  5.67665E-02
    9068.810     70.499   4.600  1.03412E+00  9.85182E-01  4.89426E-02
    9070.218     71.908   4.640  1.02920E+00  9.85573E-01  4.36305E-02
    9071.639     73.328   4.680  1.02818E+00  9.86026E-01  4.21499E-02
    9073.071     74.760   4.720  1.03097E+00  9.86496E-01  4.44769E-02
    9074.516     76.205   4.760  1.03669E+00  9.87001E-01  4.96869E-02
    9075.973     77.662   4.800  1.04409E+00  9.87541E-01  5.65486E-02
    9077.442     79.131   4.840  1.05188E+00  9.88090E-01  6.37880E-02
    9078.923     80.613   4.880  1.05862E+00  9.88669E-01  6.99467E-02
    9080.417     82.106   4.920  1.06253E+00  9.89257E-01  7.32740E-02
    9081.922     83.612   4.960  1.06228E+00  9.89870E-01  7.24075E-02
    9083.440     85.130   5.000  1.05778E+00  9.90465E-01  6.73133E-02
    9084.970     86.660   5.040  1.05036E+00  9.91083E-01  5.92766E-02
    9086.513     88.202   5.080  1.04170E+00  9.91703E-01  4.99965E-02
    9088.067     89.757   5.120  1.03286E+00  9.92321E-01  4.05361E-02
    9089.634     91.323   5.160  1.02376E+00  9.92935E-01  3.08279E-02
    9091.213     92.902   5.200  1.01342E+00  9.93520E-01  1.99003E-02
    9092.804     94.493   5.240  1.00076E+00  9.94100E-01  6.66312E-03
    9094.407     96.096   5.280  9.85424E-01  9.94671E-01 -9.24729E-03
    9096.022     97.712   5.320  9.68070E-01  9.95209E-01 -2.71387E-02
    9097.650     99.339   5.360  9.50116E-01  9.95714E-01 -4.55980E-02
    9099.290    100.979   5.400  9.33248E-01  9.96208E-01 -6.29600E-02
    9100.942    102.631   5.440  9.19102E-01  9.96688E-01 -7.75861E-02
    9102.606    104.295   5.480  9.09100E-01  9.97108E-01 -8.80078E-02
    9104.283    105.972   5.520  9.04253E-01  9.97489E-01 -9.32360E-02
    9105.971    107.660   5.560  9.04809E-01  9.97852E-01 -9.30436E-02
    9107.672    109.361   5.600  9.10294E-01  9.98154E-01 -8.78604E-02
    9109.385    111.074   5.640  9.19916E-01  9.98436E-01 -7.85201E-02
    9111.110    112.799   5.680  9.32755E-01  9.98657E-01 -6.59020E-02
    9112.847    114.537   5.720  9.48095E-01  9.98856E-01 -5.07611E-02
    9114.597    116.286   5.760  9.65190E-01  9.98990E-01 -3.37999E-02
    9116.359    118.048   5.800  9.83118E-01  9.99081E-01 -1.59630E-02
    9118.133    119.822   5.840  1.00049E+00  9.99127E-01  1.36383E-03
    9119.919    121.608   5.880  1.01542E+00  9.99107E-01  1.63154E-02
    9121.717    123.406   5.920  1.02608E+00  9.99067E-01  2.70087E-02
    9123.527    125.217   5.960  1.03111E+00  9.98954E-01  3.21561E-02
    9125.350    127.040   6.000  1.02986E+00  9.98762E-01  3.10973E-02
