# # comment:                                                     FEFF 9.9.1  
# # Source:
# # Structure
# # Reduced
# # space
# # abc:
# # angles:
# # sites:
# # POT  SCF 100  7.0000   0, screened core-hole, AFOLP (folp(0)= 1.150)
# # Abs   Z=29 Rmt= 1.222 Rnm= 1.364 K  shell
# # Pot 1 Z=56 Rmt= 1.931 Rnm= 1.989
# # Pot 2 Z=59 Rmt= 1.604 Rnm= 1.772
# # Pot 3 Z=29 Rmt= 1.222 Rnm= 1.364
# # Pot 4 Z= 8 Rmt= 1.075 Rnm= 1.141
# # Gam_ch=1.729E+00 H-L exch Vi= 0.000E+00 Vr= 0.000E+00
# # Mu=-9.045E+00eV kf=1.921E+00 Vint=-1.629E+01eV Rs_int= 1.888
# FMS rfms= 9.0000
# # PATH  Rmax=-1.000,  Keep_limit= 0.00, Heap_limit 0.00  Pwcrit= 2.50%
#  S02=0.950  Temp=   0.00  Debye_temp=   0.00  Global_sig2= 0.00000
#  Energy zero shift, vr, vi    0.00000E+00   0.00000E+00
#  Curved wave amplitude ratio filter   4.000%
#     file         sig2 tot  cw amp ratio   deg  nlegs   reff  inp sig2
#     0/   0 paths used
#  xsedge+ 50, used to normalize mu           2.4543E-04
#  -----------------------------------------------------------------------
#  omega    e    k    mu    mu0     chi     @#
    8984.394    -12.855  -1.000  3.88236E-02  5.28346E-02 -1.40110E-02
    8984.693    -12.556  -0.960  4.09370E-02  5.65874E-02 -1.56505E-02
    8984.980    -12.270  -0.920  4.32281E-02  6.07475E-02 -1.75194E-02
    8985.254    -11.995  -0.880  4.57196E-02  6.53737E-02 -1.96541E-02
    8985.516    -11.733  -0.840  4.84375E-02  7.05342E-02 -2.20967E-02
    8985.766    -11.483  -0.800  5.14120E-02  7.63080E-02 -2.48960E-02
    8986.004    -11.246  -0.760  5.46776E-02  8.27858E-02 -2.81081E-02
    8986.229    -11.020  -0.720  5.82732E-02  9.00693E-02 -3.17961E-02
    8986.443    -10.807  -0.680  6.22413E-02  9.82709E-02 -3.60296E-02
    8986.644    -10.606  -0.640  6.66264E-02  1.07508E-01 -4.08820E-02
    8986.833    -10.417  -0.600  7.14718E-02  1.17898E-01 -4.64257E-02
    8987.010    -10.240  -0.560  7.68135E-02  1.29536E-01 -5.27228E-02
    8987.174    -10.075  -0.520  8.26710E-02  1.42482E-01 -5.98113E-02
    8987.327     -9.923  -0.480  8.90344E-02  1.56720E-01 -6.76860E-02
    8987.467     -9.783  -0.440  9.58503E-02  1.72126E-01 -7.62760E-02
    8987.595     -9.655  -0.400  1.03009E-01  1.88435E-01 -8.54266E-02
    8987.711     -9.539  -0.360  1.10339E-01  2.05232E-01 -9.48935E-02
    8987.814     -9.435  -0.320  1.17619E-01  2.21978E-01 -1.04359E-01
    8987.906     -9.344  -0.280  1.24601E-01  2.38072E-01 -1.13471E-01
    8987.985     -9.264  -0.240  1.31045E-01  2.52936E-01 -1.21891E-01
    8988.052     -9.197  -0.200  1.36746E-01  2.66083E-01 -1.29338E-01
    8988.107     -9.143  -0.160  1.41549E-01  2.77154E-01 -1.35604E-01
    8988.150     -9.100  -0.120  1.45350E-01  2.85913E-01 -1.40563E-01
    8988.180     -9.069  -0.080  1.48086E-01  2.92230E-01 -1.44144E-01
    8988.204     -9.045   0.000  1.50272E-01  2.97309E-01 -1.47038E-01
    8988.259     -8.990   0.120  1.55492E-01  3.08775E-01 -1.53283E-01
    8988.302     -8.947   0.160  1.59486E-01  3.17683E-01 -1.58197E-01
    8988.357     -8.893   0.200  1.64607E-01  3.29108E-01 -1.64501E-01
    8988.424     -8.826   0.240  1.70737E-01  3.42874E-01 -1.72138E-01
    8988.503     -8.746   0.280  1.77756E-01  3.58735E-01 -1.80980E-01
    8988.595     -8.655   0.320  1.85507E-01  3.76345E-01 -1.90837E-01
    8988.698     -8.551   0.360  1.93734E-01  3.95201E-01 -2.01467E-01
    8988.814     -8.435   0.400  2.02248E-01  4.14833E-01 -2.12585E-01
    8988.942     -8.307   0.440  2.10867E-01  4.34768E-01 -2.23901E-01
    8989.082     -8.167   0.480  2.19492E-01  4.54658E-01 -2.35166E-01
    8989.235     -8.015   0.520  2.28061E-01  4.74239E-01 -2.46177E-01
    8989.399     -7.850   0.560  2.36706E-01  4.93426E-01 -2.56720E-01
    8989.576     -7.673   0.600  2.45614E-01  5.12187E-01 -2.66573E-01
    8989.765     -7.484   0.640  2.54989E-01  5.30549E-01 -2.75559E-01
    8989.966     -7.283   0.680  2.64940E-01  5.48568E-01 -2.83629E-01
    8990.179     -7.070   0.720  2.75409E-01  5.66293E-01 -2.90884E-01
    8990.405     -6.844   0.760  2.86369E-01  5.83830E-01 -2.97461E-01
    8990.643     -6.607   0.800  2.98108E-01  6.01214E-01 -3.03106E-01
    8990.893     -6.357   0.840  3.11264E-01  6.18489E-01 -3.07225E-01
    8991.155     -6.095   0.880  3.25941E-01  6.35667E-01 -3.09726E-01
    8991.429     -5.820   0.920  3.41188E-01  6.52766E-01 -3.11578E-01
    8991.716     -5.534   0.960  3.56116E-01  6.69815E-01 -3.13698E-01
    8992.014     -5.235   1.000  3.71235E-01  6.86749E-01 -3.15513E-01
    8992.325     -4.924   1.040  3.88614E-01  7.03579E-01 -3.14965E-01
    8992.648     -4.601   1.080  4.10534E-01  7.20288E-01 -3.09755E-01
    8992.984     -4.266   1.120  4.37845E-01  7.36834E-01 -2.98989E-01
    8993.331     -3.918   1.160  4.70559E-01  7.53169E-01 -2.82609E-01
    8993.691     -3.559   1.200  5.11015E-01  7.69282E-01 -2.58267E-01
    8994.063     -3.187   1.240  5.64387E-01  7.85102E-01 -2.20715E-01
    8994.447     -2.803   1.280  6.35285E-01  8.00593E-01 -1.65309E-01
    8994.843     -2.406   1.320  7.22619E-01  8.15721E-01 -9.31015E-02
    8995.251     -1.998   1.360  8.14672E-01  8.30451E-01 -1.57791E-02
    8995.672     -1.577   1.400  8.87231E-01  8.44727E-01  4.25042E-02
    8996.105     -1.145   1.440  9.22766E-01  8.58535E-01  6.42311E-02
    8996.550     -0.700   1.480  9.37810E-01  8.71843E-01  6.59668E-02
    8997.007     -0.242   1.520  9.60580E-01  8.84598E-01  7.59823E-02
    8997.476      0.227   1.560  1.01345E+00  8.96810E-01  1.16642E-01
    8997.958      0.709   1.600  1.10155E+00  9.08432E-01  1.93117E-01
    8998.452      1.202   1.640  1.16890E+00  9.19455E-01  2.49443E-01
    8998.958      1.708   1.680  1.15104E+00  9.29854E-01  2.21182E-01
    8999.476      2.226   1.720  1.06539E+00  9.39649E-01  1.25737E-01
    9000.006      2.757   1.760  9.83309E-01  9.48817E-01  3.44921E-02
    9000.549      3.299   1.800  9.48219E-01  9.57360E-01 -9.14071E-03
    9001.103      3.854   1.840  9.56153E-01  9.65301E-01 -9.14812E-03
    9001.670      4.421   1.880  9.86939E-01  9.72625E-01  1.43144E-02
    9002.250      5.000   1.920  1.02366E+00  9.79336E-01  4.43229E-02
    9002.841      5.591   1.960  1.05903E+00  9.85463E-01  7.35693E-02
    9003.444      6.195   2.000  1.08978E+00  9.91035E-01  9.87431E-02
    9004.060      6.811   2.040  1.11214E+00  9.96042E-01  1.16100E-01
    9004.688      7.439   2.080  1.12992E+00  1.00053E+00  1.29383E-01
    9005.328      8.079   2.120  1.15007E+00  1.00450E+00  1.45563E-01
    9005.980      8.731   2.160  1.16745E+00  1.00800E+00  1.59447E-01
    9006.645      9.395   2.200  1.16678E+00  1.01102E+00  1.55760E-01
    9007.321     10.072   2.240  1.14474E+00  1.01361E+00  1.31127E-01
    9008.010     10.761   2.280  1.11915E+00  1.01577E+00  1.03375E-01
    9008.711     11.462   2.320  1.10842E+00  1.01757E+00  9.08430E-02
    9009.424     12.175   2.360  1.12015E+00  1.01901E+00  1.01137E-01
    9010.150     12.900   2.400  1.13487E+00  1.02009E+00  1.14773E-01
    9010.887     13.638   2.440  1.14077E+00  1.02090E+00  1.19869E-01
    9011.637     14.388   2.480  1.13466E+00  1.02139E+00  1.13271E-01
    9012.399     15.150   2.520  1.11721E+00  1.02163E+00  9.55774E-02
    9013.173     15.924   2.560  1.09015E+00  1.02165E+00  6.84976E-02
    9013.960     16.710   2.600  1.05702E+00  1.02144E+00  3.55793E-02
    9014.758     17.509   2.640  1.02219E+00  1.02103E+00  1.15604E-03
    9015.569     18.320   2.680  9.89737E-01  1.02047E+00 -3.07374E-02
    9016.392     19.143   2.720  9.62328E-01  1.01976E+00 -5.74310E-02
    9017.227     19.978   2.760  9.40637E-01  1.01892E+00 -7.82784E-02
    9018.075     20.825   2.800  9.24748E-01  1.01795E+00 -9.32043E-02
    9018.934     21.685   2.840  9.14765E-01  1.01690E+00 -1.02134E-01
    9019.806     22.557   2.880  9.10165E-01  1.01576E+00 -1.05599E-01
    9020.690     23.440   2.920  9.10167E-01  1.01455E+00 -1.04386E-01
    9021.586     24.337   2.960  9.14072E-01  1.01330E+00 -9.92259E-02
    9022.494     25.245   3.000  9.20789E-01  1.01202E+00 -9.12342E-02
    9023.415     26.165   3.040  9.29551E-01  1.01071E+00 -8.11635E-02
    9024.347     27.098   3.080  9.39828E-01  1.00938E+00 -6.95496E-02
    9025.292     28.043   3.120  9.51234E-01  1.00806E+00 -5.68246E-02
    9026.249     29.000   3.160  9.63165E-01  1.00674E+00 -4.35779E-02
    9027.219     29.969   3.200  9.74744E-01  1.00543E+00 -3.06902E-02
    9028.200     30.951   3.240  9.84897E-01  1.00416E+00 -1.92619E-02
    9029.194     31.944   3.280  9.92579E-01  1.00292E+00 -1.03401E-02
    9030.200     32.950   3.320  9.97223E-01  1.00172E+00 -4.49683E-03
    9031.218     33.968   3.360  9.98712E-01  1.00056E+00 -1.85129E-03
    9032.248     34.998   3.400  9.97384E-01  9.99471E-01 -2.08697E-03
    9033.290     36.041   3.440  9.93865E-01  9.98405E-01 -4.53916E-03
    9034.345     37.095   3.480  9.89203E-01  9.97427E-01 -8.22426E-03
    9035.412     38.162   3.520  9.84468E-01  9.96481E-01 -1.20129E-02
    9036.491     39.241   3.560  9.80705E-01  9.95628E-01 -1.49227E-02
    9037.582     40.332   3.600  9.78514E-01  9.94828E-01 -1.63142E-02
    9038.685     41.436   3.640  9.78084E-01  9.94102E-01 -1.60183E-02
    9039.801     42.551   3.680  9.79072E-01  9.93432E-01 -1.43594E-02
    9040.928     43.679   3.720  9.80957E-01  9.92858E-01 -1.19017E-02
    9042.068     44.819   3.760  9.83185E-01  9.92340E-01 -9.15521E-03
    9043.221     45.971   3.800  9.85505E-01  9.91899E-01 -6.39358E-03
    9044.385     47.135   3.840  9.87908E-01  9.91535E-01 -3.62741E-03
    9045.561     48.312   3.880  9.90619E-01  9.91247E-01 -6.28139E-04
    9046.750     49.501   3.920  9.93900E-01  9.91014E-01  2.88681E-03
    9047.951     50.702   3.960  9.97960E-01  9.90876E-01  7.08373E-03
    9049.164     51.915   4.000  1.00272E+00  9.90771E-01  1.19468E-02
    9050.389     53.140   4.040  1.00806E+00  9.90761E-01  1.73002E-02
    9051.627     54.378   4.080  1.01359E+00  9.90803E-01  2.27869E-02
    9052.877     55.627   4.120  1.01878E+00  9.90916E-01  2.78594E-02
    9054.138     56.889   4.160  1.02290E+00  9.91078E-01  3.18172E-02
    9055.412     58.163   4.200  1.02524E+00  9.91309E-01  3.39334E-02
    9056.699     59.449   4.240  1.02526E+00  9.91586E-01  3.36719E-02
    9057.997     60.748   4.280  1.02277E+00  9.91905E-01  3.08689E-02
    9059.308     62.058   4.320  1.01802E+00  9.92267E-01  2.57569E-02
    9060.631     63.381   4.360  1.01162E+00  9.92670E-01  1.89477E-02
    9061.966     64.716   4.400  1.00451E+00  9.93135E-01  1.13714E-02
    9063.313     66.063   4.440  9.97792E-01  9.93618E-01  4.17460E-03
    9064.672     67.423   4.480  9.92660E-01  9.94134E-01 -1.47374E-03
    9066.044     68.794   4.520  9.90052E-01  9.94684E-01 -4.63191E-03
    9067.428     70.178   4.560  9.90381E-01  9.95246E-01 -4.86443E-03
    9068.824     71.574   4.600  9.93511E-01  9.95836E-01 -2.32578E-03
    9070.232     72.982   4.640  9.98743E-01  9.96433E-01  2.30974E-03
    9071.652     74.403   4.680  1.00500E+00  9.97035E-01  7.96491E-03
    9073.085     75.835   4.720  1.01090E+00  9.97663E-01  1.32333E-02
    9074.529     77.280   4.760  1.01480E+00  9.98291E-01  1.65078E-02
    9075.986     78.737   4.800  1.01529E+00  9.98919E-01  1.63701E-02
    9077.456     80.206   4.840  1.01167E+00  9.99522E-01  1.21519E-02
    9078.937     81.687   4.880  1.00448E+00  1.00014E+00  4.33417E-03
    9080.430     83.181   4.920  9.95254E-01  1.00074E+00 -5.48053E-03
    9081.936     84.687   4.960  9.86276E-01  1.00132E+00 -1.50426E-02
    9083.454     86.205   5.000  9.79761E-01  1.00187E+00 -2.21093E-02
    9084.984     87.735   5.040  9.77334E-01  1.00241E+00 -2.50776E-02
    9086.526     89.277   5.080  9.79478E-01  1.00292E+00 -2.34401E-02
    9088.081     90.831   5.120  9.85508E-01  1.00339E+00 -1.78806E-02
    9089.647     92.398   5.160  9.93834E-01  1.00384E+00 -1.00105E-02
    9091.226     93.977   5.200  1.00234E+00  1.00426E+00 -1.92361E-03
    9092.817     95.568   5.240  1.00887E+00  1.00464E+00  4.22404E-03
    9094.421     97.171   5.280  1.01168E+00  1.00498E+00  6.69767E-03
    9096.036     98.787   5.320  1.01000E+00  1.00528E+00  4.71827E-03
    9097.664    100.414   5.360  1.00450E+00  1.00554E+00 -1.03824E-03
    9099.304    102.054   5.400  9.97284E-01  1.00575E+00 -8.46854E-03
    9100.956    103.706   5.440  9.91085E-01  1.00593E+00 -1.48403E-02
    9102.620    105.370   5.480  9.88146E-01  1.00605E+00 -1.79068E-02
    9104.296    107.047   5.520  9.89489E-01  1.00611E+00 -1.66257E-02
    9105.985    108.735   5.560  9.94904E-01  1.00616E+00 -1.12519E-02
    9107.685    110.436   5.600  1.00306E+00  1.00613E+00 -3.07458E-03
    9109.398    112.149   5.640  1.01216E+00  1.00606E+00  6.09952E-03
    9111.124    113.874   5.680  1.02059E+00  1.00595E+00  1.46427E-02
    9112.861    115.612   5.720  1.02746E+00  1.00580E+00  2.16646E-02
    9114.611    117.361   5.760  1.03281E+00  1.00560E+00  2.72121E-02
    9116.372    119.123   5.800  1.03685E+00  1.00536E+00  3.14829E-02
    9118.146    120.897   5.840  1.03901E+00  1.00506E+00  3.39425E-02
    9119.932    122.683   5.880  1.03819E+00  1.00475E+00  3.34453E-02
    9121.731    124.481   5.920  1.03368E+00  1.00437E+00  2.93140E-02
    9123.541    126.292   5.960  1.02599E+00  1.00398E+00  2.20049E-02
    9125.364    128.114   6.000  1.01588E+00  1.00350E+00  1.23784E-02
