# # comment:                                                     FEFF 9.9.1  
# # Source:
# # Structure
# # Reduced
# # space
# # abc:
# # angles:
# # sites:
# # POT  SCF 100  7.0000   0, screened core-hole, AFOLP (folp(0)= 1.150)
# # Abs   Z=29 Rmt= 1.293 Rnm= 1.367 K  shell
# # Pot 1 Z=19 Rmt= 1.950 Rnm= 1.995
# # Pot 2 Z=29 Rmt= 1.254 Rnm= 1.342
# # Pot 3 Z=34 Rmt= 1.105 Rnm= 1.331
# # Pot 4 Z= 8 Rmt= 0.936 Rnm= 1.081
# # Gam_ch=1.729E+00 H-L exch Vi= 0.000E+00 Vr= 0.000E+00
# # Mu=-5.103E+00eV kf=2.231E+00 Vint=-1.487E+01eV Rs_int= 1.626
# FMS rfms= 9.0000
# # PATH  Rmax=-1.000,  Keep_limit= 0.00, Heap_limit 0.00  Pwcrit= 2.50%
#  S02=0.950  Temp=   0.00  Debye_temp=   0.00  Global_sig2= 0.00000
#  Energy zero shift, vr, vi    0.00000E+00   0.00000E+00
#  Curved wave amplitude ratio filter   4.000%
#     file         sig2 tot  cw amp ratio   deg  nlegs   reff  inp sig2
#     0/   0 paths used
#  xsedge+ 50, used to normalize mu           2.4482E-04
#  -----------------------------------------------------------------------
#  omega    e    k    mu    mu0     chi     @#
    8983.377     -8.913  -1.000  4.69233E-02  5.97747E-02 -1.28514E-02
    8983.675     -8.614  -0.960  4.96422E-02  6.43042E-02 -1.46620E-02
    8983.962     -8.328  -0.920  5.25858E-02  6.93533E-02 -1.67675E-02
    8984.236     -8.054  -0.880  5.57801E-02  7.49998E-02 -1.92197E-02
    8984.498     -7.791  -0.840  5.92545E-02  8.13343E-02 -2.20798E-02
    8984.748     -7.542  -0.800  6.30428E-02  8.84622E-02 -2.54195E-02
    8984.986     -7.304  -0.760  6.71827E-02  9.65045E-02 -2.93218E-02
    8985.212     -7.078  -0.720  7.17164E-02  1.05598E-01 -3.38816E-02
    8985.425     -6.865  -0.680  7.66892E-02  1.15894E-01 -3.92045E-02
    8985.626     -6.664  -0.640  8.21478E-02  1.27551E-01 -4.54033E-02
    8985.815     -6.475  -0.600  8.81368E-02  1.40728E-01 -5.25908E-02
    8985.992     -6.298  -0.560  9.46915E-02  1.55558E-01 -6.08661E-02
    8986.156     -6.133  -0.520  1.01829E-01  1.72122E-01 -7.02937E-02
    8986.309     -5.981  -0.480  1.09533E-01  1.90406E-01 -8.08735E-02
    8986.449     -5.841  -0.440  1.17740E-01  2.10248E-01 -9.25080E-02
    8986.577     -5.713  -0.400  1.26326E-01  2.31299E-01 -1.04973E-01
    8986.693     -5.597  -0.360  1.35100E-01  2.53009E-01 -1.17909E-01
    8986.797     -5.493  -0.320  1.43814E-01  2.74665E-01 -1.30851E-01
    8986.888     -5.402  -0.280  1.52190E-01  2.95473E-01 -1.43283E-01
    8986.967     -5.323  -0.240  1.59953E-01  3.14673E-01 -1.54720E-01
    8987.034     -5.256  -0.200  1.66860E-01  3.31631E-01 -1.64771E-01
    8987.089     -5.201  -0.160  1.72721E-01  3.45886E-01 -1.73165E-01
    8987.132     -5.158  -0.120  1.77400E-01  3.57146E-01 -1.79746E-01
    8987.162     -5.128  -0.080  1.80807E-01  3.65252E-01 -1.84445E-01
    8987.187     -5.103   0.000  1.83590E-01  3.71760E-01 -1.88171E-01
    8987.242     -5.048   0.120  1.89761E-01  3.86434E-01 -1.96672E-01
    8987.284     -5.006   0.160  1.94571E-01  3.97816E-01 -2.03246E-01
    8987.339     -4.951   0.200  2.00793E-01  4.12331E-01 -2.11539E-01
    8987.406     -4.884   0.240  2.08403E-01  4.29763E-01 -2.21361E-01
    8987.485     -4.804   0.280  2.17318E-01  4.49698E-01 -2.32381E-01
    8987.577     -4.713   0.320  2.27475E-01  4.71637E-01 -2.44163E-01
    8987.680     -4.609   0.360  2.38706E-01  4.94890E-01 -2.56184E-01
    8987.796     -4.494   0.400  2.50770E-01  5.18706E-01 -2.67937E-01
    8987.924     -4.366   0.440  2.63474E-01  5.42460E-01 -2.78985E-01
    8988.064     -4.225   0.480  2.76575E-01  5.65607E-01 -2.89032E-01
    8988.217     -4.073   0.520  2.89944E-01  5.87851E-01 -2.97906E-01
    8988.381     -3.908   0.560  3.03499E-01  6.09000E-01 -3.05501E-01
    8988.558     -3.732   0.600  3.17367E-01  6.29018E-01 -3.11651E-01
    8988.747     -3.543   0.640  3.31860E-01  6.47974E-01 -3.16114E-01
    8988.948     -3.341   0.680  3.47419E-01  6.65962E-01 -3.18543E-01
    8989.162     -3.128   0.720  3.64446E-01  6.83073E-01 -3.18627E-01
    8989.387     -2.903   0.760  3.83317E-01  6.99457E-01 -3.16141E-01
    8989.625     -2.665   0.800  4.04461E-01  7.15176E-01 -3.10715E-01
    8989.875     -2.415   0.840  4.28811E-01  7.30315E-01 -3.01504E-01
    8990.137     -2.153   0.880  4.58022E-01  7.44961E-01 -2.86939E-01
    8990.411     -1.878   0.920  4.94027E-01  7.59168E-01 -2.65141E-01
    8990.698     -1.592   0.960  5.38255E-01  7.72954E-01 -2.34699E-01
    8990.997     -1.293   1.000  5.91361E-01  7.86366E-01 -1.95005E-01
    8991.308     -0.982   1.040  6.53985E-01  7.99378E-01 -1.45394E-01
    8991.631     -0.659   1.080  7.27097E-01  8.12042E-01 -8.49450E-02
    8991.966     -0.324   1.120  8.07846E-01  8.24336E-01 -1.64903E-02
    8992.313      0.024   1.160  8.83066E-01  8.36274E-01  4.67916E-02
    8992.673      0.383   1.200  9.34917E-01  8.47827E-01  8.70900E-02
    8993.045      0.755   1.240  9.59220E-01  8.58983E-01  1.00237E-01
    8993.429      1.139   1.280  9.66225E-01  8.69746E-01  9.64788E-02
    8993.825      1.535   1.320  9.69847E-01  8.80101E-01  8.97464E-02
    8994.234      1.944   1.360  9.83230E-01  8.90028E-01  9.32022E-02
    8994.654      2.364   1.400  1.00797E+00  8.99529E-01  1.08441E-01
    8995.087      2.797   1.440  1.03430E+00  9.08585E-01  1.25710E-01
    8995.532      3.242   1.480  1.06053E+00  9.17199E-01  1.43336E-01
    8995.989      3.699   1.520  1.09465E+00  9.25370E-01  1.69282E-01
    8996.459      4.169   1.560  1.13790E+00  9.33082E-01  2.04822E-01
    8996.940      4.650   1.600  1.18136E+00  9.40314E-01  2.41046E-01
    8997.434      5.144   1.640  1.21313E+00  9.47113E-01  2.66022E-01
    8997.940      5.650   1.680  1.24049E+00  9.53463E-01  2.87031E-01
    8998.458      6.168   1.720  1.28119E+00  9.59367E-01  3.21825E-01
    8998.988      6.699   1.760  1.32998E+00  9.64812E-01  3.65172E-01
    8999.531      7.241   1.800  1.36305E+00  9.69844E-01  3.93207E-01
    9000.086      7.796   1.840  1.36816E+00  9.74471E-01  3.93688E-01
    9000.653      8.363   1.880  1.35590E+00  9.78678E-01  3.77218E-01
    9001.232      8.942   1.920  1.33849E+00  9.82474E-01  3.56011E-01
    9001.823      9.533   1.960  1.31594E+00  9.85931E-01  3.30005E-01
    9002.427     10.137   2.000  1.28565E+00  9.88993E-01  2.96660E-01
    9003.042     10.752   2.040  1.25023E+00  9.91733E-01  2.58493E-01
    9003.670     11.380   2.080  1.21130E+00  9.94140E-01  2.17164E-01
    9004.310     12.020   2.120  1.16828E+00  9.96242E-01  1.72041E-01
    9004.963     12.673   2.160  1.12246E+00  9.98049E-01  1.24407E-01
    9005.627     13.337   2.200  1.07836E+00  9.99573E-01  7.87870E-02
    9006.304     14.014   2.240  1.04009E+00  1.00086E+00  3.92315E-02
    9006.992     14.703   2.280  1.00773E+00  1.00191E+00  5.81860E-03
    9007.694     15.404   2.320  9.80110E-01  1.00274E+00 -2.26332E-02
    9008.407     16.117   2.360  9.58528E-01  1.00339E+00 -4.48634E-02
    9009.132     16.842   2.400  9.45574E-01  1.00385E+00 -5.82713E-02
    9009.870     17.580   2.440  9.42050E-01  1.00415E+00 -6.21025E-02
    9010.620     18.330   2.480  9.46314E-01  1.00430E+00 -5.79852E-02
    9011.382     19.092   2.520  9.57106E-01  1.00432E+00 -4.72118E-02
    9012.156     19.866   2.560  9.71176E-01  1.00421E+00 -3.30373E-02
    9012.942     20.652   2.600  9.80567E-01  1.00401E+00 -2.34479E-02
    9013.741     21.451   2.640  9.77840E-01  1.00373E+00 -2.58887E-02
    9014.551     22.262   2.680  9.66604E-01  1.00336E+00 -3.67589E-02
    9015.374     23.085   2.720  9.52842E-01  1.00294E+00 -5.01018E-02
    9016.210     23.920   2.760  9.38988E-01  1.00246E+00 -6.34688E-02
    9017.057     24.767   2.800  9.26680E-01  1.00195E+00 -7.52680E-02
    9017.916     25.627   2.840  9.16782E-01  1.00140E+00 -8.46214E-02
    9018.788     26.498   2.880  9.09146E-01  1.00085E+00 -9.17036E-02
    9019.672     27.382   2.920  9.03023E-01  1.00029E+00 -9.72671E-02
    9020.568     28.278   2.960  8.98122E-01  9.99727E-01 -1.01605E-01
    9021.477     29.187   3.000  8.94556E-01  9.99166E-01 -1.04609E-01
    9022.397     30.107   3.040  8.92578E-01  9.98609E-01 -1.06032E-01
    9023.330     31.040   3.080  8.92519E-01  9.98083E-01 -1.05563E-01
    9024.275     31.985   3.120  8.94520E-01  9.97590E-01 -1.03069E-01
    9025.232     32.942   3.160  8.98092E-01  9.97130E-01 -9.90374E-02
    9026.201     33.911   3.200  9.02777E-01  9.96684E-01 -9.39073E-02
    9027.182     34.893   3.240  9.08371E-01  9.96277E-01 -8.79055E-02
    9028.176     35.886   3.280  9.14840E-01  9.95931E-01 -8.10908E-02
    9029.182     36.892   3.320  9.22353E-01  9.95607E-01 -7.32540E-02
    9030.200     37.910   3.360  9.31171E-01  9.95346E-01 -6.41755E-02
    9031.230     38.940   3.400  9.41236E-01  9.95130E-01 -5.38937E-02
    9032.272     39.983   3.440  9.52232E-01  9.94979E-01 -4.27465E-02
    9033.327     41.037   3.480  9.63798E-01  9.94851E-01 -3.10522E-02
    9034.394     42.104   3.520  9.75653E-01  9.94790E-01 -1.91373E-02
    9035.473     43.183   3.560  9.87491E-01  9.94796E-01 -7.30480E-03
    9036.564     44.274   3.600  9.98961E-01  9.94825E-01  4.13537E-03
    9037.667     45.378   3.640  1.00973E+00  9.94921E-01  1.48136E-02
    9038.783     46.493   3.680  1.01937E+00  9.95061E-01  2.43080E-02
    9039.911     47.621   3.720  1.02759E+00  9.95266E-01  3.23203E-02
    9041.051     48.761   3.760  1.03422E+00  9.95494E-01  3.87249E-02
    9042.203     49.913   3.800  1.03926E+00  9.95785E-01  4.34738E-02
    9043.367     51.077   3.840  1.04272E+00  9.96119E-01  4.65995E-02
    9044.544     52.254   3.880  1.04470E+00  9.96493E-01  4.82064E-02
    9045.732     53.443   3.920  1.04523E+00  9.96907E-01  4.83226E-02
    9046.933     54.643   3.960  1.04428E+00  9.97357E-01  4.69232E-02
    9048.146     55.857   4.000  1.04198E+00  9.97844E-01  4.41346E-02
    9049.372     57.082   4.040  1.03868E+00  9.98343E-01  4.03343E-02
    9050.609     58.319   4.080  1.03507E+00  9.98877E-01  3.61956E-02
    9051.859     59.569   4.120  1.03205E+00  9.99443E-01  3.26074E-02
    9053.121     60.831   4.160  1.03056E+00  1.00002E+00  3.05398E-02
    9054.395     62.105   4.200  1.03135E+00  1.00062E+00  3.07268E-02
    9055.681     63.391   4.240  1.03475E+00  1.00123E+00  3.35168E-02
    9056.979     64.690   4.280  1.04063E+00  1.00187E+00  3.87588E-02
    9058.290     66.000   4.320  1.04819E+00  1.00249E+00  4.57024E-02
    9059.613     67.323   4.360  1.05616E+00  1.00313E+00  5.30387E-02
    9060.948     68.658   4.400  1.06291E+00  1.00376E+00  5.91481E-02
    9062.295     70.005   4.440  1.06700E+00  1.00438E+00  6.26223E-02
    9063.655     71.365   4.480  1.06760E+00  1.00501E+00  6.25936E-02
    9065.026     72.736   4.520  1.06451E+00  1.00561E+00  5.88977E-02
    9066.410     74.120   4.560  1.05815E+00  1.00618E+00  5.19697E-02
    9067.806     75.516   4.600  1.04934E+00  1.00677E+00  4.25764E-02
    9069.214     76.924   4.640  1.03896E+00  1.00732E+00  3.16355E-02
    9070.634     78.345   4.680  1.02798E+00  1.00784E+00  2.01403E-02
    9072.067     79.777   4.720  1.01727E+00  1.00832E+00  8.95074E-03
    9073.512     81.222   4.760  1.00741E+00  1.00879E+00 -1.38381E-03
    9074.969     82.679   4.800  9.98576E-01  1.00925E+00 -1.06698E-02
    9076.438     84.148   4.840  9.90747E-01  1.00964E+00 -1.88930E-02
    9077.919     85.629   4.880  9.84030E-01  1.00999E+00 -2.59647E-02
    9079.413     87.123   4.920  9.78653E-01  1.01033E+00 -3.16771E-02
    9080.918     88.629   4.960  9.74775E-01  1.01060E+00 -3.58290E-02
    9082.436     90.146   5.000  9.72501E-01  1.01086E+00 -3.83572E-02
    9083.966     91.677   5.040  9.71590E-01  1.01107E+00 -3.94802E-02
    9085.509     93.219   5.080  9.71525E-01  1.01122E+00 -3.96915E-02
    9087.063     94.773   5.120  9.71743E-01  1.01132E+00 -3.95767E-02
    9088.630     96.340   5.160  9.71808E-01  1.01140E+00 -3.95946E-02
    9090.209     97.919   5.200  9.71571E-01  1.01142E+00 -3.98490E-02
    9091.800     99.510   5.240  9.71262E-01  1.01139E+00 -4.01306E-02
    9093.403    101.113   5.280  9.71286E-01  1.01132E+00 -4.00368E-02
    9095.018    102.729   5.320  9.71983E-01  1.01121E+00 -3.92266E-02
    9096.646    104.356   5.360  9.73540E-01  1.01105E+00 -3.75112E-02
    9098.286    105.996   5.400  9.75896E-01  1.01083E+00 -3.49335E-02
    9099.938    107.648   5.440  9.78776E-01  1.01059E+00 -3.18132E-02
    9101.602    109.312   5.480  9.81614E-01  1.01031E+00 -2.86954E-02
    9103.278    110.989   5.520  9.83838E-01  1.00999E+00 -2.61510E-02
    9104.967    112.677   5.560  9.85033E-01  1.00963E+00 -2.45938E-02
    9106.668    114.378   5.600  9.85023E-01  1.00920E+00 -2.41798E-02
    9108.381    116.091   5.640  9.84473E-01  1.00879E+00 -2.43132E-02
    9110.106    117.816   5.680  9.83735E-01  1.00831E+00 -2.45751E-02
    9111.843    119.553   5.720  9.83508E-01  1.00780E+00 -2.42887E-02
    9113.593    121.303   5.760  9.84541E-01  1.00727E+00 -2.27315E-02
    9115.355    123.065   5.800  9.87376E-01  1.00672E+00 -1.93419E-02
    9117.128    124.839   5.840  9.92155E-01  1.00616E+00 -1.40004E-02
    9118.915    126.625   5.880  9.98428E-01  1.00557E+00 -7.13904E-03
    9120.713    128.423   5.920  1.00544E+00  1.00498E+00  4.64962E-04
    9122.523    130.234   5.960  1.01236E+00  1.00437E+00  7.98958E-03
    9124.346    132.056   6.000  1.01855E+00  1.00371E+00  1.48332E-02
