# # comment:                                                     FEFF 9.9.1  
# # Source:
# # Structure
# # Reduced
# # space
# # abc:
# # angles:107.252880
# # sites:
# # POT  SCF 100  7.0000   0, screened core-hole, AFOLP (folp(0)= 1.150)
# # Abs   Z=29 Rmt= 1.198 Rnm= 1.360 K  shell
# # Pot 1 Z=65 Rmt= 1.640 Rnm= 1.723
# # Pot 2 Z=29 Rmt= 1.203 Rnm= 1.362
# # Pot 3 Z=74 Rmt= 1.253 Rnm= 1.421
# # Pot 4 Z= 8 Rmt= 0.954 Rnm= 1.066
# # Gam_ch=1.729E+00 H-L exch Vi= 0.000E+00 Vr= 0.000E+00
# # Mu=-5.919E+00eV kf=2.263E+00 Vint=-1.671E+01eV Rs_int= 1.603
# FMS rfms= 9.0000
# # PATH  Rmax=-1.000,  Keep_limit= 0.00, Heap_limit 0.00  Pwcrit= 2.50%
#  S02=0.950  Temp=   0.00  Debye_temp=   0.00  Global_sig2= 0.00000
#  Energy zero shift, vr, vi    0.00000E+00   0.00000E+00
#  Curved wave amplitude ratio filter   4.000%
#     file         sig2 tot  cw amp ratio   deg  nlegs   reff  inp sig2
#     0/   0 paths used
#  xsedge+ 50, used to normalize mu           2.4836E-04
#  -----------------------------------------------------------------------
#  omega    e    k    mu    mu0     chi     @#
    8983.494     -9.729  -1.000  5.37447E-02  5.50635E-02 -1.31881E-03
    8983.792     -9.430  -0.960  5.77664E-02  5.91335E-02 -1.36709E-03
    8984.079     -9.144  -0.920  6.22603E-02  6.36640E-02 -1.40373E-03
    8984.353     -8.869  -0.880  6.73003E-02  6.87238E-02 -1.42349E-03
    8984.615     -8.607  -0.840  7.29731E-02  7.43927E-02 -1.41961E-03
    8984.865     -8.357  -0.800  7.93804E-02  8.07637E-02 -1.38333E-03
    8985.103     -8.119  -0.760  8.66400E-02  8.79436E-02 -1.30361E-03
    8985.329     -7.894  -0.720  9.48862E-02  9.60529E-02 -1.16676E-03
    8985.542     -7.681  -0.680  1.04269E-01  1.05225E-01 -9.56329E-04
    8985.743     -7.479  -0.640  1.14947E-01  1.15600E-01 -6.53502E-04
    8985.932     -7.290  -0.600  1.27079E-01  1.27317E-01 -2.38330E-04
    8986.109     -7.114  -0.560  1.40803E-01  1.40495E-01  3.07587E-04
    8986.273     -6.949  -0.520  1.56201E-01  1.55204E-01  9.96501E-04
    8986.426     -6.797  -0.480  1.73259E-01  1.71431E-01  1.82793E-03
    8986.566     -6.656  -0.440  1.91813E-01  1.89032E-01  2.78123E-03
    8986.694     -6.528  -0.400  2.11508E-01  2.07698E-01  3.81028E-03
    8986.810     -6.413  -0.360  2.31788E-01  2.26944E-01  4.84476E-03
    8986.914     -6.309  -0.320  2.51937E-01  2.46136E-01  5.80110E-03
    8987.005     -6.218  -0.280  2.71177E-01  2.64575E-01  6.60180E-03
    8987.084     -6.138  -0.240  2.88784E-01  2.81588E-01  7.19560E-03
    8987.151     -6.071  -0.200  3.04183E-01  2.96614E-01  7.56964E-03
    8987.206     -6.016  -0.160  3.16992E-01  3.09244E-01  7.74800E-03
    8987.249     -5.974  -0.120  3.26999E-01  3.19221E-01  7.77707E-03
    8987.279     -5.943  -0.080  3.34113E-01  3.26405E-01  7.70796E-03
    8987.304     -5.919   0.000  3.39684E-01  3.32173E-01  7.51122E-03
    8987.359     -5.864   0.120  3.52349E-01  3.45180E-01  7.16874E-03
    8987.401     -5.821   0.160  3.62185E-01  3.55267E-01  6.91808E-03
    8987.456     -5.766   0.200  3.74621E-01  3.68127E-01  6.49324E-03
    8987.523     -5.699   0.240  3.89342E-01  3.83571E-01  5.77163E-03
    8987.602     -5.620   0.280  4.05862E-01  4.01267E-01  4.59469E-03
    8987.694     -5.529   0.320  4.23522E-01  4.20738E-01  2.78429E-03
    8987.797     -5.425   0.360  4.41534E-01  4.41352E-01  1.82294E-04
    8987.913     -5.309   0.400  4.59219E-01  4.62523E-01 -3.30338E-03
    8988.041     -5.181   0.440  4.75973E-01  4.83638E-01 -7.66521E-03
    8988.181     -5.041   0.480  4.91471E-01  5.04279E-01 -1.28077E-02
    8988.334     -4.889   0.520  5.05516E-01  5.24126E-01 -1.86100E-02
    8988.498     -4.724   0.560  5.18104E-01  5.43069E-01 -2.49653E-02
    8988.675     -4.547   0.600  5.29384E-01  5.61057E-01 -3.16734E-02
    8988.864     -4.358   0.640  5.40015E-01  5.78177E-01 -3.81616E-02
    8989.065     -4.157   0.680  5.51217E-01  5.94513E-01 -4.32955E-02
    8989.279     -3.944   0.720  5.64419E-01  6.10167E-01 -4.57482E-02
    8989.504     -3.718   0.760  5.80316E-01  6.25241E-01 -4.49254E-02
    8989.742     -3.480   0.800  5.98480E-01  6.39847E-01 -4.13667E-02
    8989.992     -3.230   0.840  6.18107E-01  6.54062E-01 -3.59549E-02
    8990.254     -2.968   0.880  6.38987E-01  6.67969E-01 -2.89828E-02
    8990.528     -2.694   0.920  6.61158E-01  6.81598E-01 -2.04392E-02
    8990.815     -2.408   0.960  6.83837E-01  6.95003E-01 -1.11663E-02
    8991.114     -2.109   1.000  7.04490E-01  7.08210E-01 -3.72037E-03
    8991.425     -1.798   1.040  7.19969E-01  7.21234E-01 -1.26519E-03
    8991.748     -1.475   1.080  7.29076E-01  7.34082E-01 -5.00564E-03
    8992.083     -1.140   1.120  7.32582E-01  7.46752E-01 -1.41699E-02
    8992.430     -0.792   1.160  7.31815E-01  7.59281E-01 -2.74661E-02
    8992.790     -0.432   1.200  7.27509E-01  7.71618E-01 -4.41091E-02
    8993.162     -0.061   1.240  7.17940E-01  7.83767E-01 -6.58276E-02
    8993.546      0.323   1.280  7.01089E-01  7.95714E-01 -9.46255E-02
    8993.942      0.720   1.320  6.78661E-01  8.07457E-01 -1.28796E-01
    8994.351      1.128   1.360  6.55375E-01  8.18954E-01 -1.63579E-01
    8994.771      1.549   1.400  6.35688E-01  8.30205E-01 -1.94517E-01
    8995.204      1.982   1.440  6.23603E-01  8.41204E-01 -2.17601E-01
    8995.649      2.427   1.480  6.22036E-01  8.51908E-01 -2.29872E-01
    8996.106      2.884   1.520  6.31539E-01  8.62311E-01 -2.30772E-01
    8996.576      3.353   1.560  6.51077E-01  8.72389E-01 -2.21312E-01
    8997.057      3.835   1.600  6.78021E-01  8.82136E-01 -2.04115E-01
    8997.551      4.329   1.640  7.08241E-01  8.91550E-01 -1.83309E-01
    8998.057      4.834   1.680  7.39992E-01  9.00586E-01 -1.60594E-01
    8998.575      5.353   1.720  7.76994E-01  9.09282E-01 -1.32288E-01
    8999.105      5.883   1.760  8.25146E-01  9.17573E-01 -9.24267E-02
    8999.648      6.426   1.800  8.86998E-01  9.25498E-01 -3.84997E-02
    9000.203      6.980   1.840  9.57064E-01  9.33037E-01  2.40267E-02
    9000.770      7.547   1.880  1.02501E+00  9.40167E-01  8.48403E-02
    9001.349      8.126   1.920  1.08254E+00  9.46930E-01  1.35611E-01
    9001.940      8.718   1.960  1.12499E+00  9.53285E-01  1.71709E-01
    9002.544      9.321   2.000  1.15224E+00  9.59235E-01  1.93006E-01
    9003.159      9.937   2.040  1.16845E+00  9.64803E-01  2.03643E-01
    9003.787     10.565   2.080  1.17871E+00  9.69990E-01  2.08722E-01
    9004.427     11.205   2.120  1.18431E+00  9.74801E-01  2.09507E-01
    9005.080     11.857   2.160  1.18186E+00  9.79242E-01  2.02619E-01
    9005.744     12.522   2.200  1.16599E+00  9.83335E-01  1.82650E-01
    9006.421     13.198   2.240  1.13714E+00  9.87066E-01  1.50070E-01
    9007.110     13.887   2.280  1.10236E+00  9.90440E-01  1.11918E-01
    9007.811     14.588   2.320  1.07240E+00  9.93504E-01  7.88926E-02
    9008.524     15.301   2.360  1.05495E+00  9.96244E-01  5.87097E-02
    9009.249     16.027   2.400  1.05014E+00  9.98666E-01  5.14773E-02
    9009.987     16.764   2.440  1.05428E+00  1.00080E+00  5.34837E-02
    9010.737     17.514   2.480  1.06522E+00  1.00267E+00  6.25518E-02
    9011.499     18.276   2.520  1.08360E+00  1.00426E+00  7.93392E-02
    9012.273     19.050   2.560  1.10988E+00  1.00561E+00  1.04276E-01
    9013.059     19.837   2.600  1.14194E+00  1.00673E+00  1.35209E-01
    9013.858     20.635   2.640  1.17058E+00  1.00762E+00  1.62955E-01
    9014.669     21.446   2.680  1.16929E+00  1.00830E+00  1.60992E-01
    9015.491     22.269   2.720  1.14156E+00  1.00879E+00  1.32771E-01
    9016.327     23.104   2.760  1.10378E+00  1.00909E+00  9.46822E-02
    9017.174     23.951   2.800  1.06615E+00  1.00924E+00  5.69110E-02
    9018.033     24.811   2.840  1.03410E+00  1.00922E+00  2.48761E-02
    9018.905     25.683   2.880  1.00970E+00  1.00908E+00  6.23346E-04
    9019.789     26.567   2.920  9.91913E-01  1.00878E+00 -1.68711E-02
    9020.685     27.463   2.960  9.78556E-01  1.00839E+00 -2.98355E-02
    9021.594     28.371   3.000  9.67475E-01  1.00791E+00 -4.04318E-02
    9022.514     29.292   3.040  9.57258E-01  1.00731E+00 -5.00553E-02
    9023.447     30.224   3.080  9.47549E-01  1.00664E+00 -5.90890E-02
    9024.392     31.169   3.120  9.38884E-01  1.00591E+00 -6.70226E-02
    9025.349     32.126   3.160  9.31692E-01  1.00510E+00 -7.34113E-02
    9026.318     33.095   3.200  9.26268E-01  1.00425E+00 -7.79860E-02
    9027.299     34.077   3.240  9.22645E-01  1.00336E+00 -8.07175E-02
    9028.293     35.071   3.280  9.20672E-01  1.00245E+00 -8.17827E-02
    9029.299     36.076   3.320  9.19992E-01  1.00149E+00 -8.14993E-02
    9030.317     37.094   3.360  9.20293E-01  1.00054E+00 -8.02456E-02
    9031.347     38.125   3.400  9.21164E-01  9.99559E-01 -7.83956E-02
    9032.390     39.167   3.440  9.22057E-01  9.98577E-01 -7.65201E-02
    9033.444     40.222   3.480  9.22590E-01  9.97595E-01 -7.50048E-02
    9034.511     41.288   3.520  9.22754E-01  9.96637E-01 -7.38832E-02
    9035.590     42.367   3.560  9.22825E-01  9.95685E-01 -7.28599E-02
    9036.681     43.459   3.600  9.23354E-01  9.94741E-01 -7.13871E-02
    9037.784     44.562   3.640  9.25086E-01  9.93828E-01 -6.87420E-02
    9038.900     45.678   3.680  9.28649E-01  9.92948E-01 -6.42986E-02
    9040.028     46.805   3.720  9.34186E-01  9.92103E-01 -5.79169E-02
    9041.168     47.945   3.760  9.41496E-01  9.91273E-01 -4.97772E-02
    9042.320     49.097   3.800  9.50099E-01  9.90480E-01 -4.03806E-02
    9043.484     50.262   3.840  9.59295E-01  9.89747E-01 -3.04515E-02
    9044.661     51.438   3.880  9.68343E-01  9.89034E-01 -2.06911E-02
    9045.849     52.627   3.920  9.76871E-01  9.88381E-01 -1.15098E-02
    9047.050     53.828   3.960  9.84676E-01  9.87750E-01 -3.07315E-03
    9048.263     55.041   4.000  9.91900E-01  9.87182E-01  4.71817E-03
    9049.489     56.266   4.040  9.98785E-01  9.86658E-01  1.21273E-02
    9050.726     57.504   4.080  1.00548E+00  9.86198E-01  1.92822E-02
    9051.976     58.753   4.120  1.01177E+00  9.85760E-01  2.60145E-02
    9053.238     60.015   4.160  1.01732E+00  9.85387E-01  3.19309E-02
    9054.512     61.289   4.200  1.02155E+00  9.85057E-01  3.64974E-02
    9055.798     62.576   4.240  1.02404E+00  9.84770E-01  3.92678E-02
    9057.096     63.874   4.280  1.02466E+00  9.84547E-01  4.01139E-02
    9058.407     65.185   4.320  1.02366E+00  9.84345E-01  3.93142E-02
    9059.730     66.507   4.360  1.02164E+00  9.84206E-01  3.74365E-02
    9061.065     67.842   4.400  1.01917E+00  9.84106E-01  3.50660E-02
    9062.412     69.190   4.440  1.01669E+00  9.84027E-01  3.26633E-02
    9063.772     70.549   4.480  1.01450E+00  9.84008E-01  3.04955E-02
    9065.143     71.921   4.520  1.01270E+00  9.84030E-01  2.86744E-02
    9066.527     73.304   4.560  1.01127E+00  9.84093E-01  2.71781E-02
    9067.923     74.700   4.600  1.01006E+00  9.84192E-01  2.58634E-02
    9069.331     76.109   4.640  1.00883E+00  9.84327E-01  2.45067E-02
    9070.751     77.529   4.680  1.00748E+00  9.84475E-01  2.30064E-02
    9072.184     78.962   4.720  1.00616E+00  9.84657E-01  2.15011E-02
    9073.629     80.406   4.760  1.00512E+00  9.84872E-01  2.02456E-02
    9075.086     81.863   4.800  1.00456E+00  9.85099E-01  1.94571E-02
    9076.555     83.332   4.840  1.00455E+00  9.85357E-01  1.91942E-02
    9078.036     84.814   4.880  1.00496E+00  9.85646E-01  1.93153E-02
    9079.530     86.307   4.920  1.00548E+00  9.85942E-01  1.95347E-02
    9081.035     87.813   4.960  1.00576E+00  9.86240E-01  1.95185E-02
    9082.553     89.331   5.000  1.00557E+00  9.86543E-01  1.90235E-02
    9084.083     90.861   5.040  1.00492E+00  9.86871E-01  1.80493E-02
    9085.626     92.403   5.080  1.00401E+00  9.87201E-01  1.68098E-02
    9087.180     93.958   5.120  1.00314E+00  9.87508E-01  1.56278E-02
    9088.747     95.524   5.160  1.00260E+00  9.87839E-01  1.47620E-02
    9090.326     97.103   5.200  1.00243E+00  9.88169E-01  1.42600E-02
    9091.917     98.694   5.240  1.00240E+00  9.88497E-01  1.39058E-02
    9093.520    100.297   5.280  1.00204E+00  9.88799E-01  1.32373E-02
    9095.135    101.913   5.320  1.00080E+00  9.89116E-01  1.16803E-02
    9096.763    103.541   5.360  9.98139E-01  9.89407E-01  8.73187E-03
    9098.403    105.180   5.400  9.93810E-01  9.89669E-01  4.14078E-03
    9100.055    106.832   5.440  9.87922E-01  9.89942E-01 -2.02008E-03
    9101.719    108.497   5.480  9.80766E-01  9.90165E-01 -9.39901E-03
    9103.395    110.173   5.520  9.72934E-01  9.90399E-01 -1.74650E-02
    9105.084    111.862   5.560  9.64981E-01  9.90578E-01 -2.55968E-02
    9106.785    113.562   5.600  9.57595E-01  9.90746E-01 -3.31510E-02
    9108.498    115.275   5.640  9.51343E-01  9.90902E-01 -3.95587E-02
    9110.223    117.000   5.680  9.46633E-01  9.91001E-01 -4.43674E-02
    9111.960    118.738   5.720  9.43801E-01  9.91088E-01 -4.72864E-02
    9113.710    120.487   5.760  9.42999E-01  9.91162E-01 -4.81631E-02
    9115.472    122.249   5.800  9.44225E-01  9.91179E-01 -4.69538E-02
    9117.245    124.023   5.840  9.47443E-01  9.91181E-01 -4.37388E-02
    9119.032    125.809   5.880  9.52360E-01  9.91148E-01 -3.87876E-02
    9120.830    127.607   5.920  9.58465E-01  9.91077E-01 -3.26127E-02
    9122.640    129.418   5.960  9.65093E-01  9.90966E-01 -2.58729E-02
    9124.463    131.241   6.000  9.71773E-01  9.90796E-01 -1.90226E-02
