# # comment:                                                     FEFF 9.9.1  
# # Source:
# # Structure
# # Reduced
# # space
# # abc:
# # angles:
# # sites:
# # POT  SCF 100  7.0000   0, screened core-hole, AFOLP (folp(0)= 1.150)
# # Abs   Z=29 Rmt= 1.235 Rnm= 1.347 K  shell
# # Pot 1 Z=29 Rmt= 1.226 Rnm= 1.362
# # Pot 2 Z= 8 Rmt= 0.996 Rnm= 1.103
# # Pot 3 Z= 9 Rmt= 0.981 Rnm= 1.120
# # Gam_ch=1.729E+00 H-L exch Vi= 0.000E+00 Vr= 0.000E+00
# # Mu=-6.430E+00eV kf=1.969E+00 Vint=-1.249E+01eV Rs_int= 1.842
# FMS rfms= 9.0000
# # PATH  Rmax=-1.000,  Keep_limit= 0.00, Heap_limit 0.00  Pwcrit= 2.50%
#  S02=0.950  Temp=   0.00  Debye_temp=   0.00  Global_sig2= 0.00000
#  Energy zero shift, vr, vi    0.00000E+00   0.00000E+00
#  Curved wave amplitude ratio filter   4.000%
#     file         sig2 tot  cw amp ratio   deg  nlegs   reff  inp sig2
#     0/   0 paths used
#  xsedge+ 50, used to normalize mu           2.3999E-04
#  -----------------------------------------------------------------------
#  omega    e    k    mu    mu0     chi     @#
    8983.344    -10.240  -1.000  3.85478E-02  5.87397E-02 -2.01919E-02
    8983.643     -9.942  -0.960  4.04045E-02  6.29967E-02 -2.25922E-02
    8983.929     -9.655  -0.920  4.23820E-02  6.77169E-02 -2.53349E-02
    8984.204     -9.381  -0.880  4.44917E-02  7.29667E-02 -2.84750E-02
    8984.466     -9.119  -0.840  4.67467E-02  7.88230E-02 -3.20763E-02
    8984.716     -8.869  -0.800  4.91618E-02  8.53748E-02 -3.62130E-02
    8984.953     -8.631  -0.760  5.17537E-02  9.27237E-02 -4.09700E-02
    8985.179     -8.406  -0.720  5.45410E-02  1.00984E-01 -4.64433E-02
    8985.392     -8.192  -0.680  5.75437E-02  1.10282E-01 -5.27385E-02
    8985.593     -7.991  -0.640  6.07822E-02  1.20749E-01 -5.99670E-02
    8985.782     -7.802  -0.600  6.42753E-02  1.32515E-01 -6.82393E-02
    8985.959     -7.625  -0.560  6.80364E-02  1.45688E-01 -7.76511E-02
    8986.124     -7.461  -0.520  7.20679E-02  1.60332E-01 -8.82636E-02
    8986.276     -7.308  -0.480  7.63535E-02  1.76429E-01 -1.00076E-01
    8986.416     -7.168  -0.440  8.08489E-02  1.93840E-01 -1.12991E-01
    8986.544     -7.040  -0.400  8.54756E-02  2.12267E-01 -1.26792E-01
    8986.660     -6.924  -0.360  9.01204E-02  2.31245E-01 -1.41125E-01
    8986.764     -6.821  -0.320  9.46446E-02  2.50169E-01 -1.55524E-01
    8986.855     -6.729  -0.280  9.89031E-02  2.68364E-01 -1.69461E-01
    8986.935     -6.650  -0.240  1.02766E-01  2.85179E-01 -1.82414E-01
    8987.002     -6.583  -0.200  1.06132E-01  3.00063E-01 -1.93931E-01
    8987.056     -6.528  -0.160  1.08937E-01  3.12606E-01 -2.03670E-01
    8987.099     -6.485  -0.120  1.11142E-01  3.22540E-01 -2.11398E-01
    8987.130     -6.455  -0.080  1.12730E-01  3.29708E-01 -2.16978E-01
    8987.154     -6.430   0.000  1.14014E-01  3.35475E-01 -2.21461E-01
    8987.209     -6.376   0.120  1.16922E-01  3.48497E-01 -2.31575E-01
    8987.252     -6.333   0.160  1.19144E-01  3.58653E-01 -2.39510E-01
    8987.306     -6.278   0.200  1.21951E-01  3.71647E-01 -2.49695E-01
    8987.373     -6.211   0.240  1.25348E-01  3.87364E-01 -2.62016E-01
    8987.453     -6.132   0.280  1.29304E-01  4.05525E-01 -2.76220E-01
    8987.544     -6.040   0.320  1.33812E-01  4.25717E-01 -2.91905E-01
    8987.648     -5.937   0.360  1.38901E-01  4.47469E-01 -3.08568E-01
    8987.764     -5.821   0.400  1.44637E-01  4.70207E-01 -3.25570E-01
    8987.892     -5.693   0.440  1.51106E-01  4.93440E-01 -3.42333E-01
    8988.032     -5.553   0.480  1.58469E-01  5.16787E-01 -3.58318E-01
    8988.184     -5.400   0.520  1.66803E-01  5.39939E-01 -3.73136E-01
    8988.349     -5.236   0.560  1.76312E-01  5.62774E-01 -3.86462E-01
    8988.526     -5.059   0.600  1.87357E-01  5.85271E-01 -3.97913E-01
    8988.715     -4.870   0.640  2.00295E-01  6.07385E-01 -4.07090E-01
    8988.916     -4.669   0.680  2.15704E-01  6.29188E-01 -4.13485E-01
    8989.129     -4.455   0.720  2.34204E-01  6.50741E-01 -4.16537E-01
    8989.355     -4.230   0.760  2.56203E-01  6.72037E-01 -4.15833E-01
    8989.592     -3.992   0.800  2.81799E-01  6.93141E-01 -4.11342E-01
    8989.842     -3.742   0.840  3.10324E-01  7.14043E-01 -4.03719E-01
    8990.104     -3.480   0.880  3.40562E-01  7.34737E-01 -3.94175E-01
    8990.379     -3.206   0.920  3.71185E-01  7.55205E-01 -3.84020E-01
    8990.665     -2.919   0.960  4.01488E-01  7.75376E-01 -3.73888E-01
    8990.964     -2.620   1.000  4.31858E-01  7.95250E-01 -3.63392E-01
    8991.275     -2.310   1.040  4.62565E-01  8.14757E-01 -3.52191E-01
    8991.598     -1.987   1.080  4.91755E-01  8.33801E-01 -3.42046E-01
    8991.933     -1.651   1.120  5.17068E-01  8.52367E-01 -3.35299E-01
    8992.281     -1.304   1.160  5.39963E-01  8.70371E-01 -3.30407E-01
    8992.640     -0.944   1.200  5.65676E-01  8.87729E-01 -3.22053E-01
    8993.012     -0.572   1.240  5.99536E-01  9.04422E-01 -3.04886E-01
    8993.396     -0.188   1.280  6.42612E-01  9.20367E-01 -2.77754E-01
    8993.793      0.208   1.320  6.91720E-01  9.35524E-01 -2.43804E-01
    8994.201      0.616   1.360  7.42876E-01  9.49856E-01 -2.06980E-01
    8994.622      1.037   1.400  7.93153E-01  9.63310E-01 -1.70157E-01
    8995.054      1.470   1.440  8.40339E-01  9.75898E-01 -1.35560E-01
    8995.499      1.915   1.480  8.83367E-01  9.87550E-01 -1.04183E-01
    8995.957      2.372   1.520  9.23644E-01  9.98307E-01 -7.46630E-02
    8996.426      2.841   1.560  9.69138E-01  1.00813E+00 -3.89906E-02
    8996.908      3.323   1.600  1.03111E+00  1.01704E+00  1.40757E-02
    8997.401      3.817   1.640  1.10788E+00  1.02505E+00  8.28364E-02
    8997.907      4.323   1.680  1.19044E+00  1.03219E+00  1.58258E-01
    8998.425      4.841   1.720  1.27633E+00  1.03845E+00  2.37882E-01
    8998.956      5.371   1.760  1.36021E+00  1.04389E+00  3.16325E-01
    8999.498      5.914   1.800  1.43020E+00  1.04855E+00  3.81652E-01
    9000.053      6.469   1.840  1.47847E+00  1.05243E+00  4.26041E-01
    9000.620      7.036   1.880  1.50845E+00  1.05561E+00  4.52843E-01
    9001.199      7.615   1.920  1.52517E+00  1.05811E+00  4.67053E-01
    9001.790      8.206   1.960  1.53168E+00  1.05999E+00  4.71693E-01
    9002.394      8.809   2.000  1.52793E+00  1.06129E+00  4.66644E-01
    9003.010      9.425   2.040  1.50274E+00  1.06202E+00  4.40718E-01
    9003.638     10.053   2.080  1.44938E+00  1.06228E+00  3.87099E-01
    9004.278     10.693   2.120  1.37498E+00  1.06210E+00  3.12883E-01
    9004.930     11.345   2.160  1.30092E+00  1.06148E+00  2.39440E-01
    9005.594     12.010   2.200  1.24533E+00  1.06050E+00  1.84830E-01
    9006.271     12.686   2.240  1.20639E+00  1.05922E+00  1.47171E-01
    9006.960     13.375   2.280  1.17484E+00  1.05762E+00  1.17221E-01
    9007.661     14.076   2.320  1.14962E+00  1.05579E+00  9.38311E-02
    9008.374     14.790   2.360  1.13049E+00  1.05374E+00  7.67533E-02
    9009.100     15.515   2.400  1.11726E+00  1.05150E+00  6.57640E-02
    9009.837     16.253   2.440  1.10601E+00  1.04911E+00  5.68952E-02
    9010.587     17.002   2.480  1.09173E+00  1.04661E+00  4.51276E-02
    9011.349     17.764   2.520  1.07329E+00  1.04401E+00  2.92803E-02
    9012.123     18.539   2.560  1.05161E+00  1.04135E+00  1.02603E-02
    9012.910     19.325   2.600  1.02829E+00  1.03863E+00 -1.03414E-02
    9013.708     20.124   2.640  1.00484E+00  1.03590E+00 -3.10609E-02
    9014.519     20.934   2.680  9.82879E-01  1.03316E+00 -5.02805E-02
    9015.342     21.757   2.720  9.63676E-01  1.03043E+00 -6.67510E-02
    9016.177     22.592   2.760  9.47725E-01  1.02773E+00 -8.00049E-02
    9017.024     23.440   2.800  9.35008E-01  1.02510E+00 -9.00907E-02
    9017.884     24.299   2.840  9.25251E-01  1.02252E+00 -9.72656E-02
    9018.756     25.171   2.880  9.17663E-01  1.01999E+00 -1.02325E-01
    9019.639     26.055   2.920  9.11351E-01  1.01756E+00 -1.06213E-01
    9020.536     26.951   2.960  9.05477E-01  1.01523E+00 -1.09751E-01
    9021.444     27.859   3.000  8.99386E-01  1.01298E+00 -1.13597E-01
    9022.364     28.780   3.040  8.92803E-01  1.01088E+00 -1.18075E-01
    9023.297     29.713   3.080  8.85940E-01  1.00887E+00 -1.22931E-01
    9024.242     30.657   3.120  8.79563E-01  1.00699E+00 -1.27422E-01
    9025.199     31.614   3.160  8.74510E-01  1.00522E+00 -1.30715E-01
    9026.168     32.584   3.200  8.71437E-01  1.00359E+00 -1.32156E-01
    9027.150     33.565   3.240  8.70962E-01  1.00211E+00 -1.31148E-01
    9028.143     34.559   3.280  8.73253E-01  1.00076E+00 -1.27506E-01
    9029.149     35.565   3.320  8.78208E-01  9.99537E-01 -1.21328E-01
    9030.167     36.583   3.360  8.85511E-01  9.98468E-01 -1.12956E-01
    9031.197     37.613   3.400  8.94763E-01  9.97531E-01 -1.02768E-01
    9032.240     38.655   3.440  9.05615E-01  9.96725E-01 -9.11097E-02
    9033.294     39.710   3.480  9.17887E-01  9.96073E-01 -7.81862E-02
    9034.361     40.777   3.520  9.31169E-01  9.95575E-01 -6.44052E-02
    9035.440     41.856   3.560  9.45083E-01  9.95184E-01 -5.01013E-02
    9036.531     42.947   3.600  9.59312E-01  9.94943E-01 -3.56310E-02
    9037.635     44.050   3.640  9.73479E-01  9.94830E-01 -2.13508E-02
    9038.750     45.166   3.680  9.87312E-01  9.94845E-01 -7.53294E-03
    9039.878     46.294   3.720  1.00075E+00  9.94984E-01  5.76821E-03
    9041.018     47.434   3.760  1.01388E+00  9.95269E-01  1.86068E-02
    9042.170     48.586   3.800  1.02653E+00  9.95653E-01  3.08759E-02
    9043.335     49.750   3.840  1.03828E+00  9.96155E-01  4.21282E-02
    9044.511     50.927   3.880  1.04851E+00  9.96751E-01  5.17571E-02
    9045.700     52.115   3.920  1.05674E+00  9.97460E-01  5.92840E-02
    9046.901     53.316   3.960  1.06275E+00  9.98261E-01  6.44925E-02
    9048.114     54.529   4.000  1.06659E+00  9.99169E-01  6.74183E-02
    9049.339     55.755   4.040  1.06844E+00  1.00014E+00  6.82966E-02
    9050.577     56.992   4.080  1.06859E+00  1.00121E+00  6.73734E-02
    9051.826     58.242   4.120  1.06731E+00  1.00234E+00  6.49668E-02
    9053.088     59.504   4.160  1.06514E+00  1.00355E+00  6.15914E-02
    9054.362     60.778   4.200  1.06271E+00  1.00482E+00  5.78850E-02
    9055.648     62.064   4.240  1.06050E+00  1.00613E+00  5.43691E-02
    9056.947     63.362   4.280  1.05880E+00  1.00749E+00  5.13106E-02
    9058.257     64.673   4.320  1.05779E+00  1.00890E+00  4.88863E-02
    9059.580     65.996   4.360  1.05769E+00  1.01034E+00  4.73487E-02
    9060.915     67.331   4.400  1.05882E+00  1.01180E+00  4.70217E-02
    9062.263     68.678   4.440  1.06126E+00  1.01326E+00  4.80050E-02
    9063.622     70.037   4.480  1.06471E+00  1.01474E+00  4.99673E-02
    9064.994     71.409   4.520  1.06833E+00  1.01623E+00  5.20950E-02
    9066.377     72.793   4.560  1.07097E+00  1.01771E+00  5.32556E-02
    9067.773     74.189   4.600  1.07150E+00  1.01917E+00  5.23318E-02
    9069.181     75.597   4.640  1.06925E+00  1.02061E+00  4.86324E-02
    9070.602     77.017   4.680  1.06419E+00  1.02205E+00  4.21433E-02
    9072.034     78.450   4.720  1.05687E+00  1.02342E+00  3.34497E-02
    9073.479     79.895   4.760  1.04825E+00  1.02477E+00  2.34816E-02
    9074.936     81.352   4.800  1.03925E+00  1.02606E+00  1.31893E-02
    9076.405     82.821   4.840  1.03061E+00  1.02732E+00  3.29272E-03
    9077.887     84.302   4.880  1.02270E+00  1.02851E+00 -5.81157E-03
    9079.380     85.796   4.920  1.01561E+00  1.02962E+00 -1.40172E-02
    9080.886     87.301   4.960  1.00927E+00  1.03068E+00 -2.14111E-02
    9082.404     88.819   5.000  1.00358E+00  1.03167E+00 -2.80884E-02
    9083.934     90.349   5.040  9.98612E-01  1.03257E+00 -3.39558E-02
    9085.476     91.891   5.080  9.94700E-01  1.03341E+00 -3.87097E-02
    9087.030     93.446   5.120  9.92135E-01  1.03415E+00 -4.20131E-02
    9088.597     95.013   5.160  9.91103E-01  1.03482E+00 -4.37191E-02
    9090.176     96.591   5.200  9.91481E-01  1.03539E+00 -4.39064E-02
    9091.767     98.183   5.240  9.93089E-01  1.03587E+00 -4.27769E-02
    9093.370     99.786   5.280  9.95724E-01  1.03626E+00 -4.05344E-02
    9094.986    101.401   5.320  9.99135E-01  1.03656E+00 -3.74293E-02
    9096.613    103.029   5.360  1.00291E+00  1.03678E+00 -3.38749E-02
    9098.253    104.669   5.400  1.00648E+00  1.03689E+00 -3.04032E-02
    9099.905    106.321   5.440  1.00940E+00  1.03691E+00 -2.75095E-02
    9101.569    107.985   5.480  1.01134E+00  1.03684E+00 -2.55010E-02
    9103.246    109.661   5.520  1.01232E+00  1.03669E+00 -2.43622E-02
    9104.934    111.350   5.560  1.01270E+00  1.03645E+00 -2.37488E-02
    9106.635    113.051   5.600  1.01290E+00  1.03613E+00 -2.32265E-02
    9108.348    114.764   5.640  1.01321E+00  1.03573E+00 -2.25218E-02
    9110.073    116.489   5.680  1.01378E+00  1.03525E+00 -2.14669E-02
    9111.811    118.226   5.720  1.01489E+00  1.03468E+00 -1.97977E-02
    9113.560    119.976   5.760  1.01694E+00  1.03407E+00 -1.71367E-02
    9115.322    121.737   5.800  1.02019E+00  1.03339E+00 -1.31966E-02
    9117.096    123.511   5.840  1.02462E+00  1.03263E+00 -8.00414E-03
    9118.882    125.297   5.880  1.02974E+00  1.03183E+00 -2.08488E-03
    9120.680    127.096   5.920  1.03457E+00  1.03099E+00  3.58177E-03
    9122.491    128.906   5.960  1.03803E+00  1.03009E+00  7.93596E-03
    9124.313    130.729   6.000  1.03947E+00  1.02914E+00  1.03297E-02
