# # comment:                                                     FEFF 9.9.1  
# # Source:
# # Structure
# # Reduced
# # space
# # abc:
# # angles:
# # sites:
# # POT  SCF 100  7.0000   0, screened core-hole, AFOLP (folp(0)= 1.150)
# # Abs   Z=29 Rmt= 1.308 Rnm= 1.371 K  shell
# # Pot 1 Z=29 Rmt= 1.308 Rnm= 1.371
# # Pot 2 Z= 1 Rmt= 0.716 Rnm= 0.829
# # Pot 3 Z= 6 Rmt= 0.753 Rnm= 0.967
# # Pot 4 Z= 8 Rmt= 0.796 Rnm= 1.008
# # Gam_ch=1.729E+00 H-L exch Vi= 0.000E+00 Vr= 0.000E+00
# # Mu=-7.648E+00eV kf=2.675E+00 Vint=-1.764E+01eV Rs_int= 1.356
# FMS rfms= 9.0000
# # PATH  Rmax=-1.000,  Keep_limit= 0.00, Heap_limit 0.00  Pwcrit= 2.50%
#  S02=0.950  Temp=   0.00  Debye_temp=   0.00  Global_sig2= 0.00000
#  Energy zero shift, vr, vi    0.00000E+00   0.00000E+00
#  Curved wave amplitude ratio filter   4.000%
#     file         sig2 tot  cw amp ratio   deg  nlegs   reff  inp sig2
#     0/   0 paths used
#  xsedge+ 50, used to normalize mu           2.4780E-04
#  -----------------------------------------------------------------------
#  omega    e    k    mu    mu0     chi     @#
    8983.369    -11.458  -1.000  4.13046E-02  5.09383E-02 -9.63373E-03
    8983.667    -11.159  -0.960  4.38412E-02  5.45635E-02 -1.07223E-02
    8983.954    -10.873  -0.920  4.66308E-02  5.85876E-02 -1.19568E-02
    8984.228    -10.599  -0.880  4.97101E-02  6.30691E-02 -1.33590E-02
    8984.490    -10.336  -0.840  5.31220E-02  6.80762E-02 -1.49542E-02
    8984.740    -10.087  -0.800  5.69165E-02  7.36881E-02 -1.67716E-02
    8984.978     -9.849  -0.760  6.11512E-02  7.99953E-02 -1.88441E-02
    8985.203     -9.623  -0.720  6.58916E-02  8.71003E-02 -2.12087E-02
    8985.417     -9.410  -0.680  7.12103E-02  9.51161E-02 -2.39058E-02
    8985.618     -9.209  -0.640  7.71843E-02  1.04162E-01 -2.69775E-02
    8985.807     -9.020  -0.600  8.38893E-02  1.14354E-01 -3.04650E-02
    8985.984     -8.843  -0.560  9.13901E-02  1.25794E-01 -3.44035E-02
    8986.148     -8.678  -0.520  9.97246E-02  1.38539E-01 -3.88141E-02
    8986.301     -8.526  -0.480  1.08882E-01  1.52576E-01 -4.36940E-02
    8986.441     -8.386  -0.440  1.18780E-01  1.67783E-01 -4.90034E-02
    8986.569     -8.258  -0.400  1.29238E-01  1.83894E-01 -5.46559E-02
    8986.685     -8.142  -0.360  1.39981E-01  2.00494E-01 -6.05138E-02
    8986.788     -8.038  -0.320  1.50648E-01  2.17044E-01 -6.63958E-02
    8986.880     -7.947  -0.280  1.60847E-01  2.32943E-01 -7.20960E-02
    8986.959     -7.868  -0.240  1.70207E-01  2.47617E-01 -7.74094E-02
    8987.026     -7.801  -0.200  1.78427E-01  2.60582E-01 -8.21552E-02
    8987.081     -7.746  -0.160  1.85297E-01  2.71486E-01 -8.61895E-02
    8987.124     -7.703  -0.120  1.90694E-01  2.80105E-01 -8.94108E-02
    8987.154     -7.673  -0.080  1.94558E-01  2.86314E-01 -9.17560E-02
    8987.179     -7.648   0.000  1.97621E-01  2.91301E-01 -9.36808E-02
    8987.233     -7.593   0.120  2.04549E-01  3.02560E-01 -9.80111E-02
    8987.276     -7.551   0.160  2.09919E-01  3.11286E-01 -1.01367E-01
    8987.331     -7.496   0.200  2.16774E-01  3.22459E-01 -1.05686E-01
    8987.398     -7.429   0.240  2.24921E-01  3.35863E-01 -1.10941E-01
    8987.477     -7.349   0.280  2.34220E-01  3.51286E-01 -1.17066E-01
    8987.569     -7.258   0.320  2.44351E-01  3.68276E-01 -1.23924E-01
    8987.672     -7.154   0.360  2.55075E-01  3.86383E-01 -1.31307E-01
    8987.788     -7.039   0.400  2.66105E-01  4.05046E-01 -1.38942E-01
    8987.916     -6.911   0.440  2.77344E-01  4.23833E-01 -1.46490E-01
    8988.056     -6.770   0.480  2.88642E-01  4.42316E-01 -1.53674E-01
    8988.209     -6.618   0.520  2.99918E-01  4.60305E-01 -1.60387E-01
    8988.373     -6.453   0.560  3.10827E-01  4.77674E-01 -1.66846E-01
    8988.550     -6.277   0.600  3.20806E-01  4.94416E-01 -1.73610E-01
    8988.739     -6.088   0.640  3.29228E-01  5.10568E-01 -1.81341E-01
    8988.940     -5.886   0.680  3.35859E-01  5.26201E-01 -1.90342E-01
    8989.154     -5.673   0.720  3.41194E-01  5.41436E-01 -2.00242E-01
    8989.379     -5.448   0.760  3.46272E-01  5.56338E-01 -2.10065E-01
    8989.617     -5.210   0.800  3.52333E-01  5.71017E-01 -2.18684E-01
    8989.867     -4.960   0.840  3.60272E-01  5.85537E-01 -2.25265E-01
    8990.129     -4.698   0.880  3.70573E-01  5.99947E-01 -2.29374E-01
    8990.403     -4.423   0.920  3.83821E-01  6.14284E-01 -2.30463E-01
    8990.690     -4.137   0.960  4.00982E-01  6.28572E-01 -2.27590E-01
    8990.988     -3.838   1.000  4.22395E-01  6.42867E-01 -2.20472E-01
    8991.299     -3.527   1.040  4.46633E-01  6.57158E-01 -2.10525E-01
    8991.622     -3.204   1.080  4.72096E-01  6.71442E-01 -1.99346E-01
    8991.958     -2.869   1.120  4.98774E-01  6.85713E-01 -1.86939E-01
    8992.305     -2.521   1.160  5.27001E-01  6.99979E-01 -1.72978E-01
    8992.665     -2.162   1.200  5.56027E-01  7.14223E-01 -1.58196E-01
    8993.037     -1.790   1.240  5.86144E-01  7.28426E-01 -1.42282E-01
    8993.421     -1.406   1.280  6.18646E-01  7.42544E-01 -1.23898E-01
    8993.817     -1.010   1.320  6.50872E-01  7.56590E-01 -1.05718E-01
    8994.225     -0.601   1.360  6.77657E-01  7.70497E-01 -9.28393E-02
    8994.646     -0.181   1.400  6.98549E-01  7.84256E-01 -8.57073E-02
    8995.079      0.252   1.440  7.17476E-01  7.97855E-01 -8.03800E-02
    8995.524      0.697   1.480  7.39138E-01  8.11224E-01 -7.20858E-02
    8995.981      1.154   1.520  7.65790E-01  8.24371E-01 -5.85808E-02
    8996.450      1.624   1.560  7.93974E-01  8.37242E-01 -4.32682E-02
    8996.932      2.105   1.600  8.17075E-01  8.49826E-01 -3.27509E-02
    8997.426      2.599   1.640  8.31563E-01  8.62071E-01 -3.05074E-02
    8997.932      3.105   1.680  8.40890E-01  8.73984E-01 -3.30933E-02
    8998.450      3.623   1.720  8.52715E-01  8.85515E-01 -3.28001E-02
    8998.980      4.154   1.760  8.74073E-01  8.96634E-01 -2.25615E-02
    8999.523      4.696   1.800  9.06517E-01  9.07350E-01 -8.32381E-04
    9000.078      5.251   1.840  9.42905E-01  9.17615E-01  2.52904E-02
    9000.645      5.818   1.880  9.75097E-01  9.27442E-01  4.76553E-02
    9001.224      6.397   1.920  1.00481E+00  9.36784E-01  6.80219E-02
    9001.815      6.988   1.960  1.04190E+00  9.45636E-01  9.62595E-02
    9002.418      7.592   2.000  1.09320E+00  9.54013E-01  1.39188E-01
    9003.034      8.207   2.040  1.15609E+00  9.61873E-01  1.94220E-01
    9003.662      8.835   2.080  1.22251E+00  9.69257E-01  2.53257E-01
    9004.302      9.475   2.120  1.28210E+00  9.76121E-01  3.05975E-01
    9004.954     10.128   2.160  1.32431E+00  9.82487E-01  3.41820E-01
    9005.619     10.792   2.200  1.34488E+00  9.88358E-01  3.56522E-01
    9006.295     11.469   2.240  1.34567E+00  9.93738E-01  3.51930E-01
    9006.984     12.158   2.280  1.32652E+00  9.98629E-01  3.27893E-01
    9007.685     12.859   2.320  1.28567E+00  1.00306E+00  2.82611E-01
    9008.399     13.572   2.360  1.23005E+00  1.00701E+00  2.23040E-01
    9009.124     14.297   2.400  1.17549E+00  1.01051E+00  1.64979E-01
    9009.862     15.035   2.440  1.13551E+00  1.01359E+00  1.21917E-01
    9010.611     15.785   2.480  1.11373E+00  1.01624E+00  9.74924E-02
    9011.373     16.547   2.520  1.10585E+00  1.01850E+00  8.73503E-02
    9012.148     17.321   2.560  1.10086E+00  1.02037E+00  8.04903E-02
    9012.934     18.107   2.600  1.08524E+00  1.02189E+00  6.33540E-02
    9013.733     18.906   2.640  1.05641E+00  1.02303E+00  3.33821E-02
    9014.543     19.717   2.680  1.02275E+00  1.02387E+00 -1.12337E-03
    9015.366     20.540   2.720  9.92006E-01  1.02442E+00 -3.24116E-02
    9016.201     21.375   2.760  9.67096E-01  1.02468E+00 -5.75832E-02
    9017.049     22.222   2.800  9.47207E-01  1.02467E+00 -7.74596E-02
    9017.908     23.082   2.840  9.32508E-01  1.02443E+00 -9.19233E-02
    9018.780     23.953   2.880  9.25303E-01  1.02396E+00 -9.86596E-02
    9019.664     24.837   2.920  9.23221E-01  1.02329E+00 -1.00069E-01
    9020.560     25.733   2.960  9.18132E-01  1.02244E+00 -1.04312E-01
    9021.468     26.642   3.000  9.06259E-01  1.02142E+00 -1.15157E-01
    9022.389     27.562   3.040  8.93817E-01  1.02028E+00 -1.26458E-01
    9023.322     28.495   3.080  8.89567E-01  1.01899E+00 -1.29423E-01
    9024.266     29.440   3.120  8.91558E-01  1.01761E+00 -1.26050E-01
    9025.223     30.397   3.160  8.96401E-01  1.01614E+00 -1.19740E-01
    9026.193     31.366   3.200  9.02471E-01  1.01457E+00 -1.12104E-01
    9027.174     32.348   3.240  9.09410E-01  1.01298E+00 -1.03569E-01
    9028.168     33.341   3.280  9.17146E-01  1.01132E+00 -9.41731E-02
    9029.174     34.347   3.320  9.25590E-01  1.00964E+00 -8.40522E-02
    9030.192     35.365   3.360  9.34324E-01  1.00793E+00 -7.36100E-02
    9031.222     36.395   3.400  9.43089E-01  1.00622E+00 -6.31353E-02
    9032.264     37.438   3.440  9.51757E-01  1.00454E+00 -5.27811E-02
    9033.319     38.492   3.480  9.60276E-01  1.00286E+00 -4.25821E-02
    9034.386     39.559   3.520  9.68755E-01  1.00119E+00 -3.24351E-02
    9035.465     40.638   3.560  9.77296E-01  9.99581E-01 -2.22844E-02
    9036.556     41.729   3.600  9.85815E-01  9.98013E-01 -1.21983E-02
    9037.659     42.833   3.640  9.94136E-01  9.96489E-01 -2.35302E-03
    9038.775     43.948   3.680  1.00201E+00  9.95013E-01  6.99905E-03
    9039.903     45.076   3.720  1.00920E+00  9.93611E-01  1.55864E-02
    9041.043     46.216   3.760  1.01549E+00  9.92283E-01  2.32064E-02
    9042.195     47.368   3.800  1.02074E+00  9.91034E-01  2.97087E-02
    9043.359     48.532   3.840  1.02484E+00  9.89865E-01  3.49753E-02
    9044.536     49.709   3.880  1.02789E+00  9.88779E-01  3.91131E-02
    9045.724     50.898   3.920  1.03017E+00  9.87795E-01  4.23788E-02
    9046.925     52.098   3.960  1.03193E+00  9.86876E-01  4.50546E-02
    9048.138     53.312   4.000  1.03345E+00  9.86061E-01  4.73856E-02
    9049.364     54.537   4.040  1.03484E+00  9.85331E-01  4.95073E-02
    9050.601     55.774   4.080  1.03605E+00  9.84687E-01  5.13635E-02
    9051.851     57.024   4.120  1.03693E+00  9.84149E-01  5.27760E-02
    9053.113     58.286   4.160  1.03730E+00  9.83698E-01  5.35990E-02
    9054.387     59.560   4.200  1.03700E+00  9.83331E-01  5.36663E-02
    9055.673     60.846   4.240  1.03588E+00  9.83070E-01  5.28117E-02
    9056.971     62.145   4.280  1.03375E+00  9.82872E-01  5.08826E-02
    9058.282     63.455   4.320  1.03054E+00  9.82778E-01  4.77631E-02
    9059.605     64.778   4.360  1.02620E+00  9.82769E-01  4.34289E-02
    9060.940     66.113   4.400  1.02089E+00  9.82861E-01  3.80290E-02
    9062.287     67.460   4.440  1.01484E+00  9.83012E-01  3.18300E-02
    9063.646     68.820   4.480  1.00832E+00  9.83238E-01  2.50795E-02
    9065.018     70.191   4.520  1.00149E+00  9.83518E-01  1.79745E-02
    9066.402     71.575   4.560  9.94545E-01  9.83895E-01  1.06495E-02
    9067.798     72.971   4.600  9.87527E-01  9.84321E-01  3.20584E-03
    9069.206     74.379   4.640  9.80588E-01  9.84795E-01 -4.20671E-03
    9070.626     75.800   4.680  9.73978E-01  9.85336E-01 -1.13579E-02
    9072.059     77.232   4.720  9.67957E-01  9.85922E-01 -1.79641E-02
    9073.504     78.677   4.760  9.62847E-01  9.86549E-01 -2.37013E-02
    9074.961     80.134   4.800  9.58944E-01  9.87213E-01 -2.82692E-02
    9076.430     81.603   4.840  9.56460E-01  9.87912E-01 -3.14525E-02
    9077.911     83.084   4.880  9.55496E-01  9.88622E-01 -3.31261E-02
    9079.405     84.578   4.920  9.56044E-01  9.89362E-01 -3.33186E-02
    9080.910     86.084   4.960  9.57889E-01  9.90108E-01 -3.22194E-02
    9082.428     87.601   5.000  9.60693E-01  9.90855E-01 -3.01623E-02
    9083.958     89.132   5.040  9.64004E-01  9.91604E-01 -2.76000E-02
    9085.500     90.674   5.080  9.67442E-01  9.92373E-01 -2.49310E-02
    9087.055     92.228   5.120  9.70701E-01  9.93114E-01 -2.24132E-02
    9088.622     93.795   5.160  9.73698E-01  9.93824E-01 -2.01265E-02
    9090.200     95.374   5.200  9.76517E-01  9.94526E-01 -1.80089E-02
    9091.792     96.965   5.240  9.79262E-01  9.95215E-01 -1.59532E-02
    9093.395     98.568   5.280  9.81984E-01  9.95846E-01 -1.38620E-02
    9095.010    100.184   5.320  9.84705E-01  9.96459E-01 -1.17536E-02
    9096.638    101.811   5.360  9.87256E-01  9.97031E-01 -9.77521E-03
    9098.278    103.451   5.400  9.89395E-01  9.97539E-01 -8.14406E-03
    9099.930    105.103   5.440  9.91008E-01  9.98024E-01 -7.01646E-03
    9101.594    106.767   5.480  9.92062E-01  9.98440E-01 -6.37737E-03
    9103.270    108.444   5.520  9.92782E-01  9.98784E-01 -6.00258E-03
    9104.959    110.132   5.560  9.93569E-01  9.99081E-01 -5.51220E-03
    9106.660    111.833   5.600  9.94831E-01  9.99329E-01 -4.49798E-03
    9108.373    113.546   5.640  9.96837E-01  9.99505E-01 -2.66808E-03
    9110.098    115.271   5.680  9.99677E-01  9.99629E-01  4.80680E-05
    9111.835    117.008   5.720  1.00312E+00  9.99655E-01  3.46234E-03
    9113.585    118.758   5.760  1.00679E+00  9.99631E-01  7.15580E-03
    9115.346    120.520   5.800  1.01013E+00  9.99557E-01  1.05729E-02
    9117.120    122.294   5.840  1.01258E+00  9.99410E-01  1.31681E-02
    9118.906    124.080   5.880  1.01374E+00  9.99189E-01  1.45474E-02
    9120.705    125.878   5.920  1.01344E+00  9.98895E-01  1.45480E-02
    9122.515    127.689   5.960  1.01178E+00  9.98547E-01  1.32374E-02
    9124.338    129.511   6.000  1.00891E+00  9.98080E-01  1.08323E-02
