# # comment:                                                     FEFF 9.9.1  
# # Source:
# # Structure
# # Reduced
# # space
# # abc:
# # angles:
# # sites:
# # POT  SCF 100  7.0000   0, screened core-hole, AFOLP (folp(0)= 1.150)
# # Abs   Z=29 Rmt= 1.388 Rnm= 1.443 K  shell
# # Pot 1 Z=29 Rmt= 1.387 Rnm= 1.442
# # Pot 2 Z= 6 Rmt= 0.817 Rnm= 1.000
# # Pot 3 Z= 8 Rmt= 0.680 Rnm= 0.996
# # Gam_ch=1.729E+00 H-L exch Vi= 0.000E+00 Vr= 0.000E+00
# # Mu=-7.943E+00eV kf=2.004E+00 Vint=-1.513E+01eV Rs_int= 1.809
# FMS rfms= 9.0000
# # PATH  Rmax=-1.000,  Keep_limit= 0.00, Heap_limit 0.00  Pwcrit= 2.50%
#  S02=0.950  Temp=   0.00  Debye_temp=   0.00  Global_sig2= 0.00000
#  Energy zero shift, vr, vi    0.00000E+00   0.00000E+00
#  Curved wave amplitude ratio filter   4.000%
#     file         sig2 tot  cw amp ratio   deg  nlegs   reff  inp sig2
#     0/   0 paths used
#  xsedge+ 50, used to normalize mu           2.4530E-04
#  -----------------------------------------------------------------------
#  omega    e    k    mu    mu0     chi     @#
    8984.332    -11.753  -1.000  4.94261E-02  5.77935E-02 -8.36739E-03
    8984.631    -11.454  -0.960  5.28550E-02  6.20956E-02 -9.24065E-03
    8984.917    -11.168  -0.920  5.66557E-02  6.68813E-02 -1.02256E-02
    8985.191    -10.893  -0.880  6.08828E-02  7.22216E-02 -1.13388E-02
    8985.453    -10.631  -0.840  6.55996E-02  7.81994E-02 -1.25997E-02
    8985.703    -10.381  -0.800  7.08797E-02  8.49104E-02 -1.40307E-02
    8985.941    -10.144  -0.760  7.68074E-02  9.24647E-02 -1.56574E-02
    8986.167     -9.918  -0.720  8.34779E-02  1.00986E-01 -1.75085E-02
    8986.380     -9.705  -0.680  9.09961E-02  1.10612E-01 -1.96158E-02
    8986.581     -9.504  -0.640  9.94728E-02  1.21485E-01 -2.20126E-02
    8986.770     -9.315  -0.600  1.09017E-01  1.33748E-01 -2.47317E-02
    8986.947     -9.138  -0.560  1.19720E-01  1.47521E-01 -2.78011E-02
    8987.112     -8.973  -0.520  1.31637E-01  1.62875E-01 -3.12380E-02
    8987.264     -8.821  -0.480  1.44755E-01  1.79795E-01 -3.50395E-02
    8987.404     -8.681  -0.440  1.58959E-01  1.98132E-01 -3.91730E-02
    8987.532     -8.553  -0.400  1.74001E-01  2.17568E-01 -4.35676E-02
    8987.648     -8.437  -0.360  1.89493E-01  2.37603E-01 -4.81105E-02
    8987.752     -8.333  -0.320  2.04932E-01  2.57586E-01 -5.26544E-02
    8987.843     -8.242  -0.280  2.19761E-01  2.76795E-01 -5.70342E-02
    8987.922     -8.162  -0.240  2.33444E-01  2.94533E-01 -6.10891E-02
    8987.989     -8.095  -0.200  2.45534E-01  3.10217E-01 -6.46822E-02
    8988.044     -8.040  -0.160  2.55705E-01  3.23415E-01 -6.77107E-02
    8988.087     -7.998  -0.120  2.63746E-01  3.33854E-01 -7.01075E-02
    8988.117     -7.967  -0.080  2.69542E-01  3.41377E-01 -7.18343E-02
    8988.142     -7.943   0.000  2.74203E-01  3.47422E-01 -7.32190E-02
    8988.197     -7.888   0.120  2.84723E-01  3.61053E-01 -7.63301E-02
    8988.239     -7.845   0.160  2.92884E-01  3.71658E-01 -7.87733E-02
    8988.294     -7.791   0.200  3.03312E-01  3.85223E-01 -8.19103E-02
    8988.361     -7.724   0.240  3.15830E-01  4.01536E-01 -8.57055E-02
    8988.440     -7.644   0.280  3.30194E-01  4.20287E-01 -9.00930E-02
    8988.532     -7.553   0.320  3.46079E-01  4.41039E-01 -9.49595E-02
    8988.636     -7.449   0.360  3.63019E-01  4.63179E-01 -1.00160E-01
    8988.751     -7.333   0.400  3.80550E-01  4.86074E-01 -1.05525E-01
    8988.879     -7.205   0.440  3.98297E-01  5.09164E-01 -1.10867E-01
    8989.020     -7.065   0.480  4.15969E-01  5.31990E-01 -1.16021E-01
    8989.172     -6.913   0.520  4.33394E-01  5.54231E-01 -1.20837E-01
    8989.337     -6.748   0.560  4.50546E-01  5.75750E-01 -1.25205E-01
    8989.513     -6.571   0.600  4.67447E-01  5.96505E-01 -1.29058E-01
    8989.702     -6.382   0.640  4.84098E-01  6.16484E-01 -1.32386E-01
    8989.904     -6.181   0.680  5.00519E-01  6.35774E-01 -1.35255E-01
    8990.117     -5.968   0.720  5.16634E-01  6.54437E-01 -1.37803E-01
    8990.342     -5.742   0.760  5.32267E-01  6.72531E-01 -1.40263E-01
    8990.580     -5.505   0.800  5.47128E-01  6.90124E-01 -1.42996E-01
    8990.830     -5.255   0.840  5.60750E-01  7.07272E-01 -1.46522E-01
    8991.092     -4.993   0.880  5.72458E-01  7.23953E-01 -1.51495E-01
    8991.367     -4.718   0.920  5.81680E-01  7.40235E-01 -1.58555E-01
    8991.653     -4.432   0.960  5.88022E-01  7.56071E-01 -1.68049E-01
    8991.952     -4.133   1.000  5.91705E-01  7.71486E-01 -1.79781E-01
    8992.263     -3.822   1.040  5.93559E-01  7.86435E-01 -1.92877E-01
    8992.586     -3.499   1.080  5.95067E-01  8.00931E-01 -2.05863E-01
    8992.921     -3.164   1.120  5.98027E-01  8.14937E-01 -2.16910E-01
    8993.269     -2.816   1.160  6.04290E-01  8.28436E-01 -2.24146E-01
    8993.628     -2.457   1.200  6.15265E-01  8.41387E-01 -2.26121E-01
    8994.000     -2.085   1.240  6.31456E-01  8.53768E-01 -2.22312E-01
    8994.384     -1.701   1.280  6.52225E-01  8.65580E-01 -2.13354E-01
    8994.780     -1.304   1.320  6.76201E-01  8.76801E-01 -2.00600E-01
    8995.189     -0.896   1.360  7.01944E-01  8.87391E-01 -1.85447E-01
    8995.609     -0.475   1.400  7.28272E-01  8.97392E-01 -1.69119E-01
    8996.042     -0.043   1.440  7.54149E-01  9.06744E-01 -1.52596E-01
    8996.487      0.402   1.480  7.79300E-01  9.15493E-01 -1.36193E-01
    8996.944      0.860   1.520  8.04606E-01  9.23625E-01 -1.19019E-01
    8997.414      1.329   1.560  8.32136E-01  9.31146E-01 -9.90107E-02
    8997.895      1.811   1.600  8.64289E-01  9.38065E-01 -7.37764E-02
    8998.389      2.304   1.640  9.02696E-01  9.44413E-01 -4.17172E-02
    8998.895      2.810   1.680  9.47244E-01  9.50200E-01 -2.95612E-03
    8999.413      3.328   1.720  9.95660E-01  9.55461E-01  4.01990E-02
    8999.944      3.859   1.760  1.04361E+00  9.60188E-01  8.34243E-02
    9000.486      4.401   1.800  1.08583E+00  9.64434E-01  1.21392E-01
    9001.041      4.956   1.840  1.11732E+00  9.68214E-01  1.49110E-01
    9001.608      5.523   1.880  1.13475E+00  9.71544E-01  1.63207E-01
    9002.187      6.102   1.920  1.13796E+00  9.74500E-01  1.63464E-01
    9002.778      6.693   1.960  1.12945E+00  9.77057E-01  1.52391E-01
    9003.382      7.297   2.000  1.11168E+00  9.79269E-01  1.32408E-01
    9003.997      7.913   2.040  1.08695E+00  9.81154E-01  1.05799E-01
    9004.625      8.541   2.080  1.05956E+00  9.82763E-01  7.67932E-02
    9005.265      9.181   2.120  1.03507E+00  9.84092E-01  5.09752E-02
    9005.918      9.833   2.160  1.01735E+00  9.85175E-01  3.21706E-02
    9006.582     10.497   2.200  1.00995E+00  9.86066E-01  2.38878E-02
    9007.259     11.174   2.240  1.01364E+00  9.86757E-01  2.68840E-02
    9007.948     11.863   2.280  1.02578E+00  9.87281E-01  3.84948E-02
    9008.649     12.564   2.320  1.04162E+00  9.87669E-01  5.39545E-02
    9009.362     13.277   2.360  1.05644E+00  9.87930E-01  6.85096E-02
    9010.087     14.003   2.400  1.06722E+00  9.88076E-01  7.91417E-02
    9010.825     14.740   2.440  1.06731E+00  9.88157E-01  7.91510E-02
    9011.575     15.490   2.480  1.06179E+00  9.88161E-01  7.36267E-02
    9012.337     16.252   2.520  1.05195E+00  9.88114E-01  6.38362E-02
    9013.111     17.026   2.560  1.03871E+00  9.88026E-01  5.06792E-02
    9013.897     17.813   2.600  1.02282E+00  9.87902E-01  3.49231E-02
    9014.696     18.611   2.640  1.00567E+00  9.87767E-01  1.79044E-02
    9015.507     19.422   2.680  9.88782E-01  9.87629E-01  1.15269E-03
    9016.330     20.245   2.720  9.73557E-01  9.87493E-01 -1.39365E-02
    9017.165     21.080   2.760  9.61481E-01  9.87383E-01 -2.59018E-02
    9018.012     21.927   2.800  9.52987E-01  9.87282E-01 -3.42951E-02
    9018.872     22.787   2.840  9.48102E-01  9.87213E-01 -3.91111E-02
    9019.743     23.659   2.880  9.46469E-01  9.87181E-01 -4.07123E-02
    9020.627     24.542   2.920  9.47374E-01  9.87189E-01 -3.98158E-02
    9021.523     25.439   2.960  9.50221E-01  9.87238E-01 -3.70165E-02
    9022.432     26.347   3.000  9.54513E-01  9.87327E-01 -3.28148E-02
    9023.352     27.267   3.040  9.59959E-01  9.87481E-01 -2.75224E-02
    9024.285     28.200   3.080  9.66316E-01  9.87679E-01 -2.13628E-02
    9025.230     29.145   3.120  9.73468E-01  9.87920E-01 -1.44519E-02
    9026.187     30.102   3.160  9.81453E-01  9.88205E-01 -6.75180E-03
    9027.156     31.071   3.200  9.90268E-01  9.88534E-01  1.73450E-03
    9028.137     32.053   3.240  9.99731E-01  9.88926E-01  1.08050E-02
    9029.131     33.046   3.280  1.00958E+00  9.89364E-01  2.02190E-02
    9030.137     34.052   3.320  1.01930E+00  9.89846E-01  2.94588E-02
    9031.155     35.070   3.360  1.02817E+00  9.90390E-01  3.77833E-02
    9032.185     36.100   3.400  1.03520E+00  9.90953E-01  4.42454E-02
    9033.228     37.143   3.440  1.03943E+00  9.91555E-01  4.78722E-02
    9034.282     38.197   3.480  1.04016E+00  9.92216E-01  4.79461E-02
    9035.349     39.264   3.520  1.03702E+00  9.92893E-01  4.41313E-02
    9036.428     40.343   3.560  1.03014E+00  9.93604E-01  3.65316E-02
    9037.519     41.434   3.600  1.01993E+00  9.94349E-01  2.55840E-02
    9038.623     42.538   3.640  1.00729E+00  9.95103E-01  1.21886E-02
    9039.738     43.653   3.680  9.93278E-01  9.95886E-01 -2.60767E-03
    9040.866     44.781   3.720  9.78937E-01  9.96675E-01 -1.77375E-02
    9042.006     45.921   3.760  9.65277E-01  9.97468E-01 -3.21902E-02
    9043.158     47.073   3.800  9.53242E-01  9.98282E-01 -4.50395E-02
    9044.322     48.238   3.840  9.43584E-01  9.99075E-01 -5.54905E-02
    9045.499     49.414   3.880  9.36876E-01  9.99887E-01 -6.30116E-02
    9046.688     50.603   3.920  9.33356E-01  1.00067E+00 -6.73187E-02
    9047.888     51.804   3.960  9.32966E-01  1.00146E+00 -6.84896E-02
    9049.102     53.017   4.000  9.35213E-01  1.00223E+00 -6.70168E-02
    9050.327     54.242   4.040  9.39293E-01  1.00299E+00 -6.37011E-02
    9051.564     55.480   4.080  9.44309E-01  1.00370E+00 -5.93947E-02
    9052.814     56.729   4.120  9.49755E-01  1.00442E+00 -5.46664E-02
    9054.076     57.991   4.160  9.55316E-01  1.00508E+00 -4.97659E-02
    9055.350     59.265   4.200  9.61074E-01  1.00572E+00 -4.46509E-02
    9056.636     60.551   4.240  9.67206E-01  1.00633E+00 -3.91238E-02
    9057.935     61.850   4.280  9.73895E-01  1.00689E+00 -3.29988E-02
    9059.245     63.160   4.320  9.81162E-01  1.00741E+00 -2.62514E-02
    9060.568     64.483   4.360  9.88731E-01  1.00789E+00 -1.91608E-02
    9061.903     65.818   4.400  9.96101E-01  1.00830E+00 -1.22038E-02
    9063.250     67.166   4.440  1.00291E+00  1.00870E+00 -5.78953E-03
    9064.610     68.525   4.480  1.00899E+00  1.00904E+00 -5.14451E-05
    9065.981     69.897   4.520  1.01454E+00  1.00932E+00  5.22044E-03
    9067.365     71.280   4.560  1.02001E+00  1.00958E+00  1.04307E-02
    9068.761     72.676   4.600  1.02574E+00  1.00977E+00  1.59642E-02
    9070.169     74.084   4.640  1.03200E+00  1.00992E+00  2.20826E-02
    9071.590     75.505   4.680  1.03883E+00  1.00999E+00  2.88403E-02
    9073.022     76.937   4.720  1.04620E+00  1.01004E+00  3.61563E-02
    9074.467     78.382   4.760  1.05400E+00  1.01003E+00  4.39659E-02
    9075.924     79.839   4.800  1.06240E+00  1.01000E+00  5.24031E-02
    9077.393     81.308   4.840  1.07176E+00  1.00990E+00  6.18577E-02
    9078.874     82.790   4.880  1.08250E+00  1.00975E+00  7.27480E-02
    9080.368     84.283   4.920  1.09459E+00  1.00957E+00  8.50216E-02
    9081.873     85.789   4.960  1.10697E+00  1.00934E+00  9.76318E-02
    9083.391     87.307   5.000  1.11738E+00  1.00910E+00  1.08278E-01
    9084.921     88.837   5.040  1.12250E+00  1.00879E+00  1.13708E-01
    9086.464     90.379   5.080  1.11941E+00  1.00847E+00  1.10931E-01
    9088.018     91.933   5.120  1.10690E+00  1.00812E+00  9.87808E-02
    9089.585     93.500   5.160  1.08645E+00  1.00772E+00  7.87282E-02
    9091.164     95.079   5.200  1.06151E+00  1.00729E+00  5.42204E-02
    9092.755     96.670   5.240  1.03591E+00  1.00685E+00  2.90591E-02
    9094.358     98.273   5.280  1.01236E+00  1.00640E+00  5.95666E-03
    9095.973     99.889   5.320  9.91842E-01  1.00592E+00 -1.40802E-02
    9097.601    101.516   5.360  9.73728E-01  1.00543E+00 -3.17057E-02
    9099.241    103.156   5.400  9.56386E-01  1.00492E+00 -4.85308E-02
    9100.893    104.808   5.440  9.38429E-01  1.00439E+00 -6.59646E-02
    9102.557    106.472   5.480  9.19573E-01  1.00387E+00 -8.42951E-02
    9104.234    108.149   5.520  9.00786E-01  1.00334E+00 -1.02555E-01
    9105.922    109.837   5.560  8.83849E-01  1.00281E+00 -1.18964E-01
    9107.623    111.538   5.600  8.70649E-01  1.00229E+00 -1.31636E-01
    9109.336    113.251   5.640  8.62526E-01  1.00176E+00 -1.39233E-01
    9111.061    114.976   5.680  8.59955E-01  1.00123E+00 -1.41278E-01
    9112.798    116.714   5.720  8.62786E-01  1.00071E+00 -1.37923E-01
    9114.548    118.463   5.760  8.70706E-01  1.00019E+00 -1.29484E-01
    9116.310    120.225   5.800  8.83474E-01  9.99698E-01 -1.16223E-01
    9118.084    121.999   5.840  9.00569E-01  9.99215E-01 -9.86458E-02
    9119.870    123.785   5.880  9.21117E-01  9.98739E-01 -7.76225E-02
    9121.668    125.583   5.920  9.44185E-01  9.98275E-01 -5.40900E-02
    9123.479    127.394   5.960  9.68902E-01  9.97858E-01 -2.89564E-02
    9125.301    129.216   6.000  9.94507E-01  9.97460E-01 -2.95299E-03
