# # comment:                                                     FEFF 9.9.1  
# # Source:
# # Structure
# # Reduced
# # space
# # abc:
# # angles:
# # sites:
# # POT  SCF 100  7.0000   0, screened core-hole, AFOLP (folp(0)= 1.150)
# # Abs   Z=29 Rmt= 1.238 Rnm= 1.342 K  shell
# # Pot 1 Z=29 Rmt= 1.224 Rnm= 1.330
# # Pot 2 Z=80 Rmt= 1.569 Rnm= 1.697
# # Pot 3 Z=52 Rmt= 1.282 Rnm= 1.512
# # Pot 4 Z= 8 Rmt= 0.983 Rnm= 1.097
# # Gam_ch=1.729E+00 H-L exch Vi= 0.000E+00 Vr= 0.000E+00
# # Mu=-5.087E+00eV kf=2.127E+00 Vint=-1.442E+01eV Rs_int= 1.705
# FMS rfms= 9.0000
# # PATH  Rmax=-1.000,  Keep_limit= 0.00, Heap_limit 0.00  Pwcrit= 2.50%
#  S02=0.950  Temp=   0.00  Debye_temp=   0.00  Global_sig2= 0.00000
#  Energy zero shift, vr, vi    0.00000E+00   0.00000E+00
#  Curved wave amplitude ratio filter   4.000%
#     file         sig2 tot  cw amp ratio   deg  nlegs   reff  inp sig2
#     0/   0 paths used
#  xsedge+ 50, used to normalize mu           2.4411E-04
#  -----------------------------------------------------------------------
#  omega    e    k    mu    mu0     chi     @#
    8983.268     -8.897  -1.000  4.35208E-02  5.74131E-02 -1.38923E-02
    8983.567     -8.598  -0.960  4.63328E-02  6.16861E-02 -1.53533E-02
    8983.853     -8.312  -0.920  4.94588E-02  6.64426E-02 -1.69838E-02
    8984.127     -8.037  -0.880  5.29506E-02  7.17544E-02 -1.88038E-02
    8984.390     -7.775  -0.840  5.68701E-02  7.77052E-02 -2.08351E-02
    8984.639     -7.525  -0.800  6.12904E-02  8.43920E-02 -2.31016E-02
    8984.877     -7.287  -0.760  6.62975E-02  9.19263E-02 -2.56288E-02
    8985.103     -7.062  -0.720  7.19906E-02  1.00434E-01 -2.84435E-02
    8985.316     -6.848  -0.680  7.84814E-02  1.10054E-01 -3.15729E-02
    8985.517     -6.647  -0.640  8.58904E-02  1.20934E-01 -3.50432E-02
    8985.706     -6.458  -0.600  9.43389E-02  1.33216E-01 -3.88772E-02
    8985.883     -6.282  -0.560  1.03934E-01  1.47025E-01 -4.30917E-02
    8986.048     -6.117  -0.520  1.14743E-01  1.62435E-01 -4.76923E-02
    8986.200     -5.965  -0.480  1.26762E-01  1.79431E-01 -5.26683E-02
    8986.340     -5.824  -0.440  1.39875E-01  1.97862E-01 -5.79864E-02
    8986.468     -5.696  -0.400  1.53822E-01  2.17406E-01 -6.35845E-02
    8986.584     -5.581  -0.360  1.68188E-01  2.37556E-01 -6.93677E-02
    8986.688     -5.477  -0.320  1.82444E-01  2.57652E-01 -7.52082E-02
    8986.779     -5.385  -0.280  1.96012E-01  2.76962E-01 -8.09500E-02
    8986.858     -5.306  -0.240  2.08365E-01  2.94784E-01 -8.64184E-02
    8986.925     -5.239  -0.200  2.19097E-01  3.10528E-01 -9.14314E-02
    8986.980     -5.184  -0.160  2.27953E-01  3.23767E-01 -9.58138E-02
    8987.023     -5.142  -0.120  2.34819E-01  3.34229E-01 -9.94093E-02
    8987.053     -5.111  -0.080  2.39671E-01  3.41763E-01 -1.02091E-01
    8987.078     -5.087   0.000  2.43464E-01  3.47813E-01 -1.04350E-01
    8987.133     -5.032   0.120  2.51912E-01  3.61456E-01 -1.09544E-01
    8987.175     -4.989   0.160  2.58363E-01  3.72053E-01 -1.13690E-01
    8987.230     -4.934   0.200  2.66356E-01  3.85562E-01 -1.19206E-01
    8987.297     -4.867   0.240  2.75584E-01  4.01812E-01 -1.26229E-01
    8987.377     -4.788   0.280  2.85520E-01  4.20425E-01 -1.34905E-01
    8987.468     -4.697   0.320  2.95629E-01  4.40954E-01 -1.45325E-01
    8987.572     -4.593   0.360  3.05223E-01  4.62732E-01 -1.57509E-01
    8987.687     -4.477   0.400  3.13822E-01  4.85133E-01 -1.71310E-01
    8987.815     -4.349   0.440  3.21175E-01  5.07568E-01 -1.86393E-01
    8987.956     -4.209   0.480  3.27293E-01  5.29543E-01 -2.02250E-01
    8988.108     -4.057   0.520  3.32481E-01  5.50786E-01 -2.18306E-01
    8988.273     -3.892   0.560  3.36887E-01  5.71123E-01 -2.34236E-01
    8988.449     -3.715   0.600  3.40241E-01  5.90539E-01 -2.50298E-01
    8988.638     -3.526   0.640  3.41561E-01  6.09075E-01 -2.67514E-01
    8988.840     -3.325   0.680  3.39535E-01  6.26817E-01 -2.87281E-01
    8989.053     -3.112   0.720  3.33317E-01  6.43864E-01 -3.10547E-01
    8989.278     -2.886   0.760  3.23403E-01  6.60315E-01 -3.36912E-01
    8989.516     -2.648   0.800  3.11740E-01  6.76278E-01 -3.64538E-01
    8989.766     -2.398   0.840  3.00916E-01  6.91807E-01 -3.90891E-01
    8990.028     -2.136   0.880  2.93069E-01  7.06961E-01 -4.13891E-01
    8990.303     -1.862   0.920  2.89462E-01  7.21783E-01 -4.32321E-01
    8990.589     -1.575   0.960  2.90716E-01  7.36324E-01 -4.45608E-01
    8990.888     -1.277   1.000  2.96965E-01  7.50565E-01 -4.53600E-01
    8991.199     -0.966   1.040  3.07794E-01  7.64534E-01 -4.56740E-01
    8991.522     -0.643   1.080  3.22105E-01  7.78233E-01 -4.56128E-01
    8991.857     -0.308   1.120  3.38920E-01  7.91636E-01 -4.52717E-01
    8992.205      0.040   1.160  3.59065E-01  8.04753E-01 -4.45689E-01
    8992.564      0.400   1.200  3.85454E-01  8.17550E-01 -4.32097E-01
    8992.936      0.771   1.240  4.22434E-01  8.30029E-01 -4.07595E-01
    8993.320      1.156   1.280  4.76257E-01  8.42170E-01 -3.65913E-01
    8993.716      1.552   1.320  5.53765E-01  8.53930E-01 -3.00165E-01
    8994.125      1.960   1.360  6.53966E-01  8.65327E-01 -2.11362E-01
    8994.545      2.381   1.400  7.56375E-01  8.76298E-01 -1.19922E-01
    8994.978      2.814   1.440  8.28566E-01  8.86857E-01 -5.82916E-02
    8995.423      3.259   1.480  8.64586E-01  8.97004E-01 -3.24180E-02
    8995.880      3.716   1.520  8.90606E-01  9.06674E-01 -1.60675E-02
    8996.350      4.185   1.560  9.23686E-01  9.15903E-01  7.78315E-03
    8996.831      4.667   1.600  9.65097E-01  9.24653E-01  4.04446E-02
    8997.325      5.161   1.640  1.01038E+00  9.32940E-01  7.74440E-02
    8997.831      5.667   1.680  1.05687E+00  9.40725E-01  1.16141E-01
    8998.349      6.185   1.720  1.11389E+00  9.48072E-01  1.65817E-01
    8998.880      6.715   1.760  1.19696E+00  9.54921E-01  2.42042E-01
    8999.422      7.258   1.800  1.31749E+00  9.61296E-01  3.56194E-01
    8999.977      7.812   1.840  1.46863E+00  9.67200E-01  5.01430E-01
    9000.544      8.379   1.880  1.60562E+00  9.72660E-01  6.32960E-01
    9001.123      8.958   1.920  1.65669E+00  9.77660E-01  6.79029E-01
    9001.714      9.550   1.960  1.59600E+00  9.82231E-01  6.13764E-01
    9002.318     10.153   2.000  1.47639E+00  9.86378E-01  4.90012E-01
    9002.933     10.769   2.040  1.35622E+00  9.90109E-01  3.66113E-01
    9003.561     11.397   2.080  1.25669E+00  9.93474E-01  2.63212E-01
    9004.201     12.037   2.120  1.18310E+00  9.96442E-01  1.86662E-01
    9004.854     12.689   2.160  1.13826E+00  9.99061E-01  1.39201E-01
    9005.518     13.354   2.200  1.11418E+00  1.00134E+00  1.12838E-01
    9006.195     14.030   2.240  1.09651E+00  1.00329E+00  9.32182E-02
    9006.884     14.719   2.280  1.07737E+00  1.00495E+00  7.24202E-02
    9007.585     15.420   2.320  1.05767E+00  1.00631E+00  5.13530E-02
    9008.298     16.133   2.360  1.04093E+00  1.00744E+00  3.34847E-02
    9009.023     16.859   2.400  1.02641E+00  1.00830E+00  1.81039E-02
    9009.761     17.596   2.440  1.01362E+00  1.00895E+00  4.67586E-03
    9010.511     18.346   2.480  1.00786E+00  1.00940E+00 -1.53724E-03
    9011.273     19.108   2.520  1.01534E+00  1.00964E+00  5.70514E-03
    9012.047     19.882   2.560  1.03547E+00  1.00972E+00  2.57486E-02
    9012.833     20.669   2.600  1.05406E+00  1.00965E+00  4.44175E-02
    9013.632     21.467   2.640  1.06700E+00  1.00944E+00  5.75609E-02
    9014.443     22.278   2.680  1.07277E+00  1.00911E+00  6.36619E-02
    9015.266     23.101   2.720  1.07073E+00  1.00868E+00  6.20493E-02
    9016.101     23.936   2.760  1.06050E+00  1.00817E+00  5.23289E-02
    9016.948     24.784   2.800  1.04282E+00  1.00755E+00  3.52689E-02
    9017.808     25.643   2.840  1.02010E+00  1.00688E+00  1.32167E-02
    9018.679     26.515   2.880  9.95574E-01  1.00616E+00 -1.05895E-02
    9019.563     27.399   2.920  9.71391E-01  1.00542E+00 -3.40316E-02
    9020.459     28.295   2.960  9.48511E-01  1.00463E+00 -5.61141E-02
    9021.368     29.203   3.000  9.27207E-01  1.00382E+00 -7.66095E-02
    9022.288     30.124   3.040  9.07464E-01  1.00300E+00 -9.55378E-02
    9023.221     31.056   3.080  8.89406E-01  1.00218E+00 -1.12779E-01
    9024.166     32.001   3.120  8.73150E-01  1.00137E+00 -1.28221E-01
    9025.123     32.958   3.160  8.58889E-01  1.00058E+00 -1.41695E-01
    9026.092     33.927   3.200  8.46843E-01  9.99809E-01 -1.52966E-01
    9027.074     34.909   3.240  8.37687E-01  9.99086E-01 -1.61400E-01
    9028.067     35.903   3.280  8.31566E-01  9.98357E-01 -1.66791E-01
    9029.073     36.908   3.320  8.28910E-01  9.97689E-01 -1.68779E-01
    9030.091     37.926   3.360  8.30087E-01  9.97063E-01 -1.66975E-01
    9031.121     38.957   3.400  8.35118E-01  9.96501E-01 -1.61383E-01
    9032.164     39.999   3.440  8.43594E-01  9.95962E-01 -1.52368E-01
    9033.218     41.054   3.480  8.55221E-01  9.95489E-01 -1.40268E-01
    9034.285     42.120   3.520  8.69738E-01  9.95064E-01 -1.25327E-01
    9035.364     43.199   3.560  8.86864E-01  9.94709E-01 -1.07845E-01
    9036.455     44.291   3.600  9.06503E-01  9.94403E-01 -8.78998E-02
    9037.559     45.394   3.640  9.28622E-01  9.94168E-01 -6.55465E-02
    9038.674     46.510   3.680  9.52731E-01  9.93984E-01 -4.12528E-02
    9039.802     47.637   3.720  9.77795E-01  9.93870E-01 -1.60751E-02
    9040.942     48.777   3.760  1.00236E+00  9.93829E-01  8.52744E-03
    9042.094     49.929   3.800  1.02483E+00  9.93837E-01  3.09965E-02
    9043.258     51.094   3.840  1.04412E+00  9.93895E-01  5.02247E-02
    9044.435     52.270   3.880  1.05954E+00  9.94021E-01  6.55191E-02
    9045.624     53.459   3.920  1.07050E+00  9.94196E-01  7.63019E-02
    9046.824     54.660   3.960  1.07654E+00  9.94440E-01  8.21026E-02
    9048.038     55.873   4.000  1.07793E+00  9.94732E-01  8.32029E-02
    9049.263     57.098   4.040  1.07594E+00  9.95090E-01  8.08542E-02
    9050.500     58.336   4.080  1.07222E+00  9.95470E-01  7.67536E-02
    9051.750     59.585   4.120  1.06830E+00  9.95916E-01  7.23815E-02
    9053.012     60.847   4.160  1.06501E+00  9.96404E-01  6.86086E-02
    9054.286     62.121   4.200  1.06253E+00  9.96932E-01  6.55950E-02
    9055.572     63.408   4.240  1.06054E+00  9.97499E-01  6.30457E-02
    9056.871     64.706   4.280  1.05866E+00  9.98101E-01  6.05583E-02
    9058.181     66.017   4.320  1.05654E+00  9.98717E-01  5.78200E-02
    9059.504     67.340   4.360  1.05409E+00  9.99368E-01  5.47221E-02
    9060.839     68.675   4.400  1.05145E+00  1.00005E+00  5.14000E-02
    9062.186     70.022   4.440  1.04900E+00  1.00077E+00  4.82339E-02
    9063.546     71.381   4.480  1.04715E+00  1.00146E+00  4.56901E-02
    9064.917     72.753   4.520  1.04631E+00  1.00219E+00  4.41240E-02
    9066.301     74.137   4.560  1.04650E+00  1.00291E+00  4.35845E-02
    9067.697     75.533   4.600  1.04736E+00  1.00367E+00  4.36896E-02
    9069.105     76.941   4.640  1.04820E+00  1.00439E+00  4.38029E-02
    9070.526     78.361   4.680  1.04847E+00  1.00512E+00  4.33466E-02
    9071.958     79.794   4.720  1.04778E+00  1.00584E+00  4.19429E-02
    9073.403     81.238   4.760  1.04595E+00  1.00656E+00  3.93967E-02
    9074.860     82.695   4.800  1.04294E+00  1.00727E+00  3.56700E-02
    9076.329     84.164   4.840  1.03878E+00  1.00794E+00  3.08340E-02
    9077.810     85.646   4.880  1.03355E+00  1.00859E+00  2.49643E-02
    9079.304     87.139   4.920  1.02728E+00  1.00922E+00  1.80594E-02
    9080.810     88.645   4.960  1.01976E+00  1.00981E+00  9.94516E-03
    9082.327     90.163   5.000  1.01078E+00  1.01037E+00  4.12053E-04
    9083.858     91.693   5.040  1.00040E+00  1.01091E+00 -1.05075E-02
    9085.400     93.235   5.080  9.89098E-01  1.01138E+00 -2.22863E-02
    9086.954     94.790   5.120  9.77902E-01  1.01185E+00 -3.39431E-02
    9088.521     96.356   5.160  9.67915E-01  1.01226E+00 -4.43472E-02
    9090.100     97.935   5.200  9.60090E-01  1.01261E+00 -5.25225E-02
    9091.691     99.526   5.240  9.54944E-01  1.01292E+00 -5.79764E-02
    9093.294    101.130   5.280  9.52488E-01  1.01321E+00 -6.07189E-02
    9094.910    102.745   5.320  9.52289E-01  1.01342E+00 -6.11363E-02
    9096.537    104.373   5.360  9.53816E-01  1.01357E+00 -5.97574E-02
    9098.177    106.012   5.400  9.56648E-01  1.01370E+00 -5.70507E-02
    9099.829    107.664   5.440  9.60387E-01  1.01376E+00 -5.33697E-02
    9101.493    109.329   5.480  9.64749E-01  1.01377E+00 -4.90196E-02
    9103.170    111.005   5.520  9.69441E-01  1.01374E+00 -4.42956E-02
    9104.858    112.694   5.560  9.74227E-01  1.01366E+00 -3.94319E-02
    9106.559    114.394   5.600  9.78967E-01  1.01351E+00 -3.45454E-02
    9108.272    116.107   5.640  9.83594E-01  1.01332E+00 -2.97257E-02
    9109.997    117.832   5.680  9.87937E-01  1.01308E+00 -2.51470E-02
    9111.734    119.570   5.720  9.91715E-01  1.01280E+00 -2.10892E-02
    9113.484    121.319   5.760  9.94630E-01  1.01246E+00 -1.78292E-02
    9115.246    123.081   5.800  9.96610E-01  1.01210E+00 -1.54861E-02
    9117.020    124.855   5.840  9.97799E-01  1.01167E+00 -1.38722E-02
    9118.806    126.641   5.880  9.98708E-01  1.01123E+00 -1.25246E-02
    9120.604    128.439   5.920  9.99761E-01  1.01074E+00 -1.09747E-02
    9122.415    130.250   5.960  1.00119E+00  1.01023E+00 -9.03350E-03
    9124.237    132.073   6.000  1.00287E+00  1.00963E+00 -6.76003E-03
