# # comment:                                                     FEFF 9.9.1  
# # Source:
# # Structure
# # Reduced
# # space
# # abc:
# # angles:
# # sites:
# # POT  SCF 100  7.0000   0, screened core-hole, AFOLP (folp(0)= 1.150)
# # Abs   Z=29 Rmt= 1.175 Rnm= 1.262 K  shell
# # Pot 1 Z=56 Rmt= 1.942 Rnm= 1.992
# # Pot 2 Z=60 Rmt= 1.791 Rnm= 1.857
# # Pot 3 Z=29 Rmt= 1.175 Rnm= 1.262
# # Pot 4 Z= 8 Rmt= 1.083 Rnm= 1.128
# # Gam_ch=1.729E+00 H-L exch Vi= 0.000E+00 Vr= 0.000E+00
# # Mu=-8.332E+00eV kf=2.022E+00 Vint=-1.750E+01eV Rs_int= 1.794
# FMS rfms= 9.0000
# # PATH  Rmax=-1.000,  Keep_limit= 0.00, Heap_limit 0.00  Pwcrit= 2.50%
#  S02=0.950  Temp=   0.00  Debye_temp=   0.00  Global_sig2= 0.00000
#  Energy zero shift, vr, vi    0.00000E+00   0.00000E+00
#  Curved wave amplitude ratio filter   4.000%
#     file         sig2 tot  cw amp ratio   deg  nlegs   reff  inp sig2
#     0/   0 paths used
#  xsedge+ 50, used to normalize mu           2.4364E-04
#  -----------------------------------------------------------------------
#  omega    e    k    mu    mu0     chi     @#
    8984.998    -12.142  -1.000  3.36573E-02  5.78911E-02 -2.42338E-02
    8985.297    -11.843  -0.960  3.51845E-02  6.21878E-02 -2.70033E-02
    8985.584    -11.557  -0.920  3.68182E-02  6.69690E-02 -3.01507E-02
    8985.858    -11.283  -0.880  3.85718E-02  7.23062E-02 -3.37344E-02
    8986.120    -11.021  -0.840  4.04613E-02  7.82832E-02 -3.78220E-02
    8986.370    -10.771  -0.800  4.25054E-02  8.49969E-02 -4.24915E-02
    8986.608    -10.533  -0.760  4.47263E-02  9.25584E-02 -4.78321E-02
    8986.833    -10.307  -0.720  4.71494E-02  1.01093E-01 -5.39441E-02
    8987.047    -10.094  -0.680  4.98034E-02  1.10741E-01 -6.09373E-02
    8987.248     -9.893  -0.640  5.27188E-02  1.21646E-01 -6.89276E-02
    8987.437     -9.704  -0.600  5.59257E-02  1.33954E-01 -7.80286E-02
    8987.614     -9.527  -0.560  5.94495E-02  1.47787E-01 -8.83380E-02
    8987.778     -9.362  -0.520  6.33031E-02  1.63219E-01 -9.99161E-02
    8987.931     -9.210  -0.480  6.74769E-02  1.80234E-01 -1.12757E-01
    8988.071     -9.070  -0.440  7.19276E-02  1.98682E-01 -1.26755E-01
    8988.199     -8.942  -0.400  7.65686E-02  2.18242E-01 -1.41673E-01
    8988.315     -8.826  -0.360  8.12690E-02  2.38406E-01 -1.57137E-01
    8988.418     -8.722  -0.320  8.58657E-02  2.58515E-01 -1.72649E-01
    8988.510     -8.631  -0.280  9.01872E-02  2.77838E-01 -1.87651E-01
    8988.589     -8.552  -0.240  9.40823E-02  2.95673E-01 -2.01590E-01
    8988.656     -8.485  -0.200  9.74411E-02  3.11431E-01 -2.13990E-01
    8988.711     -8.430  -0.160  1.00200E-01  3.24684E-01 -2.24484E-01
    8988.754     -8.387  -0.120  1.02333E-01  3.35157E-01 -2.32825E-01
    8988.784     -8.357  -0.080  1.03838E-01  3.42701E-01 -2.38863E-01
    8988.808     -8.332   0.000  1.05022E-01  3.48760E-01 -2.43738E-01
    8988.863     -8.277   0.120  1.07877E-01  3.62423E-01 -2.54546E-01
    8988.906     -8.235   0.160  1.09992E-01  3.73052E-01 -2.63060E-01
    8988.961     -8.180   0.200  1.12572E-01  3.86587E-01 -2.74015E-01
    8989.028     -8.113   0.240  1.15528E-01  4.02860E-01 -2.87333E-01
    8989.107     -8.034   0.280  1.18728E-01  4.21540E-01 -3.02812E-01
    8989.199     -7.942   0.320  1.22022E-01  4.42141E-01 -3.20119E-01
    8989.302     -7.838   0.360  1.25245E-01  4.64021E-01 -3.38775E-01
    8989.418     -7.723   0.400  1.28337E-01  4.86560E-01 -3.58223E-01
    8989.546     -7.595   0.440  1.31314E-01  5.09154E-01 -3.77840E-01
    8989.686     -7.454   0.480  1.34244E-01  5.31332E-01 -3.97087E-01
    8989.839     -7.302   0.520  1.37350E-01  5.52824E-01 -4.15473E-01
    8990.003     -7.137   0.560  1.40804E-01  5.73436E-01 -4.32631E-01
    8990.180     -6.961   0.600  1.44898E-01  5.93173E-01 -4.48275E-01
    8990.369     -6.772   0.640  1.49909E-01  6.12077E-01 -4.62168E-01
    8990.570     -6.570   0.680  1.56109E-01  6.30211E-01 -4.74102E-01
    8990.784     -6.357   0.720  1.63786E-01  6.47693E-01 -4.83908E-01
    8991.009     -6.132   0.760  1.73034E-01  6.64621E-01 -4.91587E-01
    8991.247     -5.894   0.800  1.83718E-01  6.81081E-01 -4.97362E-01
    8991.497     -5.644   0.840  1.95549E-01  6.97145E-01 -5.01596E-01
    8991.759     -5.382   0.880  2.08523E-01  7.12849E-01 -5.04325E-01
    8992.033     -5.107   0.920  2.23210E-01  7.28256E-01 -5.05046E-01
    8992.320     -4.821   0.960  2.39988E-01  7.43396E-01 -5.03407E-01
    8992.618     -4.522   1.000  2.58311E-01  7.58244E-01 -4.99933E-01
    8992.929     -4.211   1.040  2.77372E-01  7.72849E-01 -4.95477E-01
    8993.252     -3.888   1.080  2.97149E-01  7.87170E-01 -4.90020E-01
    8993.588     -3.553   1.120  3.18705E-01  8.01218E-01 -4.82513E-01
    8993.935     -3.206   1.160  3.44051E-01  8.14983E-01 -4.70932E-01
    8994.295     -2.846   1.200  3.74504E-01  8.28426E-01 -4.53922E-01
    8994.667     -2.474   1.240  4.04966E-01  8.41527E-01 -4.36561E-01
    8995.051     -2.090   1.280  4.26726E-01  8.54265E-01 -4.27539E-01
    8995.447     -1.694   1.320  4.42719E-01  8.66635E-01 -4.23916E-01
    8995.855     -1.285   1.360  4.64779E-01  8.78613E-01 -4.13834E-01
    8996.276     -0.865   1.400  4.99738E-01  8.90153E-01 -3.90415E-01
    8996.709     -0.432   1.440  5.51408E-01  9.01250E-01 -3.49842E-01
    8997.154      0.013   1.480  6.21603E-01  9.11877E-01 -2.90274E-01
    8997.611      0.470   1.520  7.02585E-01  9.22031E-01 -2.19446E-01
    8998.080      0.940   1.560  7.84309E-01  9.31689E-01 -1.47380E-01
    8998.562      1.421   1.600  8.68134E-01  9.40847E-01 -7.27132E-02
    8999.056      1.915   1.640  9.69271E-01  9.49504E-01  1.97674E-02
    8999.562      2.421   1.680  1.10627E+00  9.57618E-01  1.48656E-01
    9000.080      2.939   1.720  1.28543E+00  9.65231E-01  3.20200E-01
    9000.610      3.470   1.760  1.48588E+00  9.72323E-01  5.13556E-01
    9001.153      4.012   1.800  1.65171E+00  9.78899E-01  6.72813E-01
    9001.708      4.567   1.840  1.74059E+00  9.84942E-01  7.55653E-01
    9002.274      5.134   1.880  1.75420E+00  9.90518E-01  7.63677E-01
    9002.854      5.713   1.920  1.68932E+00  9.95571E-01  6.93745E-01
    9003.445      6.304   1.960  1.56964E+00  1.00017E+00  5.69473E-01
    9004.048      6.908   2.000  1.44866E+00  1.00429E+00  4.44372E-01
    9004.664      7.523   2.040  1.35735E+00  1.00796E+00  3.49388E-01
    9005.292      8.151   2.080  1.29934E+00  1.01119E+00  2.88144E-01
    9005.932      8.791   2.120  1.26246E+00  1.01402E+00  2.48433E-01
    9006.584      9.444   2.160  1.23845E+00  1.01645E+00  2.22002E-01
    9007.249     10.108   2.200  1.22365E+00  1.01852E+00  2.05139E-01
    9007.925     10.785   2.240  1.21172E+00  1.02022E+00  1.91498E-01
    9008.614     11.474   2.280  1.19268E+00  1.02158E+00  1.71096E-01
    9009.315     12.175   2.320  1.16145E+00  1.02265E+00  1.38801E-01
    9010.029     12.888   2.360  1.12275E+00  1.02342E+00  9.93277E-02
    9010.754     13.613   2.400  1.08980E+00  1.02393E+00  6.58688E-02
    9011.492     14.351   2.440  1.08290E+00  1.02416E+00  5.87309E-02
    9012.241     15.101   2.480  1.10223E+00  1.02418E+00  7.80471E-02
    9013.003     15.863   2.520  1.12621E+00  1.02399E+00  1.02215E-01
    9013.778     16.637   2.560  1.13909E+00  1.02362E+00  1.15467E-01
    9014.564     17.423   2.600  1.13383E+00  1.02308E+00  1.10744E-01
    9015.363     18.222   2.640  1.11241E+00  1.02238E+00  9.00259E-02
    9016.173     19.033   2.680  1.08127E+00  1.02155E+00  5.97224E-02
    9016.996     19.856   2.720  1.04785E+00  1.02060E+00  2.72472E-02
    9017.831     20.691   2.760  1.01693E+00  1.01955E+00 -2.62046E-03
    9018.679     21.538   2.800  9.89833E-01  1.01842E+00 -2.85914E-02
    9019.538     22.398   2.840  9.66672E-01  1.01722E+00 -5.05458E-02
    9020.410     23.269   2.880  9.46940E-01  1.01598E+00 -6.90398E-02
    9021.294     24.153   2.920  9.29627E-01  1.01468E+00 -8.50518E-02
    9022.190     25.049   2.960  9.14036E-01  1.01334E+00 -9.93032E-02
    9023.098     25.958   3.000  8.99807E-01  1.01199E+00 -1.12182E-01
    9024.019     26.878   3.040  8.87078E-01  1.01063E+00 -1.23554E-01
    9024.952     27.811   3.080  8.76381E-01  1.00928E+00 -1.32895E-01
    9025.896     28.756   3.120  8.68163E-01  1.00792E+00 -1.39760E-01
    9026.853     29.713   3.160  8.62221E-01  1.00660E+00 -1.44378E-01
    9027.823     30.682   3.200  8.57437E-01  1.00529E+00 -1.47850E-01
    9028.804     31.663   3.240  8.52758E-01  1.00403E+00 -1.51276E-01
    9029.798     32.657   3.280  8.47409E-01  1.00280E+00 -1.55393E-01
    9030.804     33.663   3.320  8.41555E-01  1.00163E+00 -1.60079E-01
    9031.822     34.681   3.360  8.36288E-01  1.00051E+00 -1.64224E-01
    9032.852     35.711   3.400  8.33249E-01  9.99460E-01 -1.66211E-01
    9033.894     36.754   3.440  8.33675E-01  9.98460E-01 -1.64785E-01
    9034.949     37.808   3.480  8.38461E-01  9.97533E-01 -1.59072E-01
    9036.016     38.875   3.520  8.48041E-01  9.96682E-01 -1.48641E-01
    9037.095     39.954   3.560  8.62242E-01  9.95887E-01 -1.33646E-01
    9038.186     41.045   3.600  8.80674E-01  9.95191E-01 -1.14518E-01
    9039.289     42.149   3.640  9.02636E-01  9.94553E-01 -9.19174E-02
    9040.405     43.264   3.680  9.27169E-01  9.93996E-01 -6.68267E-02
    9041.533     44.392   3.720  9.52805E-01  9.93539E-01 -4.07341E-02
    9042.672     45.532   3.760  9.77757E-01  9.93141E-01 -1.53842E-02
    9043.825     46.684   3.800  9.99915E-01  9.92824E-01  7.09138E-03
    9044.989     47.848   3.840  1.01708E+00  9.92586E-01  2.44933E-02
    9046.165     49.025   3.880  1.02788E+00  9.92452E-01  3.54320E-02
    9047.354     50.214   3.920  1.03252E+00  9.92377E-01  4.01454E-02
    9048.555     51.414   3.960  1.03289E+00  9.92381E-01  4.05129E-02
    9049.768     52.628   4.000  1.03199E+00  9.92463E-01  3.95234E-02
    9050.994     53.853   4.040  1.03277E+00  9.92624E-01  4.01444E-02
    9052.231     55.090   4.080  1.03711E+00  9.92862E-01  4.42476E-02
    9053.481     56.340   4.120  1.04532E+00  9.93153E-01  5.21632E-02
    9054.743     57.602   4.160  1.05645E+00  9.93518E-01  6.29341E-02
    9056.017     58.876   4.200  1.06874E+00  9.93957E-01  7.47873E-02
    9057.303     60.162   4.240  1.07995E+00  9.94448E-01  8.55016E-02
    9058.601     61.461   4.280  1.08803E+00  9.95010E-01  9.30240E-02
    9059.912     62.771   4.320  1.09173E+00  9.95617E-01  9.61089E-02
    9061.235     64.094   4.360  1.09085E+00  9.96270E-01  9.45839E-02
    9062.570     65.429   4.400  1.08641E+00  9.96989E-01  8.94240E-02
    9063.917     66.776   4.440  1.08012E+00  9.97727E-01  8.23897E-02
    9065.276     68.136   4.480  1.07386E+00  9.98528E-01  7.53292E-02
    9066.648     69.507   4.520  1.06892E+00  9.99368E-01  6.95491E-02
    9068.032     70.891   4.560  1.06580E+00  1.00022E+00  6.55739E-02
    9069.428     72.287   4.600  1.06418E+00  1.00110E+00  6.30755E-02
    9070.836     73.695   4.640  1.06326E+00  1.00200E+00  6.12666E-02
    9072.256     75.116   4.680  1.06230E+00  1.00292E+00  5.93769E-02
    9073.689     76.548   4.720  1.06080E+00  1.00385E+00  5.69470E-02
    9075.134     77.993   4.760  1.05858E+00  1.00478E+00  5.37945E-02
    9076.591     79.450   4.800  1.05562E+00  1.00574E+00  4.98890E-02
    9078.060     80.919   4.840  1.05182E+00  1.00667E+00  4.51504E-02
    9079.541     82.400   4.880  1.04700E+00  1.00762E+00  3.93807E-02
    9081.034     83.894   4.920  1.04083E+00  1.00854E+00  3.22917E-02
    9082.540     85.399   4.960  1.03322E+00  1.00943E+00  2.37853E-02
    9084.058     86.917   5.000  1.02455E+00  1.01032E+00  1.42368E-02
    9085.588     88.447   5.040  1.01547E+00  1.01119E+00  4.28646E-03
    9087.130     89.990   5.080  1.00663E+00  1.01202E+00 -5.39752E-03
    9088.685     91.544   5.120  9.98574E-01  1.01282E+00 -1.42472E-02
    9090.252     93.111   5.160  9.91684E-01  1.01358E+00 -2.18935E-02
    9091.830     94.690   5.200  9.85996E-01  1.01429E+00 -2.82961E-02
    9093.421     96.281   5.240  9.81048E-01  1.01497E+00 -3.39175E-02
    9095.025     97.884   5.280  9.76032E-01  1.01560E+00 -3.95644E-02
    9096.640     99.499   5.320  9.70223E-01  1.01618E+00 -4.59595E-02
    9098.268    101.127   5.360  9.63295E-01  1.01672E+00 -5.34275E-02
    9099.908    102.767   5.400  9.55831E-01  1.01719E+00 -6.13606E-02
    9101.560    104.419   5.440  9.48818E-01  1.01761E+00 -6.87923E-02
    9103.224    106.083   5.480  9.43199E-01  1.01796E+00 -7.47586E-02
    9104.900    107.760   5.520  9.39807E-01  1.01825E+00 -7.84457E-02
    9106.589    109.448   5.560  9.39125E-01  1.01848E+00 -7.93504E-02
    9108.290    111.149   5.600  9.41284E-01  1.01865E+00 -7.73632E-02
    9110.003    112.862   5.640  9.46133E-01  1.01874E+00 -7.26100E-02
    9111.728    114.587   5.680  9.53221E-01  1.01876E+00 -6.55431E-02
    9113.465    116.324   5.720  9.62083E-01  1.01874E+00 -5.66538E-02
    9115.215    118.074   5.760  9.72047E-01  1.01866E+00 -4.66137E-02
    9116.976    119.836   5.800  9.81947E-01  1.01851E+00 -3.65644E-02
    9118.750    121.610   5.840  9.90154E-01  1.01829E+00 -2.81340E-02
    9120.536    123.396   5.880  9.95264E-01  1.01802E+00 -2.27517E-02
    9122.335    125.194   5.920  9.97246E-01  1.01767E+00 -2.04268E-02
    9124.145    127.005   5.960  9.97843E-01  1.01728E+00 -1.94340E-02
    9125.968    128.827   6.000  9.99825E-01  1.01676E+00 -1.69325E-02
