# # comment:                                                     FEFF 9.9.1  
# # Source:
# # Structure
# # Reduced
# # space
# # abc:
# # angles:
# # sites:
# # POT  SCF 100  7.0000   0, screened core-hole, AFOLP (folp(0)= 1.150)
# # Abs   Z=29 Rmt= 1.147 Rnm= 1.291 K  shell
# # Pot 1 Z=20 Rmt= 1.561 Rnm= 1.657
# # Pot 2 Z=29 Rmt= 1.118 Rnm= 1.256
# # Pot 3 Z= 8 Rmt= 1.016 Rnm= 1.150
# # Gam_ch=1.729E+00 H-L exch Vi= 0.000E+00 Vr= 0.000E+00
# # Mu=-9.945E+00eV kf=2.057E+00 Vint=-1.618E+01eV Rs_int= 1.763
# FMS rfms= 9.0000
# # PATH  Rmax=-1.000,  Keep_limit= 0.00, Heap_limit 0.00  Pwcrit= 2.50%
#  S02=0.950  Temp=   0.00  Debye_temp=   0.00  Global_sig2= 0.00000
#  Energy zero shift, vr, vi    0.00000E+00   0.00000E+00
#  Curved wave amplitude ratio filter   4.000%
#     file         sig2 tot  cw amp ratio   deg  nlegs   reff  inp sig2
#     0/   0 paths used
#  xsedge+ 50, used to normalize mu           2.4549E-04
#  -----------------------------------------------------------------------
#  omega    e    k    mu    mu0     chi     @#
    8984.329    -13.755  -1.000  2.87311E-02  4.79821E-02 -1.92510E-02
    8984.628    -13.457  -0.960  2.99694E-02  5.12329E-02 -2.12635E-02
    8984.914    -13.170  -0.920  3.12938E-02  5.48228E-02 -2.35289E-02
    8985.189    -12.896  -0.880  3.27155E-02  5.87995E-02 -2.60840E-02
    8985.451    -12.634  -0.840  3.42474E-02  6.32183E-02 -2.89710E-02
    8985.701    -12.384  -0.800  3.59047E-02  6.81433E-02 -3.22386E-02
    8985.938    -12.146  -0.760  3.77051E-02  7.36472E-02 -3.59422E-02
    8986.164    -11.920  -0.720  3.96688E-02  7.98123E-02 -4.01436E-02
    8986.377    -11.707  -0.680  4.18181E-02  8.67286E-02 -4.49105E-02
    8986.578    -11.506  -0.640  4.41769E-02  9.44904E-02 -5.03135E-02
    8986.767    -11.317  -0.600  4.67688E-02  1.03190E-01 -5.64214E-02
    8986.944    -11.140  -0.560  4.96138E-02  1.12905E-01 -6.32916E-02
    8987.109    -10.976  -0.520  5.27241E-02  1.23681E-01 -7.09567E-02
    8987.261    -10.823  -0.480  5.60970E-02  1.35502E-01 -7.94051E-02
    8987.401    -10.683  -0.440  5.97078E-02  1.48267E-01 -8.85590E-02
    8987.529    -10.555  -0.400  6.35025E-02  1.61759E-01 -9.82563E-02
    8987.645    -10.439  -0.360  6.73956E-02  1.75640E-01 -1.08245E-01
    8987.749    -10.336  -0.320  7.12747E-02  1.89473E-01 -1.18198E-01
    8987.840    -10.244  -0.280  7.50124E-02  2.02768E-01 -1.27755E-01
    8987.920    -10.165  -0.240  7.84829E-02  2.15053E-01 -1.36570E-01
    8987.987    -10.098  -0.200  8.15754E-02  2.25927E-01 -1.44351E-01
    8988.042    -10.043  -0.160  8.42029E-02  2.35092E-01 -1.50889E-01
    8988.084    -10.000  -0.120  8.63047E-02  2.42352E-01 -1.56048E-01
    8988.115     -9.970  -0.080  8.78478E-02  2.47592E-01 -1.59745E-01
    8988.139     -9.945   0.000  8.91708E-02  2.51810E-01 -1.62640E-01
    8988.194     -9.891   0.120  9.23862E-02  2.61336E-01 -1.68950E-01
    8988.237     -9.848   0.160  9.46904E-02  2.68764E-01 -1.74074E-01
    8988.291     -9.793   0.200  9.75560E-02  2.78283E-01 -1.80727E-01
    8988.359     -9.726   0.240  1.00928E-01  2.89807E-01 -1.88879E-01
    8988.438     -9.647   0.280  1.04675E-01  3.03129E-01 -1.98454E-01
    8988.529     -9.555   0.320  1.08655E-01  3.17991E-01 -2.09336E-01
    8988.633     -9.452   0.360  1.12648E-01  3.34022E-01 -2.21373E-01
    8988.749     -9.336   0.400  1.16367E-01  3.50841E-01 -2.34474E-01
    8988.877     -9.208   0.440  1.19504E-01  3.68103E-01 -2.48599E-01
    8989.017     -9.068   0.480  1.21695E-01  3.85539E-01 -2.63844E-01
    8989.169     -8.915   0.520  1.22554E-01  4.02957E-01 -2.80404E-01
    8989.334     -8.751   0.560  1.21963E-01  4.20279E-01 -2.98316E-01
    8989.511     -8.574   0.600  1.20134E-01  4.37477E-01 -3.17343E-01
    8989.700     -8.385   0.640  1.17814E-01  4.54589E-01 -3.36775E-01
    8989.901     -8.184   0.680  1.16004E-01  4.71676E-01 -3.55672E-01
    8990.114     -7.970   0.720  1.15527E-01  4.88767E-01 -3.73240E-01
    8990.340     -7.745   0.760  1.16909E-01  5.05906E-01 -3.88997E-01
    8990.577     -7.507   0.800  1.20486E-01  5.23152E-01 -4.02667E-01
    8990.827     -7.257   0.840  1.26584E-01  5.40533E-01 -4.13949E-01
    8991.090     -6.995   0.880  1.35725E-01  5.58044E-01 -4.22320E-01
    8991.364     -6.721   0.920  1.48737E-01  5.75712E-01 -4.26975E-01
    8991.650     -6.434   0.960  1.66651E-01  5.93492E-01 -4.26841E-01
    8991.949     -6.135   1.000  1.90598E-01  6.11412E-01 -4.20815E-01
    8992.260     -5.825   1.040  2.20944E-01  6.29393E-01 -4.08449E-01
    8992.583     -5.501   1.080  2.55836E-01  6.47429E-01 -3.91593E-01
    8992.918     -5.166   1.120  2.90109E-01  6.65468E-01 -3.75359E-01
    8993.266     -4.819   1.160  3.18088E-01  6.83478E-01 -3.65390E-01
    8993.625     -4.459   1.200  3.39159E-01  7.01400E-01 -3.62241E-01
    8993.997     -4.087   1.240  3.59283E-01  7.19172E-01 -3.59889E-01
    8994.381     -3.703   1.280  3.84154E-01  7.36754E-01 -3.52600E-01
    8994.778     -3.307   1.320  4.13288E-01  7.54082E-01 -3.40793E-01
    8995.186     -2.898   1.360  4.41865E-01  7.71113E-01 -3.29248E-01
    8995.607     -2.478   1.400  4.66759E-01  7.87785E-01 -3.21026E-01
    8996.039     -2.045   1.440  4.87964E-01  8.04075E-01 -3.16111E-01
    8996.484     -1.600   1.480  5.07562E-01  8.19901E-01 -3.12339E-01
    8996.942     -1.143   1.520  5.27380E-01  8.35244E-01 -3.07864E-01
    8997.411     -0.673   1.560  5.53228E-01  8.50045E-01 -2.96816E-01
    8997.893     -0.192   1.600  5.94375E-01  8.64308E-01 -2.69932E-01
    8998.386      0.302   1.640  6.51056E-01  8.77958E-01 -2.26901E-01
    8998.892      0.808   1.680  7.16388E-01  8.90984E-01 -1.74596E-01
    8999.411      1.326   1.720  7.81434E-01  9.03376E-01 -1.21942E-01
    8999.941      1.856   1.760  8.40906E-01  9.15105E-01 -7.41998E-02
    9000.483      2.399   1.800  8.95555E-01  9.26168E-01 -3.06137E-02
    9001.038      2.954   1.840  9.48840E-01  9.36563E-01  1.22763E-02
    9001.605      3.521   1.880  1.00732E+00  9.46269E-01  6.10498E-02
    9002.184      4.100   1.920  1.08521E+00  9.55305E-01  1.29903E-01
    9002.776      4.691   1.960  1.18578E+00  9.63678E-01  2.22103E-01
    9003.379      5.295   2.000  1.27390E+00  9.71391E-01  3.02512E-01
    9003.995      5.910   2.040  1.30508E+00  9.78453E-01  3.26625E-01
    9004.623      6.538   2.080  1.28480E+00  9.84890E-01  2.99913E-01
    9005.263      7.178   2.120  1.25126E+00  9.90713E-01  2.60547E-01
    9005.915      7.830   2.160  1.22389E+00  9.95955E-01  2.27936E-01
    9006.579      8.495   2.200  1.20796E+00  1.00063E+00  2.07336E-01
    9007.256      9.172   2.240  1.20399E+00  1.00476E+00  1.99230E-01
    9007.945      9.860   2.280  1.21068E+00  1.00836E+00  2.02316E-01
    9008.646     10.561   2.320  1.22342E+00  1.01147E+00  2.11947E-01
    9009.359     11.275   2.360  1.23362E+00  1.01413E+00  2.19485E-01
    9010.085     12.000   2.400  1.23595E+00  1.01636E+00  2.19586E-01
    9010.822     12.738   2.440  1.23170E+00  1.01819E+00  2.13508E-01
    9011.572     13.488   2.480  1.22195E+00  1.01962E+00  2.02333E-01
    9012.334     14.250   2.520  1.20518E+00  1.02070E+00  1.84474E-01
    9013.108     15.024   2.560  1.18016E+00  1.02146E+00  1.58702E-01
    9013.895     15.810   2.600  1.15174E+00  1.02191E+00  1.29835E-01
    9014.693     16.609   2.640  1.12481E+00  1.02209E+00  1.02714E-01
    9015.504     17.419   2.680  1.10164E+00  1.02203E+00  7.96145E-02
    9016.327     18.242   2.720  1.08209E+00  1.02175E+00  6.03362E-02
    9017.162     19.078   2.760  1.06454E+00  1.02127E+00  4.32675E-02
    9018.009     19.925   2.800  1.04775E+00  1.02060E+00  2.71550E-02
    9018.869     20.784   2.840  1.03170E+00  1.01978E+00  1.19142E-02
    9019.741     21.656   2.880  1.01640E+00  1.01881E+00 -2.41360E-03
    9020.625     22.540   2.920  1.00235E+00  1.01772E+00 -1.53741E-02
    9021.521     23.436   2.960  9.90000E-01  1.01654E+00 -2.65426E-02
    9022.429     24.344   3.000  9.79578E-01  1.01528E+00 -3.56995E-02
    9023.349     25.265   3.040  9.71100E-01  1.01394E+00 -4.28378E-02
    9024.282     26.198   3.080  9.64520E-01  1.01257E+00 -4.80505E-02
    9025.227     27.143   3.120  9.59070E-01  1.01114E+00 -5.20735E-02
    9026.184     28.100   3.160  9.53585E-01  1.00970E+00 -5.61166E-02
    9027.153     29.069   3.200  9.46952E-01  1.00823E+00 -6.12787E-02
    9028.135     30.050   3.240  9.38620E-01  1.00676E+00 -6.81376E-02
    9029.128     31.044   3.280  9.28992E-01  1.00531E+00 -7.63185E-02
    9030.134     32.050   3.320  9.19273E-01  1.00387E+00 -8.45974E-02
    9031.152     33.068   3.360  9.11108E-01  1.00246E+00 -9.13560E-02
    9032.182     34.098   3.400  9.05423E-01  1.00110E+00 -9.56728E-02
    9033.225     35.140   3.440  9.02481E-01  9.99767E-01 -9.72858E-02
    9034.279     36.195   3.480  9.01972E-01  9.98481E-01 -9.65094E-02
    9035.346     37.262   3.520  9.03218E-01  9.97242E-01 -9.40247E-02
    9036.425     38.341   3.560  9.05530E-01  9.96073E-01 -9.05433E-02
    9037.516     39.432   3.600  9.08437E-01  9.94977E-01 -8.65395E-02
    9038.620     40.535   3.640  9.11681E-01  9.93933E-01 -8.22521E-02
    9039.735     41.651   3.680  9.15062E-01  9.92965E-01 -7.79026E-02
    9040.863     42.779   3.720  9.18487E-01  9.92074E-01 -7.35871E-02
    9042.003     43.919   3.760  9.21937E-01  9.91262E-01 -6.93256E-02
    9043.155     45.071   3.800  9.25420E-01  9.90507E-01 -6.50869E-02
    9044.320     46.235   3.840  9.29163E-01  9.89853E-01 -6.06902E-02
    9045.496     47.412   3.880  9.33550E-01  9.89281E-01 -5.57310E-02
    9046.685     48.600   3.920  9.39104E-01  9.88788E-01 -4.96840E-02
    9047.886     49.801   3.960  9.46320E-01  9.88354E-01 -4.20339E-02
    9049.099     51.014   4.000  9.55616E-01  9.88021E-01 -3.24046E-02
    9050.324     52.240   4.040  9.67047E-01  9.87769E-01 -2.07220E-02
    9051.562     53.477   4.080  9.80279E-01  9.87575E-01 -7.29593E-03
    9052.811     54.727   4.120  9.94745E-01  9.87483E-01  7.26210E-03
    9054.073     55.989   4.160  1.00962E+00  9.87468E-01  2.21545E-02
    9055.347     57.263   4.200  1.02401E+00  9.87509E-01  3.65006E-02
    9056.633     58.549   4.240  1.03717E+00  9.87626E-01  4.95395E-02
    9057.932     59.847   4.280  1.04862E+00  9.87817E-01  6.08047E-02
    9059.243     61.158   4.320  1.05802E+00  9.88062E-01  6.99624E-02
    9060.565     62.481   4.360  1.06490E+00  9.88402E-01  7.65002E-02
    9061.900     63.816   4.400  1.06865E+00  9.88769E-01  7.98808E-02
    9063.248     65.163   4.440  1.06889E+00  9.89205E-01  7.96872E-02
    9064.607     66.523   4.480  1.06559E+00  9.89709E-01  7.58832E-02
    9065.979     67.894   4.520  1.05916E+00  9.90236E-01  6.89237E-02
    9067.362     69.278   4.560  1.05040E+00  9.90828E-01  5.95751E-02
    9068.758     70.674   4.600  1.04013E+00  9.91458E-01  4.86697E-02
    9070.167     72.082   4.640  1.02917E+00  9.92106E-01  3.70645E-02
    9071.587     73.502   4.680  1.01848E+00  9.92812E-01  2.56667E-02
    9073.019     74.935   4.720  1.00885E+00  9.93532E-01  1.53188E-02
    9074.464     76.380   4.760  1.00091E+00  9.94283E-01  6.63080E-03
    9075.921     77.837   4.800  9.94948E-01  9.95044E-01 -9.58708E-05
    9077.390     79.306   4.840  9.91055E-01  9.95833E-01 -4.77835E-03
    9078.872     80.787   4.880  9.89156E-01  9.96628E-01 -7.47202E-03
    9080.365     82.281   4.920  9.89086E-01  9.97427E-01 -8.34055E-03
    9081.871     83.786   4.960  9.90673E-01  9.98247E-01 -7.57362E-03
    9083.389     85.304   5.000  9.93850E-01  9.99043E-01 -5.19333E-03
    9084.919     86.834   5.040  9.98953E-01  9.99836E-01 -8.83158E-04
    9086.461     88.377   5.080  1.00650E+00  1.00062E+00  5.88141E-03
    9088.016     89.931   5.120  1.01661E+00  1.00138E+00  1.52357E-02
    9089.582     91.498   5.160  1.02831E+00  1.00213E+00  2.61880E-02
    9091.161     93.077   5.200  1.03936E+00  1.00286E+00  3.64978E-02
    9092.752     94.668   5.240  1.04704E+00  1.00354E+00  4.35042E-02
    9094.355     96.271   5.280  1.04955E+00  1.00420E+00  4.53496E-02
    9095.971     97.886   5.320  1.04650E+00  1.00483E+00  4.16742E-02
    9097.598     99.514   5.360  1.03889E+00  1.00541E+00  3.34730E-02
    9099.238    101.154   5.400  1.02841E+00  1.00596E+00  2.24488E-02
    9100.890    102.806   5.440  1.01667E+00  1.00648E+00  1.01919E-02
    9102.554    104.470   5.480  1.00459E+00  1.00692E+00 -2.32409E-03
    9104.231    106.146   5.520  9.92697E-01  1.00733E+00 -1.46358E-02
    9105.919    107.835   5.560  9.81317E-01  1.00770E+00 -2.63850E-02
    9107.620    109.536   5.600  9.70881E-01  1.00800E+00 -3.71197E-02
    9109.333    111.249   5.640  9.61893E-01  1.00823E+00 -4.63359E-02
    9111.058    112.974   5.680  9.54905E-01  1.00843E+00 -5.35285E-02
    9112.796    114.711   5.720  9.50342E-01  1.00857E+00 -5.82239E-02
    9114.545    116.461   5.760  9.48588E-01  1.00863E+00 -6.00418E-02
    9116.307    118.222   5.800  9.49810E-01  1.00867E+00 -5.88572E-02
    9118.081    119.996   5.840  9.53722E-01  1.00861E+00 -5.48895E-02
    9119.867    121.783   5.880  9.59844E-01  1.00851E+00 -4.86635E-02
    9121.665    123.581   5.920  9.67510E-01  1.00836E+00 -4.08472E-02
    9123.476    125.391   5.960  9.75938E-01  1.00816E+00 -3.22181E-02
    9125.298    127.214   6.000  9.84525E-01  1.00784E+00 -2.33157E-02
