# # comment:                                                     FEFF 9.9.1  
# # Source:
# # Structure
# # Reduced
# # space
# # abc:
# # angles:
# # sites:
# # POT  SCF 100  7.0000   0, screened core-hole, AFOLP (folp(0)= 1.150)
# # Abs   Z=29 Rmt= 1.277 Rnm= 1.346 K  shell
# # Pot 1 Z=29 Rmt= 1.269 Rnm= 1.340
# # Pot 2 Z= 8 Rmt= 0.999 Rnm= 1.085
# # Pot 3 Z=73 Rmt= 1.324 Rnm= 1.469
# # Gam_ch=1.729E+00 H-L exch Vi= 0.000E+00 Vr= 0.000E+00
# # Mu=-5.819E+00eV kf=2.245E+00 Vint=-1.640E+01eV Rs_int= 1.615
# FMS rfms= 9.0000
# # PATH  Rmax=-1.000,  Keep_limit= 0.00, Heap_limit 0.00  Pwcrit= 2.50%
#  S02=0.950  Temp=   0.00  Debye_temp=   0.00  Global_sig2= 0.00000
#  Energy zero shift, vr, vi    0.00000E+00   0.00000E+00
#  Curved wave amplitude ratio filter   4.000%
#     file         sig2 tot  cw amp ratio   deg  nlegs   reff  inp sig2
#     0/   0 paths used
#  xsedge+ 50, used to normalize mu           2.4612E-04
#  -----------------------------------------------------------------------
#  omega    e    k    mu    mu0     chi     @#
    8983.597     -9.629  -1.000  5.35390E-02  5.84688E-02 -4.92977E-03
    8983.896     -9.331  -0.960  5.70940E-02  6.28692E-02 -5.77518E-03
    8984.182     -9.044  -0.920  6.09838E-02  6.77728E-02 -6.78900E-03
    8984.457     -8.770  -0.880  6.52479E-02  7.32552E-02 -8.00727E-03
    8984.719     -8.508  -0.840  6.99301E-02  7.94040E-02 -9.47387E-03
    8984.969     -8.258  -0.800  7.50795E-02  8.63213E-02 -1.12418E-02
    8985.206     -8.020  -0.760  8.07498E-02  9.41244E-02 -1.33746E-02
    8985.432     -7.794  -0.720  8.69990E-02  1.02946E-01 -1.59469E-02
    8985.645     -7.581  -0.680  9.38878E-02  1.12932E-01 -1.90444E-02
    8985.847     -7.380  -0.640  1.01477E-01  1.24238E-01 -2.27614E-02
    8986.035     -7.191  -0.600  1.09821E-01  1.37016E-01 -2.71950E-02
    8986.212     -7.014  -0.560  1.18961E-01  1.51396E-01 -3.24342E-02
    8986.377     -6.850  -0.520  1.28915E-01  1.67457E-01 -3.85413E-02
    8986.529     -6.697  -0.480  1.39658E-01  1.85184E-01 -4.55260E-02
    8986.669     -6.557  -0.440  1.51105E-01  2.04420E-01 -5.33158E-02
    8986.797     -6.429  -0.400  1.63097E-01  2.24828E-01 -6.17308E-02
    8986.913     -6.313  -0.360  1.75396E-01  2.45874E-01 -7.04783E-02
    8987.017     -6.210  -0.320  1.87685E-01  2.66865E-01 -7.91797E-02
    8987.108     -6.118  -0.280  1.99604E-01  2.87033E-01 -8.74288E-02
    8987.188     -6.039  -0.240  2.10776E-01  3.05640E-01 -9.48641E-02
    8987.255     -5.972  -0.200  2.20848E-01  3.22073E-01 -1.01225E-01
    8987.310     -5.917  -0.160  2.29512E-01  3.35886E-01 -1.06374E-01
    8987.352     -5.874  -0.120  2.36519E-01  3.46795E-01 -1.10276E-01
    8987.383     -5.844  -0.080  2.41683E-01  3.54649E-01 -1.12966E-01
    8987.407     -5.819   0.000  2.45962E-01  3.60955E-01 -1.14993E-01
    8987.462     -5.765   0.120  2.55507E-01  3.75167E-01 -1.19660E-01
    8987.505     -5.722   0.160  2.63055E-01  3.86181E-01 -1.23126E-01
    8987.559     -5.667   0.200  2.72986E-01  4.00229E-01 -1.27243E-01
    8987.627     -5.600   0.240  2.85467E-01  4.17100E-01 -1.31633E-01
    8987.706     -5.521   0.280  3.00623E-01  4.36409E-01 -1.35786E-01
    8987.797     -5.429   0.320  3.18606E-01  4.57628E-01 -1.39022E-01
    8987.901     -5.326   0.360  3.39473E-01  4.80107E-01 -1.40634E-01
    8988.017     -5.210   0.400  3.63165E-01  5.03132E-01 -1.39967E-01
    8988.145     -5.082   0.440  3.89422E-01  5.26073E-01 -1.36651E-01
    8988.285     -4.942   0.480  4.17743E-01  5.48424E-01 -1.30681E-01
    8988.437     -4.789   0.520  4.47475E-01  5.69854E-01 -1.22379E-01
    8988.602     -4.625   0.560  4.78393E-01  5.90242E-01 -1.11849E-01
    8988.779     -4.448   0.600  5.11351E-01  6.09529E-01 -9.81789E-02
    8988.968     -4.259   0.640  5.48823E-01  6.27790E-01 -7.89668E-02
    8989.169     -4.058   0.680  5.93946E-01  6.45117E-01 -5.11710E-02
    8989.382     -3.844   0.720  6.48205E-01  6.61642E-01 -1.34367E-02
    8989.608     -3.619   0.760  7.08646E-01  6.77457E-01  3.11887E-02
    8989.845     -3.381   0.800  7.67170E-01  6.92661E-01  7.45088E-02
    8990.095     -3.131   0.840  8.12638E-01  7.07361E-01  1.05277E-01
    8990.358     -2.869   0.880  8.35058E-01  7.21626E-01  1.13432E-01
    8990.632     -2.595   0.920  8.32876E-01  7.35512E-01  9.73646E-02
    8990.918     -2.308   0.960  8.14739E-01  7.49078E-01  6.56613E-02
    8991.217     -2.009   1.000  7.89489E-01  7.62312E-01  2.71764E-02
    8991.528     -1.698   1.040  7.59884E-01  7.75252E-01 -1.53680E-02
    8991.851     -1.375   1.080  7.27756E-01  7.87927E-01 -6.01703E-02
    8992.186     -1.040   1.120  7.00536E-01  8.00318E-01 -9.97818E-02
    8992.534     -0.693   1.160  6.87666E-01  8.12421E-01 -1.24756E-01
    8992.893     -0.333   1.200  6.93741E-01  8.24248E-01 -1.30507E-01
    8993.265      0.039   1.240  7.19217E-01  8.35764E-01 -1.16548E-01
    8993.649      0.423   1.280  7.58705E-01  8.46978E-01 -8.82728E-02
    8994.046      0.819   1.320  7.99516E-01  8.57889E-01 -5.83728E-02
    8994.454      1.228   1.360  8.35207E-01  8.68456E-01 -3.32493E-02
    8994.875      1.648   1.400  8.75969E-01  8.78662E-01 -2.69317E-03
    8995.307      2.081   1.440  9.25736E-01  8.88526E-01  3.72104E-02
    8995.752      2.526   1.480  9.66674E-01  8.98024E-01  6.86504E-02
    8996.210      2.983   1.520  9.88625E-01  9.07115E-01  8.15101E-02
    8996.679      3.453   1.560  1.00637E+00  9.15819E-01  9.05511E-02
    8997.161      3.934   1.600  1.03035E+00  9.24134E-01  1.06213E-01
    8997.654      4.428   1.640  1.05788E+00  9.32019E-01  1.25863E-01
    8998.160      4.934   1.680  1.09203E+00  9.39516E-01  1.52511E-01
    8998.679      5.452   1.720  1.13371E+00  9.46583E-01  1.87129E-01
    8999.209      5.982   1.760  1.18162E+00  9.53222E-01  2.28396E-01
    8999.751      6.525   1.800  1.22564E+00  9.59456E-01  2.66180E-01
    9000.306      7.080   1.840  1.24384E+00  9.65290E-01  2.78550E-01
    9000.873      7.647   1.880  1.22465E+00  9.70704E-01  2.53944E-01
    9001.452      8.226   1.920  1.18489E+00  9.75725E-01  2.09166E-01
    9002.044      8.817   1.960  1.15820E+00  9.80336E-01  1.77859E-01
    9002.647      9.421   2.000  1.15820E+00  9.84583E-01  1.73616E-01
    9003.263     10.036   2.040  1.16806E+00  9.88433E-01  1.79625E-01
    9003.891     10.664   2.080  1.16606E+00  9.91953E-01  1.74110E-01
    9004.531     11.304   2.120  1.15097E+00  9.95108E-01  1.55858E-01
    9005.183     11.956   2.160  1.13624E+00  9.97906E-01  1.38334E-01
    9005.847     12.621   2.200  1.13483E+00  1.00042E+00  1.34414E-01
    9006.524     13.298   2.240  1.15524E+00  1.00261E+00  1.52636E-01
    9007.213     13.986   2.280  1.19602E+00  1.00450E+00  1.91515E-01
    9007.914     14.687   2.320  1.23726E+00  1.00612E+00  2.31145E-01
    9008.627     15.401   2.360  1.24606E+00  1.00749E+00  2.38562E-01
    9009.353     16.126   2.400  1.20481E+00  1.00860E+00  1.96206E-01
    9010.090     16.864   2.440  1.13123E+00  1.00952E+00  1.21714E-01
    9010.840     17.614   2.480  1.05597E+00  1.01020E+00  4.57693E-02
    9011.602     18.376   2.520  9.96933E-01  1.01067E+00 -1.37411E-02
    9012.376     19.150   2.560  9.59297E-01  1.01098E+00 -5.16801E-02
    9013.163     19.936   2.600  9.39989E-01  1.01114E+00 -7.11467E-02
    9013.961     20.735   2.640  9.38504E-01  1.01111E+00 -7.26096E-02
    9014.772     21.545   2.680  9.50072E-01  1.01098E+00 -6.09081E-02
    9015.595     22.368   2.720  9.59394E-01  1.01070E+00 -5.13086E-02
    9016.430     23.204   2.760  9.61310E-01  1.01033E+00 -4.90170E-02
    9017.277     24.051   2.800  9.52594E-01  1.00986E+00 -5.72672E-02
    9018.137     24.910   2.840  9.33548E-01  1.00931E+00 -7.57633E-02
    9019.009     25.782   2.880  9.09592E-01  1.00868E+00 -9.90897E-02
    9019.893     26.666   2.920  8.86732E-01  1.00798E+00 -1.21248E-01
    9020.789     27.562   2.960  8.68575E-01  1.00725E+00 -1.38676E-01
    9021.697     28.470   3.000  8.55408E-01  1.00646E+00 -1.51049E-01
    9022.617     29.391   3.040  8.46502E-01  1.00565E+00 -1.59144E-01
    9023.550     30.324   3.080  8.41466E-01  1.00480E+00 -1.63338E-01
    9024.495     31.269   3.120  8.40032E-01  1.00395E+00 -1.63921E-01
    9025.452     32.226   3.160  8.41677E-01  1.00310E+00 -1.61422E-01
    9026.421     33.195   3.200  8.46203E-01  1.00224E+00 -1.56041E-01
    9027.403     34.176   3.240  8.54022E-01  1.00141E+00 -1.47393E-01
    9028.396     35.170   3.280  8.65333E-01  1.00059E+00 -1.35257E-01
    9029.402     36.176   3.320  8.80317E-01  9.99771E-01 -1.19454E-01
    9030.420     37.194   3.360  8.98750E-01  9.98983E-01 -1.00234E-01
    9031.450     38.224   3.400  9.19762E-01  9.98208E-01 -7.84461E-02
    9032.493     39.266   3.440  9.42074E-01  9.97491E-01 -5.54172E-02
    9033.548     40.321   3.480  9.64486E-01  9.96789E-01 -3.23030E-02
    9034.614     41.388   3.520  9.86231E-01  9.96148E-01 -9.91752E-03
    9035.693     42.467   3.560  1.00656E+00  9.95528E-01  1.10293E-02
    9036.784     43.558   3.600  1.02467E+00  9.94969E-01  2.97033E-02
    9037.888     44.661   3.640  1.03928E+00  9.94454E-01  4.48250E-02
    9039.003     45.777   3.680  1.04889E+00  9.93982E-01  5.49090E-02
    9040.131     46.905   3.720  1.05277E+00  9.93575E-01  5.92000E-02
    9041.271     48.045   3.760  1.05136E+00  9.93191E-01  5.81660E-02
    9042.423     49.197   3.800  1.04616E+00  9.92874E-01  5.32848E-02
    9043.588     50.361   3.840  1.03910E+00  9.92622E-01  4.64736E-02
    9044.764     51.538   3.880  1.03188E+00  9.92394E-01  3.94849E-02
    9045.953     52.726   3.920  1.02607E+00  9.92231E-01  3.38416E-02
    9047.154     53.927   3.960  1.02301E+00  9.92111E-01  3.09026E-02
    9048.367     55.140   4.000  1.02389E+00  9.92037E-01  3.18495E-02
    9049.592     56.366   4.040  1.02951E+00  9.92027E-01  3.74816E-02
    9050.830     57.603   4.080  1.03978E+00  9.92060E-01  4.77187E-02
    9052.079     58.853   4.120  1.05352E+00  9.92112E-01  6.14041E-02
    9053.341     60.115   4.160  1.06860E+00  9.92227E-01  7.63771E-02
    9054.615     61.389   4.200  1.08231E+00  9.92382E-01  8.99281E-02
    9055.901     62.675   4.240  1.09205E+00  9.92578E-01  9.94713E-02
    9057.200     63.973   4.280  1.09608E+00  9.92812E-01  1.03268E-01
    9058.511     65.284   4.320  1.09388E+00  9.93082E-01  1.00798E-01
    9059.833     66.607   4.360  1.08583E+00  9.93366E-01  9.24660E-02
    9061.168     67.942   4.400  1.07305E+00  9.93705E-01  7.93474E-02
    9062.516     69.289   4.440  1.05712E+00  9.94035E-01  6.30833E-02
    9063.875     70.649   4.480  1.04011E+00  9.94417E-01  4.56962E-02
    9065.247     72.020   4.520  1.02414E+00  9.94810E-01  2.93345E-02
    9066.630     73.404   4.560  1.01097E+00  9.95208E-01  1.57615E-02
    9068.026     74.800   4.600  1.00145E+00  9.95635E-01  5.81407E-03
    9069.435     76.208   4.640  9.95432E-01  9.96068E-01 -6.36210E-04
    9070.855     77.628   4.680  9.92141E-01  9.96526E-01 -4.38470E-03
    9072.287     79.061   4.720  9.90477E-01  9.96964E-01 -6.48692E-03
    9073.732     80.506   4.760  9.89467E-01  9.97422E-01 -7.95497E-03
    9075.189     81.963   4.800  9.88152E-01  9.97859E-01 -9.70742E-03
    9076.658     83.432   4.840  9.85759E-01  9.98315E-01 -1.25565E-02
    9078.140     84.913   4.880  9.81619E-01  9.98746E-01 -1.71262E-02
    9079.633     86.407   4.920  9.75347E-01  9.99171E-01 -2.38244E-02
    9081.139     87.912   4.960  9.66806E-01  9.99591E-01 -3.27856E-02
    9082.657     89.430   5.000  9.56311E-01  1.00000E+00 -4.36937E-02
    9084.187     90.960   5.040  9.44609E-01  1.00039E+00 -5.57779E-02
    9085.729     92.503   5.080  9.32815E-01  1.00073E+00 -6.79190E-02
    9087.284     94.057   5.120  9.22198E-01  1.00107E+00 -7.88726E-02
    9088.850     95.624   5.160  9.14002E-01  1.00137E+00 -8.73709E-02
    9090.429     97.203   5.200  9.09494E-01  1.00166E+00 -9.21701E-02
    9092.020     98.794   5.240  9.09675E-01  1.00192E+00 -9.22455E-02
    9093.623    100.397   5.280  9.15118E-01  1.00214E+00 -8.70230E-02
    9095.239    102.012   5.320  9.25744E-01  1.00235E+00 -7.66037E-02
    9096.866    103.640   5.360  9.40705E-01  1.00252E+00 -6.18134E-02
    9098.506    105.280   5.400  9.58567E-01  1.00265E+00 -4.40821E-02
    9100.158    106.932   5.440  9.77491E-01  1.00274E+00 -2.52487E-02
    9101.822    108.596   5.480  9.95512E-01  1.00279E+00 -7.27955E-03
    9103.499    110.272   5.520  1.01094E+00  1.00280E+00  8.13930E-03
    9105.187    111.961   5.560  1.02286E+00  1.00278E+00  2.00862E-02
    9106.888    113.662   5.600  1.03144E+00  1.00273E+00  2.87085E-02
    9108.601    115.375   5.640  1.03764E+00  1.00263E+00  3.50062E-02
    9110.326    117.100   5.680  1.04262E+00  1.00251E+00  4.01056E-02
    9112.064    118.837   5.720  1.04670E+00  1.00235E+00  4.43486E-02
    9113.813    120.587   5.760  1.04900E+00  1.00213E+00  4.68746E-02
    9115.575    122.348   5.800  1.04802E+00  1.00189E+00  4.61313E-02
    9117.349    124.122   5.840  1.04274E+00  1.00162E+00  4.11153E-02
    9119.135    125.909   5.880  1.03365E+00  1.00131E+00  3.23308E-02
    9120.933    127.707   5.920  1.02264E+00  1.00100E+00  2.16440E-02
    9122.744    129.517   5.960  1.01186E+00  1.00063E+00  1.12366E-02
    9124.567    131.340   6.000  1.00266E+00  1.00022E+00  2.43699E-03
