# # comment:                                                     FEFF 9.9.1  
# # Source:
# # Structure
# # Reduced
# # space
# # abc:
# # angles:
# # sites:
# # POT  SCF 100  7.0000   0, screened core-hole, AFOLP (folp(0)= 1.150)
# # Abs   Z=29 Rmt= 1.053 Rnm= 1.286 K  shell
# # Pot 1 Z=13 Rmt= 1.161 Rnm= 1.317
# # Pot 2 Z=29 Rmt= 1.053 Rnm= 1.286
# # Pot 3 Z= 8 Rmt= 0.920 Rnm= 1.148
# # Gam_ch=1.729E+00 H-L exch Vi= 0.000E+00 Vr= 0.000E+00
# # Mu=-7.898E+00eV kf=2.120E+00 Vint=-1.365E+01eV Rs_int= 1.711
# FMS rfms= 9.0000
# # PATH  Rmax=-1.000,  Keep_limit= 0.00, Heap_limit 0.00  Pwcrit= 2.50%
#  S02=0.950  Temp=   0.00  Debye_temp=   0.00  Global_sig2= 0.00000
#  Energy zero shift, vr, vi    0.00000E+00   0.00000E+00
#  Curved wave amplitude ratio filter   4.000%
#     file         sig2 tot  cw amp ratio   deg  nlegs   reff  inp sig2
#     0/   0 paths used
#  xsedge+ 50, used to normalize mu           2.4683E-04
#  -----------------------------------------------------------------------
#  omega    e    k    mu    mu0     chi     @#
    8983.556    -11.708  -1.000  3.28853E-02  4.90124E-02 -1.61271E-02
    8983.855    -11.409  -0.960  3.43732E-02  5.22836E-02 -1.79104E-02
    8984.141    -11.123  -0.920  3.59431E-02  5.58890E-02 -1.99459E-02
    8984.416    -10.848  -0.880  3.75992E-02  5.98748E-02 -2.22756E-02
    8984.678    -10.586  -0.840  3.93457E-02  6.42946E-02 -2.49489E-02
    8984.928    -10.336  -0.800  4.11865E-02  6.92100E-02 -2.80236E-02
    8985.166    -10.099  -0.760  4.31252E-02  7.46916E-02 -3.15664E-02
    8985.391     -9.873  -0.720  4.51651E-02  8.08184E-02 -3.56533E-02
    8985.605     -9.660  -0.680  4.73084E-02  8.76768E-02 -4.03685E-02
    8985.806     -9.458  -0.640  4.95562E-02  9.53577E-02 -4.58015E-02
    8985.995     -9.269  -0.600  5.19075E-02  1.03949E-01 -5.20417E-02
    8986.171     -9.093  -0.560  5.43578E-02  1.13525E-01 -5.91675E-02
    8986.336     -8.928  -0.520  5.68980E-02  1.24128E-01 -6.72300E-02
    8986.488     -8.776  -0.480  5.95117E-02  1.35742E-01 -7.62306E-02
    8986.629     -8.635  -0.440  6.21730E-02  1.48268E-01 -8.60945E-02
    8986.757     -8.507  -0.400  6.48450E-02  1.61494E-01 -9.66488E-02
    8986.872     -8.392  -0.360  6.74800E-02  1.75094E-01 -1.07614E-01
    8986.976     -8.288  -0.320  7.00222E-02  1.88642E-01 -1.18619E-01
    8987.068     -8.197  -0.280  7.24136E-02  2.01664E-01 -1.29250E-01
    8987.147     -8.117  -0.240  7.46000E-02  2.13700E-01 -1.39101E-01
    8987.214     -8.050  -0.200  7.65346E-02  2.24361E-01 -1.47826E-01
    8987.269     -7.995  -0.160  7.81795E-02  2.33352E-01 -1.55172E-01
    8987.311     -7.953  -0.120  7.95043E-02  2.40478E-01 -1.60974E-01
    8987.342     -7.922  -0.080  8.04877E-02  2.45625E-01 -1.65137E-01
    8987.366     -7.898   0.000  8.13466E-02  2.49771E-01 -1.68424E-01
    8987.421     -7.843   0.120  8.35136E-02  2.59139E-01 -1.75625E-01
    8987.464     -7.800   0.160  8.50534E-02  2.66453E-01 -1.81399E-01
    8987.519     -7.745   0.200  8.69912E-02  2.75838E-01 -1.88847E-01
    8987.586     -7.678   0.240  8.93234E-02  2.87209E-01 -1.97886E-01
    8987.665     -7.599   0.280  9.20614E-02  3.00403E-01 -2.08341E-01
    8987.756     -7.508   0.320  9.51936E-02  3.15148E-01 -2.19954E-01
    8987.860     -7.404   0.360  9.88210E-02  3.31138E-01 -2.32317E-01
    8987.976     -7.288   0.400  1.03006E-01  3.48001E-01 -2.44995E-01
    8988.104     -7.160   0.440  1.07880E-01  3.65431E-01 -2.57552E-01
    8988.244     -7.020   0.480  1.13659E-01  3.83139E-01 -2.69480E-01
    8988.396     -6.868   0.520  1.20638E-01  4.01007E-01 -2.80369E-01
    8988.561     -6.703   0.560  1.29183E-01  4.18923E-01 -2.89740E-01
    8988.738     -6.526   0.600  1.39841E-01  4.36879E-01 -2.97038E-01
    8988.927     -6.337   0.640  1.53352E-01  4.54915E-01 -3.01563E-01
    8989.128     -6.136   0.680  1.70781E-01  4.73067E-01 -3.02285E-01
    8989.341     -5.923   0.720  1.93636E-01  4.91381E-01 -2.97745E-01
    8989.567     -5.697   0.760  2.24127E-01  5.09919E-01 -2.85792E-01
    8989.805     -5.459   0.800  2.65131E-01  5.28692E-01 -2.63561E-01
    8990.055     -5.210   0.840  3.19881E-01  5.47746E-01 -2.27865E-01
    8990.317     -4.947   0.880  3.90460E-01  5.67089E-01 -1.76629E-01
    8990.591     -4.673   0.920  4.75127E-01  5.86683E-01 -1.11556E-01
    8990.878     -4.387   0.960  5.64367E-01  6.06541E-01 -4.21739E-02
    8991.176     -4.088   1.000  6.35066E-01  6.26621E-01  8.44518E-03
    8991.487     -3.777   1.040  6.55834E-01  6.46880E-01  8.95423E-03
    8991.810     -3.454   1.080  6.17757E-01  6.67285E-01 -4.95287E-02
    8992.146     -3.119   1.120  5.49814E-01  6.87780E-01 -1.37965E-01
    8992.493     -2.771   1.160  4.89466E-01  7.08299E-01 -2.18833E-01
    8992.853     -2.411   1.200  4.55633E-01  7.28780E-01 -2.73147E-01
    8993.224     -2.040   1.240  4.48492E-01  7.49132E-01 -3.00640E-01
    8993.609     -1.656   1.280  4.57259E-01  7.69326E-01 -3.12068E-01
    8994.005     -1.259   1.320  4.68542E-01  7.89270E-01 -3.20727E-01
    8994.413     -0.851   1.360  4.75624E-01  8.08909E-01 -3.33286E-01
    8994.834     -0.430   1.400  4.80925E-01  8.28133E-01 -3.47208E-01
    8995.267      0.003   1.440  4.91339E-01  8.46910E-01 -3.55571E-01
    8995.712      0.448   1.480  5.10840E-01  8.65170E-01 -3.54330E-01
    8996.169      0.905   1.520  5.39424E-01  8.82864E-01 -3.43440E-01
    8996.638      1.374   1.560  5.77270E-01  8.99904E-01 -3.22635E-01
    8997.120      1.856   1.600  6.25346E-01  9.16269E-01 -2.90922E-01
    8997.614      2.349   1.640  6.82150E-01  9.31894E-01 -2.49744E-01
    8998.120      2.855   1.680  7.41028E-01  9.46762E-01 -2.05734E-01
    8998.638      3.374   1.720  7.98192E-01  9.60820E-01 -1.62628E-01
    8999.168      3.904   1.760  8.55800E-01  9.74053E-01 -1.18253E-01
    8999.711      4.446   1.800  9.10252E-01  9.86452E-01 -7.61995E-02
    9000.265      5.001   1.840  9.58623E-01  9.97992E-01 -3.93688E-02
    9000.832      5.568   1.880  1.00495E+00  1.00865E+00 -3.70299E-03
    9001.411      6.147   1.920  1.03698E+00  1.01847E+00  1.85084E-02
    9002.003      6.739   1.960  1.03571E+00  1.02743E+00  8.28296E-03
    9002.606      7.342   2.000  1.01125E+00  1.03553E+00 -2.42857E-02
    9003.222      7.958   2.040  9.93363E-01  1.04280E+00 -4.94337E-02
    9003.850      8.586   2.080  9.99368E-01  1.04926E+00 -4.98949E-02
    9004.490      9.226   2.120  1.02949E+00  1.05493E+00 -2.54403E-02
    9005.142      9.878   2.160  1.07578E+00  1.05984E+00  1.59381E-02
    9005.807     10.542   2.200  1.12904E+00  1.06402E+00  6.50161E-02
    9006.483     11.219   2.240  1.18086E+00  1.06749E+00  1.13377E-01
    9007.172     11.908   2.280  1.21702E+00  1.07029E+00  1.46729E-01
    9007.873     12.609   2.320  1.22549E+00  1.07247E+00  1.53027E-01
    9008.586     13.322   2.360  1.20861E+00  1.07404E+00  1.34568E-01
    9009.312     14.048   2.400  1.18201E+00  1.07505E+00  1.06961E-01
    9010.049     14.785   2.440  1.16713E+00  1.07552E+00  9.16053E-02
    9010.799     15.535   2.480  1.16784E+00  1.07551E+00  9.23247E-02
    9011.561     16.297   2.520  1.17117E+00  1.07505E+00  9.61214E-02
    9012.335     17.071   2.560  1.17458E+00  1.07417E+00  1.00405E-01
    9013.122     17.858   2.600  1.17831E+00  1.07292E+00  1.05385E-01
    9013.920     18.656   2.640  1.17743E+00  1.07132E+00  1.06114E-01
    9014.731     19.467   2.680  1.17054E+00  1.06941E+00  1.01125E-01
    9015.554     20.290   2.720  1.16032E+00  1.06720E+00  9.31233E-02
    9016.389     21.125   2.760  1.15041E+00  1.06473E+00  8.56761E-02
    9017.237     21.972   2.800  1.14338E+00  1.06206E+00  8.13262E-02
    9018.096     22.832   2.840  1.14021E+00  1.05918E+00  8.10220E-02
    9018.968     23.704   2.880  1.13985E+00  1.05616E+00  8.36908E-02
    9019.852     24.588   2.920  1.14050E+00  1.05297E+00  8.75342E-02
    9020.748     25.484   2.960  1.14086E+00  1.04967E+00  9.11931E-02
    9021.656     26.392   3.000  1.14004E+00  1.04626E+00  9.37756E-02
    9022.577     27.312   3.040  1.13730E+00  1.04279E+00  9.45084E-02
    9023.509     28.245   3.080  1.13177E+00  1.03926E+00  9.25116E-02
    9024.454     29.190   3.120  1.12254E+00  1.03568E+00  8.68572E-02
    9025.411     30.147   3.160  1.10911E+00  1.03209E+00  7.70150E-02
    9026.381     31.116   3.200  1.09202E+00  1.02850E+00  6.35168E-02
    9027.362     32.098   3.240  1.07269E+00  1.02492E+00  4.77710E-02
    9028.356     33.091   3.280  1.05259E+00  1.02136E+00  3.12276E-02
    9029.361     34.097   3.320  1.03296E+00  1.01785E+00  1.51072E-02
    9030.379     35.115   3.360  1.01463E+00  1.01438E+00  2.49340E-04
    9031.410     36.146   3.400  9.97875E-01  1.01095E+00 -1.30760E-02
    9032.452     37.188   3.440  9.82533E-01  1.00760E+00 -2.50685E-02
    9033.507     38.243   3.480  9.68314E-01  1.00435E+00 -3.60352E-02
    9034.573     39.309   3.520  9.54932E-01  1.00117E+00 -4.62353E-02
    9035.652     40.388   3.560  9.42418E-01  9.98087E-01 -5.56686E-02
    9036.744     41.480   3.600  9.31165E-01  9.95087E-01 -6.39221E-02
    9037.847     42.583   3.640  9.22011E-01  9.92214E-01 -7.02032E-02
    9038.963     43.698   3.680  9.15521E-01  9.89455E-01 -7.39339E-02
    9040.090     44.826   3.720  9.11854E-01  9.86789E-01 -7.49354E-02
    9041.230     45.966   3.760  9.10740E-01  9.84271E-01 -7.35311E-02
    9042.382     47.118   3.800  9.11334E-01  9.81844E-01 -7.05104E-02
    9043.547     48.283   3.840  9.12621E-01  9.79559E-01 -6.69380E-02
    9044.723     49.459   3.880  9.13758E-01  9.77408E-01 -6.36506E-02
    9045.912     50.648   3.920  9.14463E-01  9.75409E-01 -6.09462E-02
    9047.113     51.849   3.960  9.14908E-01  9.73512E-01 -5.86039E-02
    9048.326     53.062   4.000  9.15674E-01  9.71759E-01 -5.60851E-02
    9049.551     54.287   4.040  9.17371E-01  9.70154E-01 -5.27828E-02
    9050.789     55.525   4.080  9.20398E-01  9.68682E-01 -4.82845E-02
    9052.038     56.774   4.120  9.24782E-01  9.67336E-01 -4.25533E-02
    9053.300     58.036   4.160  9.30265E-01  9.66117E-01 -3.58513E-02
    9054.574     59.310   4.200  9.36350E-01  9.65047E-01 -2.86968E-02
    9055.861     60.596   4.240  9.42378E-01  9.64126E-01 -2.17478E-02
    9057.159     61.895   4.280  9.47599E-01  9.63311E-01 -1.57119E-02
    9058.470     63.206   4.320  9.51425E-01  9.62643E-01 -1.12179E-02
    9059.793     64.528   4.360  9.53465E-01  9.62102E-01 -8.63669E-03
    9061.128     65.863   4.400  9.53874E-01  9.61707E-01 -7.83280E-03
    9062.475     67.211   4.440  9.53199E-01  9.61414E-01 -8.21493E-03
    9063.834     68.570   4.480  9.52220E-01  9.61264E-01 -9.04437E-03
    9065.206     69.942   4.520  9.51581E-01  9.61237E-01 -9.65574E-03
    9066.590     71.325   4.560  9.51782E-01  9.61307E-01 -9.52440E-03
    9067.986     72.721   4.600  9.53242E-01  9.61516E-01 -8.27398E-03
    9069.394     74.130   4.640  9.56087E-01  9.61820E-01 -5.73326E-03
    9070.814     75.550   4.680  9.60245E-01  9.62238E-01 -1.99329E-03
    9072.247     76.982   4.720  9.65300E-01  9.62748E-01  2.55145E-03
    9073.691     78.427   4.760  9.70700E-01  9.63371E-01  7.32927E-03
    9075.148     79.884   4.800  9.75915E-01  9.64104E-01  1.18109E-02
    9076.617     81.353   4.840  9.80574E-01  9.64922E-01  1.56522E-02
    9078.099     82.835   4.880  9.84563E-01  9.65800E-01  1.87630E-02
    9079.592     84.328   4.920  9.88122E-01  9.66781E-01  2.13407E-02
    9081.098     85.834   4.960  9.91629E-01  9.67844E-01  2.37848E-02
    9082.616     87.352   5.000  9.95484E-01  9.68982E-01  2.65011E-02
    9084.146     88.882   5.040  9.99774E-01  9.70173E-01  2.96017E-02
    9085.688     90.424   5.080  1.00421E+00  9.71434E-01  3.27813E-02
    9087.243     91.979   5.120  1.00825E+00  9.72741E-01  3.55135E-02
    9088.809     93.545   5.160  1.01143E+00  9.74093E-01  3.73378E-02
    9090.388     95.124   5.200  1.01354E+00  9.75508E-01  3.80320E-02
    9091.979     96.715   5.240  1.01453E+00  9.76940E-01  3.75910E-02
    9093.583     98.318   5.280  1.01453E+00  9.78408E-01  3.61231E-02
    9095.198     99.934   5.320  1.01376E+00  9.79909E-01  3.38529E-02
    9096.826    101.561   5.360  1.01260E+00  9.81419E-01  3.11847E-02
    9098.465    103.201   5.400  1.01164E+00  9.82958E-01  2.86789E-02
    9100.117    104.853   5.440  1.01135E+00  9.84501E-01  2.68497E-02
    9101.782    106.517   5.480  1.01197E+00  9.86040E-01  2.59331E-02
    9103.458    108.194   5.520  1.01340E+00  9.87554E-01  2.58429E-02
    9105.147    109.882   5.560  1.01541E+00  9.89083E-01  2.63253E-02
    9106.847    111.583   5.600  1.01758E+00  9.90558E-01  2.70200E-02
    9108.560    113.296   5.640  1.01939E+00  9.92044E-01  2.73435E-02
    9110.285    115.021   5.680  1.01990E+00  9.93471E-01  2.64330E-02
    9112.023    116.759   5.720  1.01829E+00  9.94880E-01  2.34078E-02
    9113.772    118.508   5.760  1.01405E+00  9.96247E-01  1.77995E-02
    9115.534    120.270   5.800  1.00740E+00  9.97542E-01  9.85747E-03
    9117.308    122.044   5.840  9.99266E-01  9.98785E-01  4.80609E-04
    9119.094    123.830   5.880  9.90888E-01  9.99973E-01 -9.08496E-03
    9120.892    125.628   5.920  9.83432E-01  1.00107E+00 -1.76378E-02
    9122.703    127.439   5.960  9.77854E-01  1.00205E+00 -2.42002E-02
    9124.526    129.262   6.000  9.74854E-01  1.00294E+00 -2.80883E-02
