# # comment:                                                     FEFF 9.9.1  
# # Source:
# # Structure
# # Reduced
# # space
# # abc:
# # angles:
# # sites:
# # POT  SCF 100  7.0000   0, screened core-hole, AFOLP (folp(0)= 1.150)
# # Abs   Z=29 Rmt= 1.270 Rnm= 1.335 K  shell
# # Pot 1 Z= 3 Rmt= 1.337 Rnm= 1.400
# # Pot 2 Z=29 Rmt= 1.256 Rnm= 1.339
# # Pot 3 Z=51 Rmt= 1.322 Rnm= 1.464
# # Pot 4 Z= 8 Rmt= 1.067 Rnm= 1.127
# # Gam_ch=1.729E+00 H-L exch Vi= 0.000E+00 Vr= 0.000E+00
# # Mu=-7.553E+00eV kf=2.063E+00 Vint=-1.533E+01eV Rs_int= 1.758
# FMS rfms= 9.0000
# # PATH  Rmax=-1.000,  Keep_limit= 0.00, Heap_limit 0.00  Pwcrit= 2.50%
#  S02=0.950  Temp=   0.00  Debye_temp=   0.00  Global_sig2= 0.00000
#  Energy zero shift, vr, vi    0.00000E+00   0.00000E+00
#  Curved wave amplitude ratio filter   4.000%
#     file         sig2 tot  cw amp ratio   deg  nlegs   reff  inp sig2
#     0/   0 paths used
#  xsedge+ 50, used to normalize mu           2.4390E-04
#  -----------------------------------------------------------------------
#  omega    e    k    mu    mu0     chi     @#
    8984.000    -11.363  -1.000  3.66271E-02  5.67694E-02 -2.01423E-02
    8984.299    -11.065  -0.960  3.83448E-02  6.09502E-02 -2.26054E-02
    8984.585    -10.778  -0.920  4.01785E-02  6.55980E-02 -2.54195E-02
    8984.859    -10.504  -0.880  4.21421E-02  7.07813E-02 -2.86392E-02
    8985.121    -10.242  -0.840  4.42522E-02  7.65799E-02 -3.23277E-02
    8985.371     -9.992  -0.800  4.65287E-02  8.30863E-02 -3.65576E-02
    8985.609     -9.754  -0.760  4.89950E-02  9.04065E-02 -4.14116E-02
    8985.835     -9.528  -0.720  5.16781E-02  9.86602E-02 -4.69821E-02
    8986.048     -9.315  -0.680  5.46089E-02  1.07979E-01 -5.33700E-02
    8986.249     -9.114  -0.640  5.78209E-02  1.18502E-01 -6.06809E-02
    8986.438     -8.925  -0.600  6.13472E-02  1.30365E-01 -6.90179E-02
    8986.615     -8.748  -0.560  6.52165E-02  1.43685E-01 -7.84686E-02
    8986.780     -8.583  -0.520  6.94446E-02  1.58531E-01 -8.90861E-02
    8986.932     -8.431  -0.480  7.40239E-02  1.74886E-01 -1.00863E-01
    8987.072     -8.291  -0.440  7.89101E-02  1.92609E-01 -1.13699E-01
    8987.200     -8.163  -0.400  8.40117E-02  2.11391E-01 -1.27379E-01
    8987.316     -8.047  -0.360  8.91871E-02  2.30748E-01 -1.41561E-01
    8987.420     -7.943  -0.320  9.42551E-02  2.50053E-01 -1.55797E-01
    8987.511     -7.852  -0.280  9.90214E-02  2.68607E-01 -1.69585E-01
    8987.590     -7.773  -0.240  1.03310E-01  2.85738E-01 -1.82428E-01
    8987.657     -7.706  -0.200  1.06991E-01  3.00883E-01 -1.93892E-01
    8987.712     -7.651  -0.160  1.09994E-01  3.13628E-01 -2.03633E-01
    8987.755     -7.608  -0.120  1.12299E-01  3.23706E-01 -2.11406E-01
    8987.785     -7.578  -0.080  1.13919E-01  3.30969E-01 -2.17050E-01
    8987.810     -7.553   0.000  1.15189E-01  3.36805E-01 -2.21616E-01
    8987.865     -7.498   0.120  1.17878E-01  3.49966E-01 -2.32088E-01
    8987.907     -7.456   0.160  1.19853E-01  3.60185E-01 -2.40332E-01
    8987.962     -7.401   0.200  1.22235E-01  3.73273E-01 -2.51038E-01
    8988.029     -7.334   0.240  1.24820E-01  3.89021E-01 -2.64202E-01
    8988.109     -7.255   0.280  1.27353E-01  4.07105E-01 -2.79752E-01
    8988.200     -7.163   0.320  1.29615E-01  4.27121E-01 -2.97506E-01
    8988.304     -7.059   0.360  1.31347E-01  4.48450E-01 -3.17104E-01
    8988.419     -6.944   0.400  1.32491E-01  4.70521E-01 -3.38030E-01
    8988.547     -6.816   0.440  1.33170E-01  4.92768E-01 -3.59598E-01
    8988.688     -6.675   0.480  1.33744E-01  5.14771E-01 -3.81027E-01
    8988.840     -6.523   0.520  1.34648E-01  5.36217E-01 -4.01569E-01
    8989.005     -6.358   0.560  1.36379E-01  5.56958E-01 -4.20579E-01
    8989.181     -6.182   0.600  1.39405E-01  5.76978E-01 -4.37573E-01
    8989.370     -5.993   0.640  1.44063E-01  5.96308E-01 -4.52245E-01
    8989.572     -5.791   0.680  1.50752E-01  6.14999E-01 -4.64246E-01
    8989.785     -5.578   0.720  1.59955E-01  6.33133E-01 -4.73178E-01
    8990.010     -5.353   0.760  1.72514E-01  6.50813E-01 -4.78299E-01
    8990.248     -5.115   0.800  1.89507E-01  6.68070E-01 -4.78563E-01
    8990.498     -4.865   0.840  2.12437E-01  6.84982E-01 -4.72545E-01
    8990.760     -4.603   0.880  2.42621E-01  7.01571E-01 -4.58950E-01
    8991.035     -4.328   0.920  2.80071E-01  7.17846E-01 -4.37775E-01
    8991.321     -4.042   0.960  3.21609E-01  7.33824E-01 -4.12215E-01
    8991.620     -3.743   1.000  3.59895E-01  7.49512E-01 -3.89617E-01
    8991.931     -3.432   1.040  3.87205E-01  7.64866E-01 -3.77661E-01
    8992.254     -3.109   1.080  4.02326E-01  7.79918E-01 -3.77592E-01
    8992.589     -2.774   1.120  4.11922E-01  7.94612E-01 -3.82689E-01
    8992.937     -2.427   1.160  4.26126E-01  8.08908E-01 -3.82781E-01
    8993.296     -2.067   1.200  4.52341E-01  8.22824E-01 -3.70483E-01
    8993.668     -1.695   1.240  4.90971E-01  8.36297E-01 -3.45325E-01
    8994.052     -1.311   1.280  5.35682E-01  8.49299E-01 -3.13617E-01
    8994.448     -0.915   1.320  5.81395E-01  8.61826E-01 -2.80431E-01
    8994.857     -0.506   1.360  6.31612E-01  8.73830E-01 -2.42218E-01
    8995.277     -0.086   1.400  6.95819E-01  8.85327E-01 -1.89507E-01
    8995.710      0.347   1.440  7.90462E-01  8.96251E-01 -1.05790E-01
    8996.155      0.792   1.480  9.29580E-01  9.06620E-01  2.29602E-02
    8996.612      1.249   1.520  1.10178E+00  9.16410E-01  1.85375E-01
    8997.082      1.719   1.560  1.26698E+00  9.25622E-01  3.41355E-01
    8997.563      2.200   1.600  1.38993E+00  9.34235E-01  4.55692E-01
    8998.057      2.694   1.640  1.48107E+00  9.42296E-01  5.38778E-01
    8998.563      3.200   1.680  1.57838E+00  9.49767E-01  6.28614E-01
    8999.081      3.718   1.720  1.70802E+00  9.56672E-01  7.51344E-01
    8999.612      4.249   1.760  1.83577E+00  9.63000E-01  8.72773E-01
    9000.154      4.791   1.800  1.87952E+00  9.68800E-01  9.10721E-01
    9000.709      5.346   1.840  1.81070E+00  9.74079E-01  8.36620E-01
    9001.276      5.913   1.880  1.67983E+00  9.78851E-01  7.00975E-01
    9001.855      6.492   1.920  1.53603E+00  9.83125E-01  5.52904E-01
    9002.446      7.083   1.960  1.39388E+00  9.86932E-01  4.06946E-01
    9003.050      7.687   2.000  1.26074E+00  9.90306E-01  2.70433E-01
    9003.665      8.302   2.040  1.14570E+00  9.93239E-01  1.52464E-01
    9004.293      8.930   2.080  1.05520E+00  9.95805E-01  5.93910E-02
    9004.933      9.570   2.120  9.87546E-01  9.97978E-01 -1.04324E-02
    9005.586     10.223   2.160  9.35086E-01  9.99832E-01 -6.47461E-02
    9006.250     10.887   2.200  8.95783E-01  1.00136E+00 -1.05575E-01
    9006.927     11.564   2.240  8.73821E-01  1.00259E+00 -1.28768E-01
    9007.616     12.253   2.280  8.70536E-01  1.00354E+00 -1.33005E-01
    9008.317     12.954   2.320  8.81104E-01  1.00426E+00 -1.23159E-01
    9009.030     13.667   2.360  8.97664E-01  1.00477E+00 -1.07106E-01
    9009.755     14.392   2.400  9.16853E-01  1.00507E+00 -8.82200E-02
    9010.493     15.130   2.440  9.42079E-01  1.00518E+00 -6.31022E-02
    9011.243     15.880   2.480  9.72979E-01  1.00515E+00 -3.21685E-02
    9012.005     16.642   2.520  9.98274E-01  1.00498E+00 -6.70879E-03
    9012.779     17.416   2.560  1.01240E+00  1.00470E+00  7.70352E-03
    9013.565     18.202   2.600  1.01581E+00  1.00432E+00  1.14926E-02
    9014.364     19.001   2.640  1.00888E+00  1.00385E+00  5.02639E-03
    9015.175     19.812   2.680  9.91876E-01  1.00331E+00 -1.14357E-02
    9015.998     20.635   2.720  9.67471E-01  1.00272E+00 -3.52510E-02
    9016.833     21.470   2.760  9.40388E-01  1.00209E+00 -6.17034E-02
    9017.680     22.317   2.800  9.13796E-01  1.00145E+00 -8.76502E-02
    9018.540     23.177   2.840  8.89914E-01  1.00077E+00 -1.10859E-01
    9019.411     24.048   2.880  8.69345E-01  1.00012E+00 -1.30771E-01
    9020.295     24.932   2.920  8.51667E-01  9.99440E-01 -1.47773E-01
    9021.191     25.828   2.960  8.37026E-01  9.98792E-01 -1.61765E-01
    9022.100     26.737   3.000  8.25425E-01  9.98175E-01 -1.72750E-01
    9023.020     27.657   3.040  8.17401E-01  9.97593E-01 -1.80193E-01
    9023.953     28.590   3.080  8.13886E-01  9.97027E-01 -1.83141E-01
    9024.898     29.535   3.120  8.15750E-01  9.96502E-01 -1.80752E-01
    9025.855     30.492   3.160  8.23558E-01  9.96041E-01 -1.72483E-01
    9026.824     31.461   3.200  8.37553E-01  9.95626E-01 -1.58073E-01
    9027.805     32.442   3.240  8.57536E-01  9.95279E-01 -1.37742E-01
    9028.799     33.436   3.280  8.82403E-01  9.94980E-01 -1.12577E-01
    9029.805     34.442   3.320  9.11102E-01  9.94730E-01 -8.36286E-02
    9030.823     35.460   3.360  9.42383E-01  9.94552E-01 -5.21696E-02
    9031.853     36.490   3.400  9.74453E-01  9.94447E-01 -1.99938E-02
    9032.896     37.533   3.440  1.00527E+00  9.94392E-01  1.08737E-02
    9033.950     38.587   3.480  1.03293E+00  9.94410E-01  3.85216E-02
    9035.017     39.654   3.520  1.05579E+00  9.94479E-01  6.13065E-02
    9036.096     40.733   3.560  1.07285E+00  9.94620E-01  7.82327E-02
    9037.187     41.824   3.600  1.08442E+00  9.94833E-01  8.95860E-02
    9038.291     42.928   3.640  1.09178E+00  9.95095E-01  9.66851E-02
    9039.406     44.043   3.680  1.09652E+00  9.95406E-01  1.01118E-01
    9040.534     45.171   3.720  1.10005E+00  9.95787E-01  1.04263E-01
    9041.674     46.311   3.760  1.10277E+00  9.96236E-01  1.06530E-01
    9042.826     47.463   3.800  1.10418E+00  9.96709E-01  1.07472E-01
    9043.990     48.627   3.840  1.10363E+00  9.97247E-01  1.06382E-01
    9045.167     49.804   3.880  1.10069E+00  9.97828E-01  1.02867E-01
    9046.356     50.993   3.920  1.09549E+00  9.98449E-01  9.70434E-02
    9047.556     52.193   3.960  1.08843E+00  9.99110E-01  8.93198E-02
    9048.770     53.407   4.000  1.07998E+00  9.99809E-01  8.01740E-02
    9049.995     54.632   4.040  1.07039E+00  1.00054E+00  6.98520E-02
    9051.232     55.869   4.080  1.05974E+00  1.00129E+00  5.84513E-02
    9052.482     57.119   4.120  1.04829E+00  1.00207E+00  4.62265E-02
    9053.744     58.381   4.160  1.03666E+00  1.00287E+00  3.37888E-02
    9055.018     59.655   4.200  1.02559E+00  1.00366E+00  2.19315E-02
    9056.304     60.941   4.240  1.01570E+00  1.00447E+00  1.12288E-02
    9057.603     62.240   4.280  1.00703E+00  1.00529E+00  1.73792E-03
    9058.913     63.550   4.320  9.99134E-01  1.00610E+00 -6.96998E-03
    9060.236     64.873   4.360  9.91556E-01  1.00692E+00 -1.53615E-02
    9061.571     66.208   4.400  9.84220E-01  1.00773E+00 -2.35060E-02
    9062.918     67.555   4.440  9.77537E-01  1.00853E+00 -3.09916E-02
    9064.278     68.915   4.480  9.72209E-01  1.00930E+00 -3.70894E-02
    9065.649     70.286   4.520  9.69036E-01  1.01004E+00 -4.09999E-02
    9067.033     71.670   4.560  9.68583E-01  1.01076E+00 -4.21782E-02
    9068.429     73.066   4.600  9.71026E-01  1.01147E+00 -4.04461E-02
    9069.837     74.474   4.640  9.76028E-01  1.01212E+00 -3.60971E-02
    9071.258     75.895   4.680  9.82864E-01  1.01276E+00 -2.98952E-02
    9072.690     77.327   4.720  9.90600E-01  1.01335E+00 -2.27512E-02
    9074.135     78.772   4.760  9.98497E-01  1.01388E+00 -1.53841E-02
    9075.592     80.229   4.800  1.00608E+00  1.01439E+00 -8.30701E-03
    9077.061     81.698   4.840  1.01290E+00  1.01485E+00 -1.95173E-03
    9078.542     83.179   4.880  1.01839E+00  1.01525E+00  3.14106E-03
    9080.036     84.673   4.920  1.02187E+00  1.01560E+00  6.26456E-03
    9081.542     86.178   4.960  1.02284E+00  1.01591E+00  6.93046E-03
    9083.059     87.696   5.000  1.02140E+00  1.01616E+00  5.23898E-03
    9084.589     89.226   5.040  1.01814E+00  1.01635E+00  1.78486E-03
    9086.132     90.769   5.080  1.01369E+00  1.01649E+00 -2.79685E-03
    9087.686     92.323   5.120  1.00842E+00  1.01659E+00 -8.16426E-03
    9089.253     93.890   5.160  1.00253E+00  1.01663E+00 -1.41075E-02
    9090.832     95.469   5.200  9.96363E-01  1.01661E+00 -2.02443E-02
    9092.423     97.060   5.240  9.90552E-01  1.01651E+00 -2.59581E-02
    9094.026     98.663   5.280  9.85801E-01  1.01639E+00 -3.05881E-02
    9095.642    100.278   5.320  9.82492E-01  1.01620E+00 -3.37082E-02
    9097.269    101.906   5.360  9.80734E-01  1.01597E+00 -3.52321E-02
    9098.909    103.546   5.400  9.80304E-01  1.01569E+00 -3.53831E-02
    9100.561    105.198   5.440  9.80856E-01  1.01536E+00 -3.45077E-02
    9102.225    106.862   5.480  9.82154E-01  1.01497E+00 -3.28195E-02
    9103.902    108.539   5.520  9.84342E-01  1.01456E+00 -3.02201E-02
    9105.590    110.227   5.560  9.87738E-01  1.01409E+00 -2.63507E-02
    9107.291    111.928   5.600  9.92874E-01  1.01360E+00 -2.07223E-02
    9109.004    113.641   5.640  1.00008E+00  1.01304E+00 -1.29613E-02
    9110.729    115.366   5.680  1.00940E+00  1.01248E+00 -3.08005E-03
    9112.466    117.103   5.720  1.02027E+00  1.01188E+00  8.39476E-03
    9114.216    118.853   5.760  1.03180E+00  1.01126E+00  2.05403E-02
    9115.978    120.615   5.800  1.04295E+00  1.01062E+00  3.23274E-02
    9117.752    122.389   5.840  1.05276E+00  1.00995E+00  4.28108E-02
    9119.538    124.175   5.880  1.06042E+00  1.00927E+00  5.11499E-02
    9121.336    125.973   5.920  1.06513E+00  1.00857E+00  5.65626E-02
    9123.147    127.784   5.960  1.06625E+00  1.00788E+00  5.83727E-02
    9124.969    129.606   6.000  1.06315E+00  1.00718E+00  5.59693E-02
