# # comment:                                                     FEFF 9.9.1  
# # Source:
# # Structure
# # Reduced
# # space
# # abc:
# # angles:
# # sites:
# # POT  SCF 100  7.0000   0, screened core-hole, AFOLP (folp(0)= 1.150)
# # Abs   Z=29 Rmt= 1.345 Rnm= 1.411 K  shell
# # Pot 1 Z= 3 Rmt= 1.312 Rnm= 1.365
# # Pot 2 Z=29 Rmt= 1.341 Rnm= 1.406
# # Pot 3 Z= 6 Rmt= 0.715 Rnm= 0.927
# # Pot 4 Z= 8 Rmt= 0.860 Rnm= 1.009
# # Gam_ch=1.729E+00 H-L exch Vi= 0.000E+00 Vr= 0.000E+00
# # Mu=-7.050E+00eV kf=2.581E+00 Vint=-1.834E+01eV Rs_int= 1.405
# FMS rfms= 9.0000
# # PATH  Rmax=-1.000,  Keep_limit= 0.00, Heap_limit 0.00  Pwcrit= 2.50%
#  S02=0.950  Temp=   0.00  Debye_temp=   0.00  Global_sig2= 0.00000
#  Energy zero shift, vr, vi    0.00000E+00   0.00000E+00
#  Curved wave amplitude ratio filter   4.000%
#     file         sig2 tot  cw amp ratio   deg  nlegs   reff  inp sig2
#     0/   0 paths used
#  xsedge+ 50, used to normalize mu           2.4786E-04
#  -----------------------------------------------------------------------
#  omega    e    k    mu    mu0     chi     @#
    8983.586    -10.860  -1.000  4.77856E-02  5.16850E-02 -3.89940E-03
    8983.885    -10.562  -0.960  5.09121E-02  5.53813E-02 -4.46917E-03
    8984.171    -10.275  -0.920  5.43558E-02  5.94865E-02 -5.13070E-03
    8984.446    -10.001  -0.880  5.81612E-02  6.40609E-02 -5.89969E-03
    8984.708     -9.739  -0.840  6.23803E-02  6.91748E-02 -6.79457E-03
    8984.958     -9.489  -0.800  6.70730E-02  7.49098E-02 -7.83682E-03
    8985.196     -9.251  -0.760  7.23081E-02  8.13594E-02 -9.05128E-03
    8985.421     -9.025  -0.720  7.81632E-02  8.86293E-02 -1.04661E-02
    8985.634     -8.812  -0.680  8.47235E-02  9.68362E-02 -1.21127E-02
    8985.836     -8.611  -0.640  9.20789E-02  1.06103E-01 -1.40244E-02
    8986.025     -8.422  -0.600  1.00317E-01  1.16551E-01 -1.62344E-02
    8986.201     -8.245  -0.560  1.09512E-01  1.28284E-01 -1.87724E-02
    8986.366     -8.080  -0.520  1.19705E-01  1.41363E-01 -2.16579E-02
    8986.518     -7.928  -0.480  1.30881E-01  1.55774E-01 -2.48928E-02
    8986.659     -7.788  -0.440  1.42940E-01  1.71391E-01 -2.84514E-02
    8986.787     -7.660  -0.400  1.55669E-01  1.87941E-01 -3.22724E-02
    8986.902     -7.544  -0.360  1.68741E-01  2.04996E-01 -3.62556E-02
    8987.006     -7.440  -0.320  1.81732E-01  2.22000E-01 -4.02678E-02
    8987.097     -7.349  -0.280  1.94175E-01  2.38333E-01 -4.41582E-02
    8987.177     -7.270  -0.240  2.05626E-01  2.53405E-01 -4.77790E-02
    8987.244     -7.203  -0.200  2.15716E-01  2.66719E-01 -5.10027E-02
    8987.299     -7.148  -0.160  2.24181E-01  2.77913E-01 -5.37325E-02
    8987.341     -7.105  -0.120  2.30855E-01  2.86759E-01 -5.59040E-02
    8987.372     -7.075  -0.080  2.35647E-01  2.93129E-01 -5.74820E-02
    8987.396     -7.050   0.000  2.39460E-01  2.98245E-01 -5.87852E-02
    8987.451     -6.995   0.120  2.48029E-01  3.09787E-01 -6.17576E-02
    8987.494     -6.953   0.160  2.54728E-01  3.18746E-01 -6.40186E-02
    8987.549     -6.898   0.200  2.63270E-01  3.30165E-01 -6.68949E-02
    8987.616     -6.831   0.240  2.73559E-01  3.43900E-01 -7.03413E-02
    8987.695     -6.752   0.280  2.85390E-01  3.59667E-01 -7.42768E-02
    8987.786     -6.660   0.320  2.98449E-01  3.77030E-01 -7.85806E-02
    8987.890     -6.556   0.360  3.12407E-01  3.95477E-01 -8.30705E-02
    8988.006     -6.441   0.400  3.27002E-01  4.14465E-01 -8.74629E-02
    8988.134     -6.313   0.440  3.42146E-01  4.33499E-01 -9.13530E-02
    8988.274     -6.172   0.480  3.58018E-01  4.52196E-01 -9.41782E-02
    8988.426     -6.020   0.520  3.75069E-01  4.70296E-01 -9.52266E-02
    8988.591     -5.855   0.560  3.93956E-01  4.87690E-01 -9.37344E-02
    8988.768     -5.679   0.600  4.15304E-01  5.04393E-01 -8.90885E-02
    8988.957     -5.490   0.640  4.39129E-01  5.20423E-01 -8.12947E-02
    8989.158     -5.289   0.680  4.64148E-01  5.35899E-01 -7.17517E-02
    8989.371     -5.075   0.720  4.87283E-01  5.50910E-01 -6.36262E-02
    8989.597     -4.850   0.760  5.04489E-01  5.65562E-01 -6.10727E-02
    8989.835     -4.612   0.800  5.12724E-01  5.79918E-01 -6.71942E-02
    8990.085     -4.362   0.840  5.12007E-01  5.94108E-01 -8.21015E-02
    8990.347     -4.100   0.880  5.05475E-01  6.08165E-01 -1.02690E-01
    8990.621     -3.825   0.920  4.97904E-01  6.22131E-01 -1.24228E-01
    8990.907     -3.539   0.960  4.94242E-01  6.36079E-01 -1.41837E-01
    8991.206     -3.240   1.000  4.98138E-01  6.50008E-01 -1.51870E-01
    8991.517     -2.929   1.040  5.10585E-01  6.63950E-01 -1.53365E-01
    8991.840     -2.606   1.080  5.30164E-01  6.77909E-01 -1.47745E-01
    8992.175     -2.271   1.120  5.55286E-01  6.91904E-01 -1.36618E-01
    8992.523     -1.924   1.160  5.86575E-01  7.05903E-01 -1.19328E-01
    8992.883     -1.564   1.200  6.25954E-01  7.19915E-01 -9.39608E-02
    8993.254     -1.192   1.240  6.72863E-01  7.33922E-01 -6.10597E-02
    8993.638     -0.808   1.280  7.24926E-01  7.47904E-01 -2.29779E-02
    8994.035     -0.412   1.320  7.82653E-01  7.61856E-01  2.07970E-02
    8994.443     -0.003   1.360  8.51375E-01  7.75733E-01  7.56423E-02
    8994.864      0.417   1.400  9.34630E-01  7.89505E-01  1.45125E-01
    8995.297      0.850   1.440  1.02041E+00  8.03165E-01  2.17242E-01
    8995.742      1.295   1.480  1.08863E+00  8.16680E-01  2.71950E-01
    8996.199      1.752   1.520  1.13259E+00  8.29998E-01  3.02593E-01
    8996.668      2.222   1.560  1.15040E+00  8.43127E-01  3.07276E-01
    8997.150      2.703   1.600  1.14224E+00  8.55993E-01  2.86251E-01
    8997.644      3.197   1.640  1.11314E+00  8.68582E-01  2.44561E-01
    8998.149      3.703   1.680  1.06442E+00  8.80862E-01  1.83562E-01
    8998.668      4.221   1.720  1.00935E+00  8.92818E-01  1.16532E-01
    8999.198      4.752   1.760  9.63635E-01  9.04398E-01  5.92366E-02
    8999.741      5.294   1.800  9.34092E-01  9.15611E-01  1.84811E-02
    9000.295      5.849   1.840  9.23927E-01  9.26384E-01 -2.45638E-03
    9000.862      6.416   1.880  9.28278E-01  9.36726E-01 -8.44722E-03
    9001.441      6.995   1.920  9.43915E-01  9.46608E-01 -2.69277E-03
    9002.033      7.586   1.960  9.77271E-01  9.56022E-01  2.12491E-02
    9002.636      8.190   2.000  1.02334E+00  9.64940E-01  5.83985E-02
    9003.252      8.805   2.040  1.06960E+00  9.73335E-01  9.62668E-02
    9003.880      9.433   2.080  1.10855E+00  9.81222E-01  1.27324E-01
    9004.520     10.073   2.120  1.13220E+00  9.88581E-01  1.43623E-01
    9005.172     10.726   2.160  1.14313E+00  9.95427E-01  1.47701E-01
    9005.837     11.390   2.200  1.15429E+00  1.00172E+00  1.52566E-01
    9006.513     12.067   2.240  1.16979E+00  1.00748E+00  1.62314E-01
    9007.202     12.756   2.280  1.18485E+00  1.01273E+00  1.72124E-01
    9007.903     13.457   2.320  1.19543E+00  1.01745E+00  1.77976E-01
    9008.616     14.170   2.360  1.19777E+00  1.02165E+00  1.76120E-01
    9009.342     14.895   2.400  1.18237E+00  1.02536E+00  1.57011E-01
    9010.079     15.633   2.440  1.14477E+00  1.02857E+00  1.16201E-01
    9010.829     16.383   2.480  1.09464E+00  1.03131E+00  6.33321E-02
    9011.591     17.145   2.520  1.04453E+00  1.03360E+00  1.09249E-02
    9012.365     17.919   2.560  1.00180E+00  1.03544E+00 -3.36410E-02
    9013.152     18.705   2.600  9.69483E-01  1.03685E+00 -6.73711E-02
    9013.950     19.504   2.640  9.47779E-01  1.03787E+00 -9.00884E-02
    9014.761     20.315   2.680  9.34268E-01  1.03851E+00 -1.04240E-01
    9015.584     21.138   2.720  9.25652E-01  1.03881E+00 -1.13157E-01
    9016.419     21.973   2.760  9.20250E-01  1.03876E+00 -1.18508E-01
    9017.266     22.820   2.800  9.19599E-01  1.03839E+00 -1.18790E-01
    9018.126     23.680   2.840  9.25064E-01  1.03775E+00 -1.12690E-01
    9018.998     24.551   2.880  9.32152E-01  1.03685E+00 -1.04693E-01
    9019.882     25.435   2.920  9.32930E-01  1.03572E+00 -1.02786E-01
    9020.778     26.331   2.960  9.28237E-01  1.03435E+00 -1.06116E-01
    9021.686     27.240   3.000  9.25736E-01  1.03279E+00 -1.07056E-01
    9022.607     28.160   3.040  9.26258E-01  1.03106E+00 -1.04805E-01
    9023.539     29.093   3.080  9.28497E-01  1.02920E+00 -1.00699E-01
    9024.484     30.038   3.120  9.31933E-01  1.02718E+00 -9.52505E-02
    9025.441     30.995   3.160  9.36745E-01  1.02508E+00 -8.83324E-02
    9026.410     31.964   3.200  9.42815E-01  1.02289E+00 -8.00707E-02
    9027.392     32.945   3.240  9.49573E-01  1.02062E+00 -7.10443E-02
    9028.386     33.939   3.280  9.56696E-01  1.01830E+00 -6.16055E-02
    9029.391     34.945   3.320  9.64040E-01  1.01595E+00 -5.19098E-02
    9030.409     35.963   3.360  9.71765E-01  1.01359E+00 -4.18226E-02
    9031.440     36.993   3.400  9.80291E-01  1.01122E+00 -3.09327E-02
    9032.482     38.036   3.440  9.90007E-01  1.00886E+00 -1.88570E-02
    9033.537     39.090   3.480  1.00113E+00  1.00654E+00 -5.40782E-03
    9034.603     40.157   3.520  1.01379E+00  1.00425E+00  9.54062E-03
    9035.682     41.236   3.560  1.02773E+00  1.00200E+00  2.57235E-02
    9036.774     42.327   3.600  1.04230E+00  9.99828E-01  4.24678E-02
    9037.877     43.431   3.640  1.05626E+00  9.97705E-01  5.85511E-02
    9038.993     44.546   3.680  1.06791E+00  9.95662E-01  7.22508E-02
    9040.120     45.674   3.720  1.07547E+00  9.93723E-01  8.17488E-02
    9041.260     46.814   3.760  1.07797E+00  9.91872E-01  8.60962E-02
    9042.412     47.966   3.800  1.07543E+00  9.90130E-01  8.52994E-02
    9043.577     49.130   3.840  1.06871E+00  9.88480E-01  8.02278E-02
    9044.753     50.307   3.880  1.05925E+00  9.86943E-01  7.23080E-02
    9045.942     51.495   3.920  1.04856E+00  9.85503E-01  6.30525E-02
    9047.143     52.696   3.960  1.03793E+00  9.84203E-01  5.37263E-02
    9048.356     53.909   4.000  1.02817E+00  9.83025E-01  4.51469E-02
    9049.581     55.135   4.040  1.01959E+00  9.81969E-01  3.76215E-02
    9050.819     56.372   4.080  1.01198E+00  9.81033E-01  3.09484E-02
    9052.068     57.622   4.120  1.00490E+00  9.80219E-01  2.46859E-02
    9053.330     58.884   4.160  9.97897E-01  9.79526E-01  1.83706E-02
    9054.604     60.158   4.200  9.90620E-01  9.78954E-01  1.16664E-02
    9055.891     61.444   4.240  9.82945E-01  9.78504E-01  4.44124E-03
    9057.189     62.743   4.280  9.75011E-01  9.78198E-01 -3.18731E-03
    9058.500     64.053   4.320  9.67087E-01  9.77989E-01 -1.09013E-02
    9059.822     65.376   4.360  9.59699E-01  9.77897E-01 -1.81981E-02
    9061.157     66.711   4.400  9.53496E-01  9.77923E-01 -2.44270E-02
    9062.505     68.058   4.440  9.49156E-01  9.78063E-01 -2.89064E-02
    9063.864     69.418   4.480  9.47214E-01  9.78295E-01 -3.10812E-02
    9065.236     70.789   4.520  9.47989E-01  9.78636E-01 -3.06473E-02
    9066.619     72.173   4.560  9.51417E-01  9.79064E-01 -2.76473E-02
    9068.015     73.569   4.600  9.57123E-01  9.79575E-01 -2.24519E-02
    9069.424     74.977   4.640  9.64467E-01  9.80169E-01 -1.57016E-02
    9070.844     76.398   4.680  9.72668E-01  9.80864E-01 -8.19607E-03
    9072.277     77.830   4.720  9.80754E-01  9.81615E-01 -8.60934E-04
    9073.721     79.275   4.760  9.87765E-01  9.82437E-01  5.32834E-03
    9075.178     80.732   4.800  9.92785E-01  9.83305E-01  9.48007E-03
    9076.647     82.201   4.840  9.95239E-01  9.84216E-01  1.10228E-02
    9078.129     83.682   4.880  9.95056E-01  9.85171E-01  9.88583E-03
    9079.622     85.176   4.920  9.92688E-01  9.86184E-01  6.50330E-03
    9081.128     86.681   4.960  9.88853E-01  9.87210E-01  1.64282E-03
    9082.646     88.199   5.000  9.84447E-01  9.88245E-01 -3.79819E-03
    9084.176     89.729   5.040  9.80361E-01  9.89306E-01 -8.94499E-03
    9085.718     91.272   5.080  9.77320E-01  9.90367E-01 -1.30468E-02
    9087.273     92.826   5.120  9.75835E-01  9.91404E-01 -1.55689E-02
    9088.839     94.393   5.160  9.76126E-01  9.92458E-01 -1.63315E-02
    9090.418     95.972   5.200  9.77923E-01  9.93481E-01 -1.55587E-02
    9092.009     97.563   5.240  9.80633E-01  9.94469E-01 -1.38364E-02
    9093.612     99.166   5.280  9.83545E-01  9.95419E-01 -1.18734E-02
    9095.228    100.781   5.320  9.86107E-01  9.96350E-01 -1.02428E-02
    9096.856    102.409   5.360  9.88005E-01  9.97217E-01 -9.21116E-03
    9098.495    104.049   5.400  9.89311E-01  9.98035E-01 -8.72437E-03
    9100.147    105.701   5.440  9.90260E-01  9.98783E-01 -8.52313E-03
    9101.812    107.365   5.480  9.91199E-01  9.99479E-01 -8.28004E-03
    9103.488    109.041   5.520  9.92415E-01  1.00010E+00 -7.68691E-03
    9105.177    110.730   5.560  9.94128E-01  1.00067E+00 -6.54068E-03
    9106.877    112.431   5.600  9.96303E-01  1.00113E+00 -4.83100E-03
    9108.590    114.144   5.640  9.98725E-01  1.00152E+00 -2.79277E-03
    9110.315    115.869   5.680  1.00099E+00  1.00184E+00 -8.51364E-04
    9112.053    117.606   5.720  1.00262E+00  1.00206E+00  5.59955E-04
    9113.802    119.356   5.760  1.00343E+00  1.00217E+00  1.25578E-03
    9115.564    121.118   5.800  1.00366E+00  1.00222E+00  1.44026E-03
    9117.338    122.892   5.840  1.00377E+00  1.00217E+00  1.60585E-03
    9119.124    124.678   5.880  1.00430E+00  1.00206E+00  2.24133E-03
    9120.922    126.476   5.920  1.00538E+00  1.00184E+00  3.54707E-03
    9122.733    128.286   5.960  1.00681E+00  1.00150E+00  5.31689E-03
    9124.556    130.109   6.000  1.00816E+00  1.00104E+00  7.12206E-03
