# # comment:                                                     FEFF 9.9.1  
# # Source:
# # Structure
# # Reduced
# # space
# # abc:
# # angles:108.622505
# # sites:
# # POT  SCF 100  7.0000   0, screened core-hole, AFOLP (folp(0)= 1.150)
# # Abs   Z=29 Rmt= 1.217 Rnm= 1.310 K  shell
# # Pot 1 Z=29 Rmt= 1.213 Rnm= 1.307
# # Pot 2 Z=15 Rmt= 0.931 Rnm= 1.151
# # Pot 3 Z= 8 Rmt= 0.884 Rnm= 1.046
# # Gam_ch=1.729E+00 H-L exch Vi= 0.000E+00 Vr= 0.000E+00
# # Mu=-6.877E+00eV kf=2.490E+00 Vint=-1.701E+01eV Rs_int= 1.456
# FMS rfms= 9.0000
# # PATH  Rmax=-1.000,  Keep_limit= 0.00, Heap_limit 0.00  Pwcrit= 2.50%
#  S02=0.950  Temp=   0.00  Debye_temp=   0.00  Global_sig2= 0.00000
#  Energy zero shift, vr, vi    0.00000E+00   0.00000E+00
#  Curved wave amplitude ratio filter   4.000%
#     file         sig2 tot  cw amp ratio   deg  nlegs   reff  inp sig2
#     0/   0 paths used
#  xsedge+ 50, used to normalize mu           2.4846E-04
#  -----------------------------------------------------------------------
#  omega    e    k    mu    mu0     chi     @#
    8983.273    -10.687  -1.000  3.57510E-02  5.26603E-02 -1.69093E-02
    8983.572    -10.388  -0.960  3.75775E-02  5.64914E-02 -1.89139E-02
    8983.858    -10.102  -0.920  3.95433E-02  6.07512E-02 -2.12078E-02
    8984.133     -9.827  -0.880  4.16645E-02  6.55031E-02 -2.38386E-02
    8984.395     -9.565  -0.840  4.39591E-02  7.08211E-02 -2.68621E-02
    8984.645     -9.315  -0.800  4.64477E-02  7.67912E-02 -3.03435E-02
    8984.883     -9.078  -0.760  4.91534E-02  8.35117E-02 -3.43583E-02
    8985.108     -8.852  -0.720  5.21020E-02  9.10941E-02 -3.89922E-02
    8985.322     -8.639  -0.680  5.53208E-02  9.96613E-02 -4.43405E-02
    8985.523     -8.438  -0.640  5.88383E-02  1.09343E-01 -5.05046E-02
    8985.712     -8.249  -0.600  6.26809E-02  1.20267E-01 -5.75857E-02
    8985.888     -8.072  -0.560  6.68694E-02  1.32541E-01 -6.56719E-02
    8986.053     -7.907  -0.520  7.14126E-02  1.46232E-01 -7.48196E-02
    8986.205     -7.755  -0.480  7.62990E-02  1.61326E-01 -8.50265E-02
    8986.346     -7.615  -0.440  8.14875E-02  1.77689E-01 -9.62011E-02
    8986.474     -7.487  -0.400  8.68985E-02  1.95035E-01 -1.08137E-01
    8986.589     -7.371  -0.360  9.24124E-02  2.12915E-01 -1.20503E-01
    8986.693     -7.267  -0.320  9.78754E-02  2.30744E-01 -1.32869E-01
    8986.785     -7.176  -0.280  1.03116E-01  2.47874E-01 -1.44757E-01
    8986.864     -7.096  -0.240  1.07967E-01  2.63680E-01 -1.55713E-01
    8986.931     -7.029  -0.200  1.12281E-01  2.77644E-01 -1.65363E-01
    8986.986     -6.975  -0.160  1.15942E-01  2.89385E-01 -1.73443E-01
    8987.028     -6.932  -0.120  1.18868E-01  2.98662E-01 -1.79793E-01
    8987.059     -6.901  -0.080  1.21003E-01  3.05342E-01 -1.84339E-01
    8987.083     -6.877   0.000  1.22753E-01  3.10708E-01 -1.87955E-01
    8987.138     -6.822   0.120  1.26657E-01  3.22802E-01 -1.96146E-01
    8987.181     -6.779   0.160  1.29701E-01  3.32190E-01 -2.02489E-01
    8987.236     -6.725   0.200  1.33654E-01  3.44181E-01 -2.10526E-01
    8987.303     -6.658   0.240  1.38489E-01  3.58581E-01 -2.20092E-01
    8987.382     -6.578   0.280  1.44213E-01  3.75093E-01 -2.30880E-01
    8987.473     -6.487   0.320  1.50811E-01  3.93279E-01 -2.42468E-01
    8987.577     -6.383   0.360  1.58265E-01  4.12603E-01 -2.54338E-01
    8987.693     -6.267   0.400  1.66554E-01  4.32471E-01 -2.65916E-01
    8987.821     -6.139   0.440  1.75674E-01  4.52361E-01 -2.76688E-01
    8987.961     -5.999   0.480  1.85635E-01  4.71872E-01 -2.86238E-01
    8988.113     -5.847   0.520  1.96411E-01  4.90727E-01 -2.94316E-01
    8988.278     -5.682   0.560  2.08008E-01  5.08831E-01 -3.00823E-01
    8988.455     -5.505   0.600  2.20348E-01  5.26112E-01 -3.05764E-01
    8988.644     -5.316   0.640  2.33405E-01  5.42671E-01 -3.09266E-01
    8988.845     -5.115   0.680  2.46888E-01  5.58565E-01 -3.11677E-01
    8989.058     -4.902   0.720  2.60201E-01  5.73904E-01 -3.13702E-01
    8989.284     -4.676   0.760  2.72333E-01  5.88780E-01 -3.16447E-01
    8989.522     -4.439   0.800  2.82329E-01  6.03293E-01 -3.20964E-01
    8989.772     -4.189   0.840  2.90154E-01  6.17512E-01 -3.27358E-01
    8990.034     -3.927   0.880  2.97047E-01  6.31472E-01 -3.34425E-01
    8990.308     -3.652   0.920  3.04940E-01  6.45254E-01 -3.40314E-01
    8990.595     -3.366   0.960  3.15587E-01  6.58891E-01 -3.43303E-01
    8990.893     -3.067   1.000  3.30411E-01  6.72378E-01 -3.41967E-01
    8991.204     -2.756   1.040  3.51048E-01  6.85769E-01 -3.34721E-01
    8991.527     -2.433   1.080  3.78919E-01  6.99025E-01 -3.20105E-01
    8991.863     -2.098   1.120  4.13751E-01  7.12181E-01 -2.98430E-01
    8992.210     -1.750   1.160  4.52686E-01  7.25210E-01 -2.72524E-01
    8992.570     -1.391   1.200  4.91963E-01  7.38097E-01 -2.46135E-01
    8992.941     -1.019   1.240  5.29024E-01  7.50847E-01 -2.21823E-01
    8993.326     -0.635   1.280  5.63329E-01  7.63439E-01 -2.00110E-01
    8993.722     -0.238   1.320  5.96093E-01  7.75852E-01 -1.79759E-01
    8994.130      0.170   1.360  6.28433E-01  7.88061E-01 -1.59628E-01
    8994.551      0.591   1.400  6.60256E-01  8.00041E-01 -1.39785E-01
    8994.984      1.023   1.440  6.91465E-01  8.11807E-01 -1.20342E-01
    8995.429      1.468   1.480  7.23460E-01  8.23294E-01 -9.98340E-02
    8995.886      1.926   1.520  7.60743E-01  8.34494E-01 -7.37510E-02
    8996.355      2.395   1.560  8.10061E-01  8.45400E-01 -3.53389E-02
    8996.837      2.877   1.600  8.76701E-01  8.56006E-01  2.06943E-02
    8997.331      3.370   1.640  9.54936E-01  8.66247E-01  8.86886E-02
    8997.837      3.876   1.680  1.02621E+00  8.76157E-01  1.50052E-01
    8998.355      4.394   1.720  1.07782E+00  8.85710E-01  1.92111E-01
    8998.885      4.925   1.760  1.11342E+00  8.94883E-01  2.18534E-01
    8999.428      5.467   1.800  1.13771E+00  9.03672E-01  2.34040E-01
    8999.982      6.022   1.840  1.15047E+00  9.12073E-01  2.38398E-01
    9000.549      6.589   1.880  1.15081E+00  9.20085E-01  2.30730E-01
    9001.128      7.168   1.920  1.13713E+00  9.27688E-01  2.09439E-01
    9001.720      7.759   1.960  1.11534E+00  9.34878E-01  1.80463E-01
    9002.323      8.363   2.000  1.09888E+00  9.41679E-01  1.57203E-01
    9002.939      8.979   2.040  1.09757E+00  9.48071E-01  1.49501E-01
    9003.567      9.607   2.080  1.11319E+00  9.54058E-01  1.59133E-01
    9004.207     10.247   2.120  1.13935E+00  9.59660E-01  1.79695E-01
    9004.859     10.899   2.160  1.16533E+00  9.64882E-01  2.00448E-01
    9005.524     11.563   2.200  1.18053E+00  9.69707E-01  2.10821E-01
    9006.200     12.240   2.240  1.17919E+00  9.74159E-01  2.05029E-01
    9006.889     12.929   2.280  1.16837E+00  9.78245E-01  1.90120E-01
    9007.590     13.630   2.320  1.16101E+00  9.81992E-01  1.79021E-01
    9008.303     14.343   2.360  1.16464E+00  9.85405E-01  1.79232E-01
    9009.029     15.069   2.400  1.17890E+00  9.88470E-01  1.90432E-01
    9009.766     15.806   2.440  1.19387E+00  9.91232E-01  2.02637E-01
    9010.516     16.556   2.480  1.19652E+00  9.93701E-01  2.02822E-01
    9011.278     17.318   2.520  1.18675E+00  9.95883E-01  1.90871E-01
    9012.052     18.092   2.560  1.17573E+00  9.97764E-01  1.77968E-01
    9012.839     18.878   2.600  1.17060E+00  9.99412E-01  1.71189E-01
    9013.637     19.677   2.640  1.17164E+00  1.00081E+00  1.70826E-01
    9014.448     20.488   2.680  1.17441E+00  1.00198E+00  1.72429E-01
    9015.271     21.311   2.720  1.16969E+00  1.00291E+00  1.66775E-01
    9016.106     22.146   2.760  1.15325E+00  1.00366E+00  1.49593E-01
    9016.954     22.993   2.800  1.12715E+00  1.00421E+00  1.22935E-01
    9017.813     23.853   2.840  1.08620E+00  1.00460E+00  8.16000E-02
    9018.685     24.725   2.880  1.02706E+00  1.00484E+00  2.22205E-02
    9019.569     25.608   2.920  9.67627E-01  1.00491E+00 -3.72839E-02
    9020.465     26.505   2.960  9.18655E-01  1.00485E+00 -8.61938E-02
    9021.373     27.413   3.000  8.81232E-01  1.00468E+00 -1.23452E-01
    9022.294     28.333   3.040  8.54563E-01  1.00438E+00 -1.49819E-01
    9023.226     29.266   3.080  8.36612E-01  1.00401E+00 -1.67399E-01
    9024.171     30.211   3.120  8.25724E-01  1.00353E+00 -1.77810E-01
    9025.128     31.168   3.160  8.20546E-01  1.00298E+00 -1.82431E-01
    9026.098     32.137   3.200  8.19713E-01  1.00237E+00 -1.82653E-01
    9027.079     33.119   3.240  8.22149E-01  1.00171E+00 -1.79558E-01
    9028.073     34.112   3.280  8.27246E-01  1.00098E+00 -1.73737E-01
    9029.078     35.118   3.320  8.34064E-01  1.00024E+00 -1.66173E-01
    9030.096     36.136   3.360  8.42142E-01  9.99435E-01 -1.57292E-01
    9031.127     37.166   3.400  8.51409E-01  9.98642E-01 -1.47234E-01
    9032.169     38.209   3.440  8.61647E-01  9.97821E-01 -1.36174E-01
    9033.224     39.263   3.480  8.72731E-01  9.96993E-01 -1.24262E-01
    9034.290     40.330   3.520  8.84578E-01  9.96141E-01 -1.11564E-01
    9035.369     41.409   3.560  8.97138E-01  9.95312E-01 -9.81741E-02
    9036.461     42.500   3.600  9.10073E-01  9.94508E-01 -8.44349E-02
    9037.564     43.604   3.640  9.23158E-01  9.93690E-01 -7.05326E-02
    9038.680     44.719   3.680  9.36207E-01  9.92921E-01 -5.67141E-02
    9039.807     45.847   3.720  9.48848E-01  9.92142E-01 -4.32941E-02
    9040.947     46.987   3.760  9.60884E-01  9.91415E-01 -3.05313E-02
    9042.099     48.139   3.800  9.72126E-01  9.90703E-01 -1.85762E-02
    9043.264     49.303   3.840  9.82477E-01  9.90026E-01 -7.54828E-03
    9044.440     50.480   3.880  9.91900E-01  9.89385E-01  2.51504E-03
    9045.629     51.669   3.920  1.00052E+00  9.88782E-01  1.17371E-02
    9046.830     52.870   3.960  1.00851E+00  9.88219E-01  2.02888E-02
    9048.043     54.083   4.000  1.01607E+00  9.87696E-01  2.83730E-02
    9049.268     55.308   4.040  1.02339E+00  9.87213E-01  3.61732E-02
    9050.506     56.546   4.080  1.03041E+00  9.86772E-01  4.36335E-02
    9051.755     57.795   4.120  1.03670E+00  9.86393E-01  5.03089E-02
    9053.017     59.057   4.160  1.04158E+00  9.86036E-01  5.55411E-02
    9054.291     60.331   4.200  1.04447E+00  9.85740E-01  5.87261E-02
    9055.578     61.617   4.240  1.04505E+00  9.85485E-01  5.95631E-02
    9056.876     62.916   4.280  1.04350E+00  9.85248E-01  5.82516E-02
    9058.187     64.226   4.320  1.04054E+00  9.85073E-01  5.54630E-02
    9059.510     65.549   4.360  1.03694E+00  9.84939E-01  5.20057E-02
    9060.845     66.884   4.400  1.03343E+00  9.84847E-01  4.85829E-02
    9062.192     68.231   4.440  1.03048E+00  9.84794E-01  4.56839E-02
    9063.551     69.591   4.480  1.02830E+00  9.84781E-01  4.35242E-02
    9064.923     70.962   4.520  1.02694E+00  9.84805E-01  4.21313E-02
    9066.307     72.346   4.560  1.02632E+00  9.84867E-01  4.14581E-02
    9067.703     73.742   4.600  1.02638E+00  9.84966E-01  4.14192E-02
    9069.111     75.150   4.640  1.02700E+00  9.85079E-01  4.19160E-02
    9070.531     76.571   4.680  1.02814E+00  9.85248E-01  4.28911E-02
    9071.964     78.003   4.720  1.02971E+00  9.85428E-01  4.42834E-02
    9073.408     79.448   4.760  1.03154E+00  9.85619E-01  4.59182E-02
    9074.865     80.905   4.800  1.03336E+00  9.85841E-01  4.75214E-02
    9076.334     82.374   4.840  1.03483E+00  9.86093E-01  4.87367E-02
    9077.816     83.855   4.880  1.03548E+00  9.86356E-01  4.91265E-02
    9079.309     85.349   4.920  1.03486E+00  9.86646E-01  4.82127E-02
    9080.815     86.855   4.960  1.03244E+00  9.86941E-01  4.55010E-02
    9082.333     88.373   5.000  1.02785E+00  9.87238E-01  4.06108E-02
    9083.863     89.903   5.040  1.02098E+00  9.87537E-01  3.34404E-02
    9085.405     91.445   5.080  1.01206E+00  9.87838E-01  2.42225E-02
    9086.960     92.999   5.120  1.00167E+00  9.88160E-01  1.35079E-02
    9088.526     94.566   5.160  9.90485E-01  9.88460E-01  2.02475E-03
    9090.105     96.145   5.200  9.79312E-01  9.88756E-01 -9.44396E-03
    9091.696     97.736   5.240  9.68818E-01  9.89050E-01 -2.02321E-02
    9093.300     99.339   5.280  9.59479E-01  9.89341E-01 -2.98622E-02
    9094.915    100.955   5.320  9.51568E-01  9.89626E-01 -3.80575E-02
    9096.543    102.582   5.360  9.45177E-01  9.89882E-01 -4.47054E-02
    9098.182    104.222   5.400  9.40310E-01  9.90133E-01 -4.98225E-02
    9099.834    105.874   5.440  9.36878E-01  9.90375E-01 -5.34975E-02
    9101.499    107.538   5.480  9.34729E-01  9.90585E-01 -5.58569E-02
    9103.175    109.215   5.520  9.33712E-01  9.90762E-01 -5.70505E-02
    9104.864    110.903   5.560  9.33688E-01  9.90930E-01 -5.72416E-02
    9106.564    112.604   5.600  9.34582E-01  9.91086E-01 -5.65043E-02
    9108.277    114.317   5.640  9.36378E-01  9.91185E-01 -5.48070E-02
    9110.002    116.042   5.680  9.39247E-01  9.91273E-01 -5.20259E-02
    9111.740    117.780   5.720  9.43280E-01  9.91348E-01 -4.80679E-02
    9113.489    119.529   5.760  9.48401E-01  9.91365E-01 -4.29637E-02
    9115.251    121.291   5.800  9.54395E-01  9.91369E-01 -3.69739E-02
    9117.025    123.065   5.840  9.60782E-01  9.91335E-01 -3.05532E-02
    9118.811    124.851   5.880  9.67031E-01  9.91265E-01 -2.42343E-02
    9120.609    126.649   5.920  9.72692E-01  9.91158E-01 -1.84656E-02
    9122.420    128.460   5.960  9.77471E-01  9.91011E-01 -1.35401E-02
    9124.243    130.282   6.000  9.81247E-01  9.90835E-01 -9.58773E-03
