# # comment:                                                     FEFF 9.9.1  
# # Source:
# # Structure
# # Reduced
# # space
# # abc:
# # angles:
# # sites:
# # POT  SCF 100  7.0000   0, screened core-hole, AFOLP (folp(0)= 1.150)
# # Abs   Z=29 Rmt= 1.277 Rnm= 1.365 K  shell
# # Pot 1 Z=29 Rmt= 1.282 Rnm= 1.369
# # Pot 2 Z=75 Rmt= 1.144 Rnm= 1.364
# # Pot 3 Z= 8 Rmt= 0.915 Rnm= 1.059
# # Gam_ch=1.729E+00 H-L exch Vi= 0.000E+00 Vr= 0.000E+00
# # Mu=-4.810E+00eV kf=2.355E+00 Vint=-1.573E+01eV Rs_int= 1.540
# FMS rfms= 9.0000
# # PATH  Rmax=-1.000,  Keep_limit= 0.00, Heap_limit 0.00  Pwcrit= 2.50%
#  S02=0.950  Temp=   0.00  Debye_temp=   0.00  Global_sig2= 0.00000
#  Energy zero shift, vr, vi    0.00000E+00   0.00000E+00
#  Curved wave amplitude ratio filter   4.000%
#     file         sig2 tot  cw amp ratio   deg  nlegs   reff  inp sig2
#     0/   0 paths used
#  xsedge+ 50, used to normalize mu           2.4655E-04
#  -----------------------------------------------------------------------
#  omega    e    k    mu    mu0     chi     @#
    8983.265     -8.620  -1.000  5.05435E-02  5.86900E-02 -8.14646E-03
    8983.564     -8.321  -0.960  5.38929E-02  6.31194E-02 -9.22652E-03
    8983.850     -8.034  -0.920  5.75853E-02  6.80569E-02 -1.04715E-02
    8984.125     -7.760  -0.880  6.16692E-02  7.35785E-02 -1.19093E-02
    8984.387     -7.498  -0.840  6.62009E-02  7.97731E-02 -1.35723E-02
    8984.637     -7.248  -0.800  7.12455E-02  8.67441E-02 -1.54986E-02
    8984.874     -7.010  -0.760  7.68775E-02  9.46099E-02 -1.77323E-02
    8985.100     -6.785  -0.720  8.31812E-02  1.03505E-01 -2.03237E-02
    8985.313     -6.571  -0.680  9.02487E-02  1.13577E-01 -2.33284E-02
    8985.515     -6.370  -0.640  9.81772E-02  1.24983E-01 -2.68060E-02
    8985.704     -6.181  -0.600  1.07062E-01  1.37878E-01 -3.08159E-02
    8985.880     -6.005  -0.560  1.16983E-01  1.52393E-01 -3.54099E-02
    8986.045     -5.840  -0.520  1.27987E-01  1.68608E-01 -4.06212E-02
    8986.197     -5.688  -0.480  1.40061E-01  1.86509E-01 -4.64481E-02
    8986.337     -5.547  -0.440  1.53101E-01  2.05937E-01 -5.28365E-02
    8986.466     -5.419  -0.400  1.66886E-01  2.26550E-01 -5.96639E-02
    8986.581     -5.303  -0.360  1.81074E-01  2.47809E-01 -6.67352E-02
    8986.685     -5.200  -0.320  1.95216E-01  2.69013E-01 -7.37969E-02
    8986.776     -5.108  -0.280  2.08815E-01  2.89385E-01 -8.05695E-02
    8986.856     -5.029  -0.240  2.21389E-01  3.08179E-01 -8.67904E-02
    8986.923     -4.962  -0.200  2.32528E-01  3.24776E-01 -9.22480E-02
    8986.978     -4.907  -0.160  2.41925E-01  3.38724E-01 -9.67996E-02
    8987.020     -4.865  -0.120  2.49373E-01  3.49740E-01 -1.00367E-01
    8987.051     -4.834  -0.080  2.54748E-01  3.57669E-01 -1.02921E-01
    8987.075     -4.810   0.000  2.59065E-01  3.64035E-01 -1.04970E-01
    8987.130     -4.755   0.120  2.68894E-01  3.78385E-01 -1.09490E-01
    8987.173     -4.712   0.160  2.76557E-01  3.89513E-01 -1.12957E-01
    8987.228     -4.657   0.200  2.86381E-01  4.03690E-01 -1.17309E-01
    8987.295     -4.590   0.240  2.98272E-01  4.20700E-01 -1.22428E-01
    8987.374     -4.511   0.280  3.12059E-01  4.40172E-01 -1.28113E-01
    8987.465     -4.420   0.320  3.27441E-01  4.61568E-01 -1.34127E-01
    8987.569     -4.316   0.360  3.43972E-01  4.84183E-01 -1.40212E-01
    8987.685     -4.200   0.400  3.61205E-01  5.07356E-01 -1.46152E-01
    8987.813     -4.072   0.440  3.78567E-01  5.30406E-01 -1.51839E-01
    8987.953     -3.932   0.480  3.95558E-01  5.52838E-01 -1.57280E-01
    8988.105     -3.780   0.520  4.11771E-01  5.74319E-01 -1.62548E-01
    8988.270     -3.615   0.560  4.26975E-01  5.94701E-01 -1.67726E-01
    8988.447     -3.438   0.600  4.41144E-01  6.13952E-01 -1.72808E-01
    8988.636     -3.249   0.640  4.54415E-01  6.32122E-01 -1.77707E-01
    8988.837     -3.048   0.680  4.67104E-01  6.49330E-01 -1.82227E-01
    8989.050     -2.835   0.720  4.79558E-01  6.65710E-01 -1.86152E-01
    8989.276     -2.609   0.760  4.92178E-01  6.81336E-01 -1.89158E-01
    8989.513     -2.371   0.800  5.05593E-01  6.96350E-01 -1.90757E-01
    8989.763     -2.121   0.840  5.20283E-01  7.10820E-01 -1.90538E-01
    8990.026     -1.859   0.880  5.36116E-01  7.24863E-01 -1.88747E-01
    8990.300     -1.585   0.920  5.52366E-01  7.38492E-01 -1.86126E-01
    8990.586     -1.298   0.960  5.68759E-01  7.51771E-01 -1.83012E-01
    8990.885     -1.000   1.000  5.85864E-01  7.64729E-01 -1.78865E-01
    8991.196     -0.689   1.040  6.04782E-01  7.77406E-01 -1.72624E-01
    8991.519     -0.366   1.080  6.26584E-01  7.89774E-01 -1.63190E-01
    8991.854     -0.030   1.120  6.52499E-01  8.01895E-01 -1.49397E-01
    8992.202      0.317   1.160  6.83806E-01  8.13707E-01 -1.29901E-01
    8992.561      0.677   1.200  7.21340E-01  8.25262E-01 -1.03922E-01
    8992.933      1.049   1.240  7.63341E-01  8.36509E-01 -7.31679E-02
    8993.317      1.433   1.280  8.04896E-01  8.47454E-01 -4.25576E-02
    8993.714      1.829   1.320  8.41545E-01  8.58099E-01 -1.65544E-02
    8994.122      2.237   1.360  8.71975E-01  8.68428E-01  3.54723E-03
    8994.543      2.658   1.400  8.95157E-01  8.78419E-01  1.67375E-02
    8994.975      3.091   1.440  9.09501E-01  8.88053E-01  2.14478E-02
    8995.420      3.536   1.480  9.17835E-01  8.97329E-01  2.05059E-02
    8995.878      3.993   1.520  9.26076E-01  9.06245E-01  1.98301E-02
    8996.347      4.462   1.560  9.38872E-01  9.14782E-01  2.40905E-02
    8996.829      4.944   1.600  9.60777E-01  9.22937E-01  3.78400E-02
    8997.322      5.438   1.640  9.94763E-01  9.30690E-01  6.40730E-02
    8997.828      5.944   1.680  1.04051E+00  9.38041E-01  1.02468E-01
    8998.347      6.462   1.720  1.09630E+00  9.44992E-01  1.51310E-01
    8998.877      6.992   1.760  1.16074E+00  9.51565E-01  2.09177E-01
    8999.419      7.535   1.800  1.22867E+00  9.57719E-01  2.70953E-01
    8999.974      8.089   1.840  1.28909E+00  9.63479E-01  3.25608E-01
    9000.541      8.656   1.880  1.33103E+00  9.68848E-01  3.62180E-01
    9001.120      9.235   1.920  1.35011E+00  9.73829E-01  3.76284E-01
    9001.712      9.827   1.960  1.35101E+00  9.78429E-01  3.72580E-01
    9002.315     10.430   2.000  1.34214E+00  9.82651E-01  3.59490E-01
    9002.931     11.046   2.040  1.32752E+00  9.86523E-01  3.41002E-01
    9003.559     11.674   2.080  1.30676E+00  9.90049E-01  3.16713E-01
    9004.199     12.314   2.120  1.28052E+00  9.93216E-01  2.87301E-01
    9004.851     12.966   2.160  1.25324E+00  9.96072E-01  2.57167E-01
    9005.515     13.631   2.200  1.23113E+00  9.98624E-01  2.32506E-01
    9006.192     14.307   2.240  1.21554E+00  1.00086E+00  2.14683E-01
    9006.881     14.996   2.280  1.20177E+00  1.00280E+00  1.98966E-01
    9007.582     15.697   2.320  1.18063E+00  1.00451E+00  1.76124E-01
    9008.295     16.410   2.360  1.14117E+00  1.00594E+00  1.35226E-01
    9009.021     17.136   2.400  1.08453E+00  1.00713E+00  7.74026E-02
    9009.758     17.873   2.440  1.02626E+00  1.00809E+00  1.81677E-02
    9010.508     18.623   2.480  9.78261E-01  1.00885E+00 -3.05912E-02
    9011.270     19.385   2.520  9.44279E-01  1.00941E+00 -6.51283E-02
    9012.044     20.159   2.560  9.24313E-01  1.00979E+00 -8.54767E-02
    9012.831     20.946   2.600  9.16833E-01  1.01001E+00 -9.31732E-02
    9013.629     21.744   2.640  9.17917E-01  1.01008E+00 -9.21673E-02
    9014.440     22.555   2.680  9.19865E-01  1.01001E+00 -9.01435E-02
    9015.263     23.378   2.720  9.16428E-01  1.00981E+00 -9.33810E-02
    9016.098     24.213   2.760  9.09727E-01  1.00951E+00 -9.97850E-02
    9016.945     25.061   2.800  9.04006E-01  1.00912E+00 -1.05118E-01
    9017.805     25.920   2.840  9.01431E-01  1.00863E+00 -1.07196E-01
    9018.677     26.792   2.880  9.01769E-01  1.00805E+00 -1.06281E-01
    9019.561     27.676   2.920  9.03457E-01  1.00744E+00 -1.03983E-01
    9020.457     28.572   2.960  9.05193E-01  1.00674E+00 -1.01548E-01
    9021.365     29.480   3.000  9.06214E-01  1.00602E+00 -9.98041E-02
    9022.285     30.401   3.040  9.06470E-01  1.00526E+00 -9.87871E-02
    9023.218     31.333   3.080  9.06423E-01  1.00448E+00 -9.80589E-02
    9024.163     32.278   3.120  9.06479E-01  1.00368E+00 -9.71969E-02
    9025.120     33.235   3.160  9.06956E-01  1.00286E+00 -9.59073E-02
    9026.089     34.205   3.200  9.08159E-01  1.00205E+00 -9.38895E-02
    9027.071     35.186   3.240  9.10499E-01  1.00123E+00 -9.07342E-02
    9028.064     36.180   3.280  9.14111E-01  1.00044E+00 -8.63319E-02
    9029.070     37.185   3.320  9.19157E-01  9.99638E-01 -8.04809E-02
    9030.088     38.203   3.360  9.25764E-01  9.98883E-01 -7.31184E-02
    9031.119     39.234   3.400  9.33778E-01  9.98139E-01 -6.43609E-02
    9032.161     40.276   3.440  9.42905E-01  9.97428E-01 -5.45226E-02
    9033.216     41.331   3.480  9.52760E-01  9.96733E-01 -4.39722E-02
    9034.282     42.398   3.520  9.63021E-01  9.96095E-01 -3.30738E-02
    9035.361     43.476   3.560  9.73341E-01  9.95496E-01 -2.21552E-02
    9036.452     44.568   3.600  9.83595E-01  9.94916E-01 -1.13212E-02
    9037.556     45.671   3.640  9.93772E-01  9.94397E-01 -6.25616E-04
    9038.671     46.787   3.680  1.00369E+00  9.93921E-01  9.76737E-03
    9039.799     47.914   3.720  1.01316E+00  9.93487E-01  1.96740E-02
    9040.939     49.054   3.760  1.02202E+00  9.93096E-01  2.89227E-02
    9042.091     50.206   3.800  1.03013E+00  9.92770E-01  3.73576E-02
    9043.256     51.371   3.840  1.03728E+00  9.92488E-01  4.47959E-02
    9044.432     52.547   3.880  1.04329E+00  9.92249E-01  5.10406E-02
    9045.621     53.736   3.920  1.04789E+00  9.92051E-01  5.58351E-02
    9046.822     54.937   3.960  1.05078E+00  9.91896E-01  5.88817E-02
    9048.035     56.150   4.000  1.05172E+00  9.91805E-01  5.99179E-02
    9049.260     57.375   4.040  1.05051E+00  9.91736E-01  5.87698E-02
    9050.498     58.613   4.080  1.04719E+00  9.91729E-01  5.54602E-02
    9051.747     59.862   4.120  1.04207E+00  9.91764E-01  5.03019E-02
    9053.009     61.124   4.160  1.03581E+00  9.91840E-01  4.39714E-02
    9054.283     62.398   4.200  1.02919E+00  9.91955E-01  3.72335E-02
    9055.569     63.685   4.240  1.02294E+00  9.92108E-01  3.08277E-02
    9056.868     64.983   4.280  1.01771E+00  9.92298E-01  2.54160E-02
    9058.179     66.294   4.320  1.01404E+00  9.92504E-01  2.15323E-02
    9059.501     67.617   4.360  1.01227E+00  9.92766E-01  1.95034E-02
    9060.836     68.952   4.400  1.01243E+00  9.93041E-01  1.93912E-02
    9062.184     70.299   4.440  1.01434E+00  9.93347E-01  2.09930E-02
    9063.543     71.658   4.480  1.01755E+00  9.93665E-01  2.38851E-02
    9064.915     73.030   4.520  1.02150E+00  9.94011E-01  2.74844E-02
    9066.298     74.414   4.560  1.02546E+00  9.94366E-01  3.10905E-02
    9067.694     75.810   4.600  1.02868E+00  9.94748E-01  3.39332E-02
    9069.103     77.218   4.640  1.03041E+00  9.95135E-01  3.52730E-02
    9070.523     78.638   4.680  1.03013E+00  9.95525E-01  3.46046E-02
    9071.955     80.071   4.720  1.02770E+00  9.95916E-01  3.17824E-02
    9073.400     81.515   4.760  1.02333E+00  9.96331E-01  2.69986E-02
    9074.857     82.972   4.800  1.01742E+00  9.96723E-01  2.06947E-02
    9076.326     84.441   4.840  1.01047E+00  9.97112E-01  1.33549E-02
    9077.808     85.923   4.880  1.00287E+00  9.97522E-01  5.34738E-03
    9079.301     87.416   4.920  9.94809E-01  9.97904E-01 -3.09507E-03
    9080.807     88.922   4.960  9.86456E-01  9.98258E-01 -1.18021E-02
    9082.325     90.440   5.000  9.78147E-01  9.98627E-01 -2.04796E-02
    9083.855     91.970   5.040  9.70321E-01  9.98966E-01 -2.86449E-02
    9085.397     93.512   5.080  9.63577E-01  9.99276E-01 -3.56987E-02
    9086.952     95.067   5.120  9.58513E-01  9.99597E-01 -4.10840E-02
    9088.518     96.633   5.160  9.55345E-01  9.99862E-01 -4.45174E-02
    9090.097     98.212   5.200  9.54051E-01  1.00012E+00 -4.60645E-02
    9091.688     99.803   5.240  9.54242E-01  1.00033E+00 -4.60931E-02
    9093.291    101.407   5.280  9.55477E-01  1.00054E+00 -4.50635E-02
    9094.907    103.022   5.320  9.57352E-01  1.00071E+00 -4.33596E-02
    9096.534    104.650   5.360  9.59625E-01  1.00084E+00 -4.12193E-02
    9098.174    106.289   5.400  9.62207E-01  1.00094E+00 -3.87315E-02
    9099.826    107.941   5.440  9.65106E-01  1.00099E+00 -3.58879E-02
    9101.490    109.606   5.480  9.68409E-01  1.00104E+00 -3.26283E-02
    9103.167    111.282   5.520  9.72144E-01  1.00104E+00 -2.88993E-02
    9104.855    112.971   5.560  9.76344E-01  1.00101E+00 -2.46664E-02
    9106.556    114.671   5.600  9.81015E-01  1.00094E+00 -1.99229E-02
    9108.269    116.384   5.640  9.86093E-01  1.00083E+00 -1.47328E-02
    9109.994    118.110   5.680  9.91441E-01  1.00068E+00 -9.23635E-03
    9111.732    119.847   5.720  9.96872E-01  1.00051E+00 -3.64168E-03
    9113.481    121.596   5.760  1.00209E+00  1.00029E+00  1.79707E-03
    9115.243    123.358   5.800  1.00687E+00  1.00005E+00  6.81812E-03
    9117.017    125.132   5.840  1.01098E+00  9.99778E-01  1.12000E-02
    9118.803    126.918   5.880  1.01426E+00  9.99469E-01  1.47909E-02
    9120.601    128.716   5.920  1.01663E+00  9.99125E-01  1.75063E-02
    9122.412    130.527   5.960  1.01801E+00  9.98749E-01  1.92611E-02
    9124.235    132.350   6.000  1.01822E+00  9.98343E-01  1.98782E-02
