# # comment:                                                     FEFF 9.9.1  
# # Source:
# # Structure
# # Reduced
# # space
# # abc:
# # angles:
# # sites:
# # POT  SCF 100  7.0000   0, screened core-hole, AFOLP (folp(0)= 1.150)
# # Abs   Z=29 Rmt= 1.259 Rnm= 1.339 K  shell
# # Pot 1 Z=20 Rmt= 1.698 Rnm= 1.776
# # Pot 2 Z=29 Rmt= 1.259 Rnm= 1.339
# # Pot 3 Z=33 Rmt= 1.079 Rnm= 1.282
# # Pot 4 Z= 8 Rmt= 0.963 Rnm= 1.072
# # Gam_ch=1.729E+00 H-L exch Vi= 0.000E+00 Vr= 0.000E+00
# # Mu=-6.085E+00eV kf=2.279E+00 Vint=-1.707E+01eV Rs_int= 1.591
# FMS rfms= 9.0000
# # PATH  Rmax=-1.000,  Keep_limit= 0.00, Heap_limit 0.00  Pwcrit= 2.50%
#  S02=0.950  Temp=   0.00  Debye_temp=   0.00  Global_sig2= 0.00000
#  Energy zero shift, vr, vi    0.00000E+00   0.00000E+00
#  Curved wave amplitude ratio filter   4.000%
#     file         sig2 tot  cw amp ratio   deg  nlegs   reff  inp sig2
#     0/   0 paths used
#  xsedge+ 50, used to normalize mu           2.4721E-04
#  -----------------------------------------------------------------------
#  omega    e    k    mu    mu0     chi     @#
    8983.758     -9.895  -1.000  4.65719E-02  5.63931E-02 -9.82128E-03
    8984.056     -9.596  -0.960  4.94645E-02  6.05924E-02 -1.11278E-02
    8984.343     -9.309  -0.920  5.26304E-02  6.52690E-02 -1.26386E-02
    8984.617     -9.035  -0.880  5.61054E-02  7.04946E-02 -1.43892E-02
    8984.879     -8.773  -0.840  5.99308E-02  7.63521E-02 -1.64213E-02
    8985.129     -8.523  -0.800  6.41540E-02  8.29383E-02 -1.87843E-02
    8985.367     -8.285  -0.760  6.88288E-02  9.03641E-02 -2.15354E-02
    8985.593     -8.060  -0.720  7.40149E-02  9.87551E-02 -2.47402E-02
    8985.806     -7.846  -0.680  7.97776E-02  1.08250E-01 -2.84722E-02
    8986.007     -7.645  -0.640  8.61843E-02  1.18995E-01 -3.28103E-02
    8986.196     -7.456  -0.600  9.33005E-02  1.31134E-01 -3.78333E-02
    8986.373     -7.280  -0.560  1.01180E-01  1.44791E-01 -4.36107E-02
    8986.537     -7.115  -0.520  1.09853E-01  1.60040E-01 -5.01870E-02
    8986.690     -6.963  -0.480  1.19307E-01  1.76867E-01 -5.75600E-02
    8986.830     -6.822  -0.440  1.29466E-01  1.95123E-01 -6.56567E-02
    8986.958     -6.694  -0.400  1.40174E-01  2.14487E-01 -7.43128E-02
    8987.074     -6.578  -0.360  1.51187E-01  2.34454E-01 -8.32673E-02
    8987.177     -6.475  -0.320  1.62183E-01  2.54368E-01 -9.21844E-02
    8987.269     -6.383  -0.280  1.72800E-01  2.73499E-01 -1.00699E-01
    8987.348     -6.304  -0.240  1.82674E-01  2.91150E-01 -1.08477E-01
    8987.415     -6.237  -0.200  1.91484E-01  3.06739E-01 -1.15255E-01
    8987.470     -6.182  -0.160  1.98974E-01  3.19842E-01 -1.20867E-01
    8987.513     -6.140  -0.120  2.04963E-01  3.30191E-01 -1.25228E-01
    8987.543     -6.109  -0.080  2.09328E-01  3.37641E-01 -1.28314E-01
    8987.568     -6.085   0.000  2.12896E-01  3.43624E-01 -1.30728E-01
    8987.622     -6.030   0.120  2.20789E-01  3.57099E-01 -1.36310E-01
    8987.665     -5.987   0.160  2.26990E-01  3.67562E-01 -1.40572E-01
    8987.720     -5.932   0.200  2.35006E-01  3.80899E-01 -1.45893E-01
    8987.787     -5.865   0.240  2.44814E-01  3.96890E-01 -1.52077E-01
    8987.866     -5.786   0.280  2.56411E-01  4.15231E-01 -1.58820E-01
    8987.958     -5.695   0.320  2.69616E-01  4.35360E-01 -1.65745E-01
    8988.061     -5.591   0.360  2.84308E-01  4.56700E-01 -1.72392E-01
    8988.177     -5.475   0.400  3.00219E-01  4.78576E-01 -1.78357E-01
    8988.305     -5.347   0.440  3.17035E-01  5.00371E-01 -1.83336E-01
    8988.445     -5.207   0.480  3.34376E-01  5.21627E-01 -1.87251E-01
    8988.598     -5.054   0.520  3.51788E-01  5.42050E-01 -1.90263E-01
    8988.762     -4.890   0.560  3.68736E-01  5.61487E-01 -1.92751E-01
    8988.939     -4.713   0.600  3.84711E-01  5.79925E-01 -1.95213E-01
    8989.128     -4.524   0.640  3.99274E-01  5.97392E-01 -1.98117E-01
    8989.329     -4.323   0.680  4.12314E-01  6.14018E-01 -2.01705E-01
    8989.543     -4.110   0.720  4.24074E-01  6.29911E-01 -2.05837E-01
    8989.768     -3.884   0.760  4.35214E-01  6.45175E-01 -2.09961E-01
    8990.006     -3.646   0.800  4.46568E-01  6.59909E-01 -2.13341E-01
    8990.256     -3.396   0.840  4.58845E-01  6.74215E-01 -2.15370E-01
    8990.518     -3.134   0.880  4.72274E-01  6.88158E-01 -2.15885E-01
    8990.792     -2.860   0.920  4.86678E-01  7.01791E-01 -2.15113E-01
    8991.079     -2.573   0.960  5.01616E-01  7.15152E-01 -2.13536E-01
    8991.378     -2.275   1.000  5.16773E-01  7.28291E-01 -2.11517E-01
    8991.689     -1.964   1.040  5.32566E-01  7.41202E-01 -2.08636E-01
    8992.012     -1.641   1.080  5.50776E-01  7.53935E-01 -2.03160E-01
    8992.347     -1.305   1.120  5.75235E-01  7.66451E-01 -1.91215E-01
    8992.694     -0.958   1.160  6.11575E-01  7.78763E-01 -1.67188E-01
    8993.054     -0.598   1.200  6.61672E-01  7.90886E-01 -1.29214E-01
    8993.426     -0.226   1.240  7.18463E-01  8.02783E-01 -8.43205E-02
    8993.810      0.158   1.280  7.69798E-01  8.14461E-01 -4.46621E-02
    8994.206      0.554   1.320  8.07313E-01  8.25878E-01 -1.85650E-02
    8994.615      0.962   1.360  8.33048E-01  8.37056E-01 -4.00803E-03
    8995.035      1.383   1.400  8.61440E-01  8.47951E-01  1.34895E-02
    8995.468      1.816   1.440  9.08241E-01  8.58562E-01  4.96795E-02
    8995.913      2.261   1.480  9.74185E-01  8.68885E-01  1.05300E-01
    8996.370      2.718   1.520  1.04624E+00  8.78855E-01  1.67386E-01
    8996.840      3.187   1.560  1.10487E+00  8.88510E-01  2.16357E-01
    8997.321      3.669   1.600  1.13374E+00  8.97824E-01  2.35912E-01
    8997.815      4.163   1.640  1.14105E+00  9.06755E-01  2.34295E-01
    8998.321      4.669   1.680  1.14594E+00  9.15341E-01  2.30596E-01
    8998.839      5.187   1.720  1.15521E+00  9.23516E-01  2.31695E-01
    8999.369      5.717   1.760  1.16373E+00  9.31322E-01  2.32409E-01
    8999.912      6.260   1.800  1.16624E+00  9.38736E-01  2.27507E-01
    9000.467      6.814   1.840  1.16559E+00  9.45758E-01  2.19836E-01
    9001.034      7.381   1.880  1.16768E+00  9.52389E-01  2.15288E-01
    9001.613      7.960   1.920  1.17935E+00  9.58608E-01  2.20741E-01
    9002.204      8.552   1.960  1.20304E+00  9.64439E-01  2.38601E-01
    9002.808      9.155   2.000  1.23247E+00  9.69882E-01  2.62583E-01
    9003.423      9.771   2.040  1.25701E+00  9.74922E-01  2.82091E-01
    9004.051     10.399   2.080  1.26691E+00  9.79582E-01  2.87324E-01
    9004.691     11.039   2.120  1.25798E+00  9.83888E-01  2.74096E-01
    9005.343     11.691   2.160  1.23585E+00  9.87824E-01  2.48026E-01
    9006.008     12.356   2.200  1.20996E+00  9.91395E-01  2.18565E-01
    9006.685     13.032   2.240  1.18518E+00  9.94627E-01  1.90556E-01
    9007.373     13.721   2.280  1.16065E+00  9.97527E-01  1.63127E-01
    9008.074     14.422   2.320  1.13500E+00  1.00012E+00  1.34876E-01
    9008.788     15.135   2.360  1.11000E+00  1.00240E+00  1.07597E-01
    9009.513     15.861   2.400  1.08733E+00  1.00438E+00  8.29455E-02
    9010.251     16.598   2.440  1.06477E+00  1.00608E+00  5.86892E-02
    9011.001     17.348   2.480  1.04143E+00  1.00753E+00  3.39054E-02
    9011.763     18.110   2.520  1.02125E+00  1.00872E+00  1.25338E-02
    9012.537     18.884   2.560  1.00689E+00  1.00967E+00 -2.78137E-03
    9013.323     19.671   2.600  9.96919E-01  1.01041E+00 -1.34923E-02
    9014.122     20.469   2.640  9.89773E-01  1.01095E+00 -2.11725E-02
    9014.932     21.280   2.680  9.80734E-01  1.01130E+00 -3.05668E-02
    9015.755     22.103   2.720  9.65928E-01  1.01146E+00 -4.55354E-02
    9016.591     22.938   2.760  9.48041E-01  1.01146E+00 -6.34204E-02
    9017.438     23.786   2.800  9.29896E-01  1.01132E+00 -8.14277E-02
    9018.297     24.645   2.840  9.13936E-01  1.01104E+00 -9.71002E-02
    9019.169     25.517   2.880  9.01115E-01  1.01065E+00 -1.09531E-01
    9020.053     26.401   2.920  8.91455E-01  1.01014E+00 -1.18684E-01
    9020.949     27.297   2.960  8.85126E-01  1.00954E+00 -1.24417E-01
    9021.857     28.205   3.000  8.82248E-01  1.00886E+00 -1.26615E-01
    9022.778     29.126   3.040  8.82517E-01  1.00810E+00 -1.25585E-01
    9023.711     30.058   3.080  8.85358E-01  1.00727E+00 -1.21912E-01
    9024.656     31.003   3.120  8.90177E-01  1.00641E+00 -1.16233E-01
    9025.613     31.960   3.160  8.95762E-01  1.00549E+00 -1.09724E-01
    9026.582     32.930   3.200  9.01438E-01  1.00454E+00 -1.03105E-01
    9027.563     33.911   3.240  9.06560E-01  1.00357E+00 -9.70085E-02
    9028.557     34.905   3.280  9.10794E-01  1.00256E+00 -9.17691E-02
    9029.563     35.910   3.320  9.14172E-01  1.00157E+00 -8.74005E-02
    9030.581     36.928   3.360  9.16919E-01  1.00058E+00 -8.36624E-02
    9031.611     37.959   3.400  9.19470E-01  9.99571E-01 -8.01013E-02
    9032.653     39.001   3.440  9.22191E-01  9.98605E-01 -7.64135E-02
    9033.708     40.056   3.480  9.25460E-01  9.97626E-01 -7.21666E-02
    9034.775     41.123   3.520  9.29738E-01  9.96679E-01 -6.69412E-02
    9035.854     42.202   3.560  9.35447E-01  9.95765E-01 -6.03184E-02
    9036.945     43.293   3.600  9.42949E-01  9.94888E-01 -5.19387E-02
    9038.048     44.396   3.640  9.52505E-01  9.94049E-01 -4.15443E-02
    9039.164     45.512   3.680  9.64173E-01  9.93249E-01 -2.90766E-02
    9040.292     46.639   3.720  9.77642E-01  9.92489E-01 -1.48465E-02
    9041.432     47.779   3.760  9.92418E-01  9.91769E-01  6.49378E-04
    9042.584     48.931   3.800  1.00781E+00  9.91092E-01  1.67162E-02
    9043.748     50.096   3.840  1.02289E+00  9.90458E-01  3.24327E-02
    9044.925     51.272   3.880  1.03671E+00  9.89890E-01  4.68241E-02
    9046.113     52.461   3.920  1.04826E+00  9.89369E-01  5.88908E-02
    9047.314     53.662   3.960  1.05665E+00  9.88915E-01  6.77335E-02
    9048.527     54.875   4.000  1.06146E+00  9.88486E-01  7.29763E-02
    9049.753     56.100   4.040  1.06314E+00  9.88145E-01  7.49949E-02
    9050.990     57.338   4.080  1.06255E+00  9.87830E-01  7.47198E-02
    9052.240     58.587   4.120  1.06081E+00  9.87582E-01  7.32283E-02
    9053.502     59.849   4.160  1.05880E+00  9.87402E-01  7.13962E-02
    9054.776     61.123   4.200  1.05685E+00  9.87245E-01  6.96085E-02
    9056.062     62.410   4.240  1.05494E+00  9.87154E-01  6.77876E-02
    9057.360     63.708   4.280  1.05271E+00  9.87109E-01  6.56011E-02
    9058.671     65.019   4.320  1.04983E+00  9.87128E-01  6.27049E-02
    9059.994     66.342   4.360  1.04604E+00  9.87168E-01  5.88733E-02
    9061.329     67.677   4.400  1.04135E+00  9.87272E-01  5.40739E-02
    9062.676     69.024   4.440  1.03589E+00  9.87418E-01  4.84708E-02
    9064.036     70.383   4.480  1.02990E+00  9.87602E-01  4.23008E-02
    9065.407     71.755   4.520  1.02369E+00  9.87804E-01  3.58845E-02
    9066.791     73.139   4.560  1.01766E+00  9.88064E-01  2.95937E-02
    9068.187     74.535   4.600  1.01210E+00  9.88362E-01  2.37376E-02
    9069.595     75.943   4.640  1.00714E+00  9.88673E-01  1.84677E-02
    9071.015     77.363   4.680  1.00278E+00  9.89018E-01  1.37617E-02
    9072.448     78.796   4.720  9.98820E-01  9.89373E-01  9.44722E-03
    9073.893     80.240   4.760  9.95103E-01  9.89780E-01  5.32338E-03
    9075.350     81.697   4.800  9.91500E-01  9.90174E-01  1.32614E-03
    9076.819     83.166   4.840  9.88187E-01  9.90595E-01 -2.40765E-03
    9078.300     84.648   4.880  9.85421E-01  9.91022E-01 -5.60128E-03
    9079.794     86.141   4.920  9.83473E-01  9.91476E-01 -8.00284E-03
    9081.299     87.647   4.960  9.82314E-01  9.91931E-01 -9.61675E-03
    9082.817     89.165   5.000  9.81585E-01  9.92364E-01 -1.07788E-02
    9084.347     90.695   5.040  9.80757E-01  9.92818E-01 -1.20617E-02
    9085.890     92.237   5.080  9.79242E-01  9.93270E-01 -1.40281E-02
    9087.444     93.792   5.120  9.76772E-01  9.93696E-01 -1.69244E-02
    9089.011     95.358   5.160  9.73515E-01  9.94116E-01 -2.06006E-02
    9090.590     96.937   5.200  9.70009E-01  9.94531E-01 -2.45213E-02
    9092.181     98.528   5.240  9.66924E-01  9.94938E-01 -2.80138E-02
    9093.784    100.132   5.280  9.64753E-01  9.95314E-01 -3.05613E-02
    9095.399    101.747   5.320  9.63594E-01  9.95658E-01 -3.20638E-02
    9097.027    103.375   5.360  9.63141E-01  9.95991E-01 -3.28494E-02
    9098.667    105.014   5.400  9.62858E-01  9.96312E-01 -3.34540E-02
    9100.319    106.666   5.440  9.62219E-01  9.96574E-01 -3.43551E-02
    9101.983    108.331   5.480  9.60998E-01  9.96822E-01 -3.58240E-02
    9103.659    110.007   5.520  9.59119E-01  9.97034E-01 -3.79152E-02
    9105.348    111.696   5.560  9.56694E-01  9.97209E-01 -4.05154E-02
    9107.049    113.396   5.600  9.54007E-01  9.97368E-01 -4.33614E-02
    9108.762    115.109   5.640  9.51373E-01  9.97466E-01 -4.60936E-02
    9110.487    116.835   5.680  9.49278E-01  9.97546E-01 -4.82677E-02
    9112.224    118.572   5.720  9.48163E-01  9.97564E-01 -4.94012E-02
    9113.974    120.321   5.760  9.48577E-01  9.97564E-01 -4.89878E-02
    9115.735    122.083   5.800  9.50896E-01  9.97502E-01 -4.66066E-02
    9117.509    123.857   5.840  9.55421E-01  9.97424E-01 -4.20030E-02
    9119.296    125.643   5.880  9.62145E-01  9.97284E-01 -3.51392E-02
    9121.094    127.442   5.920  9.70894E-01  9.97131E-01 -2.62371E-02
    9122.904    129.252   5.960  9.81118E-01  9.96937E-01 -1.58186E-02
    9124.727    131.075   6.000  9.92294E-01  9.96648E-01 -4.35448E-03
