# # comment:                                                     FEFF 9.9.1  
# # Source:
# # Structure
# # Reduced
# # space
# # abc:
# # angles:
# # sites:
# # POT  SCF 100  7.0000   0, screened core-hole, AFOLP (folp(0)= 1.150)
# # Abs   Z=29 Rmt= 1.202 Rnm= 1.305 K  shell
# # Pot 1 Z=11 Rmt= 1.440 Rnm= 1.477
# # Pot 2 Z=29 Rmt= 1.202 Rnm= 1.305
# # Pot 3 Z= 8 Rmt= 1.046 Rnm= 1.115
# # Gam_ch=1.729E+00 H-L exch Vi= 0.000E+00 Vr= 0.000E+00
# # Mu=-7.973E+00eV kf=2.118E+00 Vint=-1.564E+01eV Rs_int= 1.712
# FMS rfms= 9.0000
# # PATH  Rmax=-1.000,  Keep_limit= 0.00, Heap_limit 0.00  Pwcrit= 2.50%
#  S02=0.950  Temp=   0.00  Debye_temp=   0.00  Global_sig2= 0.00000
#  Energy zero shift, vr, vi    0.00000E+00   0.00000E+00
#  Curved wave amplitude ratio filter   4.000%
#     file         sig2 tot  cw amp ratio   deg  nlegs   reff  inp sig2
#     0/   0 paths used
#  xsedge+ 50, used to normalize mu           2.4389E-04
#  -----------------------------------------------------------------------
#  omega    e    k    mu    mu0     chi     @#
    8984.030    -11.783  -1.000  3.74876E-02  5.51185E-02 -1.76309E-02
    8984.328    -11.484  -0.960  3.94851E-02  5.91097E-02 -1.96246E-02
    8984.615    -11.198  -0.920  4.16394E-02  6.35407E-02 -2.19013E-02
    8984.889    -10.924  -0.880  4.39675E-02  6.84757E-02 -2.45082E-02
    8985.151    -10.661  -0.840  4.64884E-02  7.39893E-02 -2.75009E-02
    8985.401    -10.411  -0.800  4.92236E-02  8.01677E-02 -3.09441E-02
    8985.639    -10.174  -0.760  5.21968E-02  8.71099E-02 -3.49131E-02
    8985.865     -9.948  -0.720  5.54341E-02  9.49276E-02 -3.94935E-02
    8986.078     -9.735  -0.680  5.89631E-02  1.03743E-01 -4.47803E-02
    8986.279     -9.534  -0.640  6.28117E-02  1.13687E-01 -5.08751E-02
    8986.468     -9.345  -0.600  6.70054E-02  1.24885E-01 -5.78793E-02
    8986.645     -9.168  -0.560  7.15627E-02  1.37445E-01 -6.58822E-02
    8986.810     -9.003  -0.520  7.64882E-02  1.51431E-01 -7.49432E-02
    8986.962     -8.851  -0.480  8.17628E-02  1.66829E-01 -8.50659E-02
    8987.102     -8.711  -0.440  8.73328E-02  1.83502E-01 -9.61691E-02
    8987.230     -8.583  -0.400  9.31016E-02  2.01163E-01 -1.08061E-01
    8987.346     -8.467  -0.360  9.89280E-02  2.19359E-01 -1.20431E-01
    8987.450     -8.363  -0.320  1.04636E-01  2.37503E-01 -1.32867E-01
    8987.541     -8.272  -0.280  1.10039E-01  2.54941E-01 -1.44902E-01
    8987.620     -8.193  -0.240  1.14963E-01  2.71043E-01 -1.56080E-01
    8987.687     -8.125  -0.200  1.19271E-01  2.85281E-01 -1.66011E-01
    8987.742     -8.071  -0.160  1.22868E-01  2.97265E-01 -1.74398E-01
    8987.785     -8.028  -0.120  1.25699E-01  3.06744E-01 -1.81045E-01
    8987.815     -7.997  -0.080  1.27736E-01  3.13577E-01 -1.85841E-01
    8987.840     -7.973   0.000  1.29383E-01  3.19069E-01 -1.89686E-01
    8987.895     -7.918   0.120  1.33124E-01  3.31456E-01 -1.98332E-01
    8987.937     -7.876   0.160  1.35970E-01  3.41092E-01 -2.05122E-01
    8987.992     -7.821   0.200  1.39592E-01  3.53420E-01 -2.13829E-01
    8988.059     -7.754   0.240  1.43886E-01  3.68245E-01 -2.24360E-01
    8988.138     -7.674   0.280  1.48843E-01  3.85331E-01 -2.36488E-01
    8988.230     -7.583   0.320  1.54412E-01  4.04246E-01 -2.49834E-01
    8988.334     -7.479   0.360  1.60590E-01  4.24458E-01 -2.63868E-01
    8988.449     -7.363   0.400  1.67521E-01  4.45418E-01 -2.77897E-01
    8988.577     -7.235   0.440  1.75526E-01  4.66624E-01 -2.91098E-01
    8988.718     -7.095   0.480  1.85132E-01  4.87647E-01 -3.02515E-01
    8988.870     -6.943   0.520  1.97193E-01  5.08259E-01 -3.11066E-01
    8989.035     -6.778   0.560  2.12769E-01  5.28302E-01 -3.15533E-01
    8989.211     -6.601   0.600  2.33170E-01  5.47741E-01 -3.14571E-01
    8989.400     -6.413   0.640  2.59926E-01  5.66648E-01 -3.06722E-01
    8989.601     -6.211   0.680  2.94292E-01  5.85047E-01 -2.90755E-01
    8989.815     -5.998   0.720  3.36756E-01  6.03057E-01 -2.66301E-01
    8990.040     -5.772   0.760  3.85727E-01  6.20711E-01 -2.34984E-01
    8990.278     -5.535   0.800  4.37157E-01  6.38076E-01 -2.00919E-01
    8990.528     -5.285   0.840  4.86057E-01  6.55223E-01 -1.69167E-01
    8990.790     -5.023   0.880  5.28471E-01  6.72172E-01 -1.43701E-01
    8991.065     -4.748   0.920  5.60418E-01  6.88947E-01 -1.28529E-01
    8991.351     -4.462   0.960  5.76525E-01  7.05520E-01 -1.28995E-01
    8991.650     -4.163   1.000  5.72558E-01  7.21936E-01 -1.49378E-01
    8991.961     -3.852   1.040  5.46913E-01  7.38147E-01 -1.91234E-01
    8992.284     -3.529   1.080  5.03644E-01  7.54121E-01 -2.50477E-01
    8992.619     -3.194   1.120  4.53386E-01  7.69879E-01 -3.16493E-01
    8992.966     -2.846   1.160  4.05548E-01  7.85339E-01 -3.79791E-01
    8993.326     -2.487   1.200  3.66440E-01  8.00493E-01 -4.34053E-01
    8993.698     -2.115   1.240  3.41881E-01  8.15292E-01 -4.73411E-01
    8994.082     -1.731   1.280  3.35440E-01  8.29728E-01 -4.94288E-01
    8994.478     -1.335   1.320  3.47625E-01  8.43747E-01 -4.96122E-01
    8994.887     -0.926   1.360  3.77138E-01  8.57297E-01 -4.80159E-01
    8995.307     -0.506   1.400  4.18847E-01  8.70370E-01 -4.51522E-01
    8995.740     -0.073   1.440  4.59848E-01  8.82954E-01 -4.23106E-01
    8996.185      0.372   1.480  4.91060E-01  8.94980E-01 -4.03920E-01
    8996.642      0.830   1.520  5.23869E-01  9.06459E-01 -3.82590E-01
    8997.112      1.299   1.560  5.73377E-01  9.17365E-01 -3.43988E-01
    8997.593      1.780   1.600  6.34253E-01  9.27696E-01 -2.93443E-01
    8998.087      2.274   1.640  6.82155E-01  9.37425E-01 -2.55270E-01
    8998.593      2.780   1.680  7.07320E-01  9.46552E-01 -2.39232E-01
    8999.111      3.298   1.720  7.30970E-01  9.55058E-01 -2.24088E-01
    8999.642      3.829   1.760  7.85378E-01  9.62985E-01 -1.77607E-01
    9000.184      4.371   1.800  8.87112E-01  9.70297E-01 -8.31853E-02
    9000.739      4.926   1.840  1.02586E+00  9.77042E-01  4.88217E-02
    9001.306      5.493   1.880  1.19943E+00  9.83203E-01  2.16228E-01
    9001.885      6.072   1.920  1.42393E+00  9.88811E-01  4.35121E-01
    9002.476      6.663   1.960  1.68259E+00  9.93872E-01  6.88715E-01
    9003.080      7.267   2.000  1.89826E+00  9.98397E-01  8.99867E-01
    9003.695      7.883   2.040  1.96274E+00  1.00242E+00  9.60317E-01
    9004.323      8.510   2.080  1.87155E+00  1.00597E+00  8.65585E-01
    9004.963      9.151   2.120  1.72223E+00  1.00906E+00  7.13165E-01
    9005.616      9.803   2.160  1.57513E+00  1.01170E+00  5.63424E-01
    9006.280     10.467   2.200  1.45747E+00  1.01393E+00  4.43532E-01
    9006.957     11.144   2.240  1.37412E+00  1.01580E+00  3.58317E-01
    9007.646     11.833   2.280  1.29880E+00  1.01728E+00  2.81519E-01
    9008.347     12.534   2.320  1.21091E+00  1.01845E+00  1.92458E-01
    9009.060     13.247   2.360  1.12603E+00  1.01932E+00  1.06709E-01
    9009.785     13.972   2.400  1.07196E+00  1.01988E+00  5.20799E-02
    9010.523     14.710   2.440  1.05185E+00  1.02018E+00  3.16663E-02
    9011.273     15.460   2.480  1.03429E+00  1.02026E+00  1.40255E-02
    9012.035     16.222   2.520  9.96493E-01  1.02013E+00 -2.36380E-02
    9012.809     16.996   2.560  9.55786E-01  1.01980E+00 -6.40139E-02
    9013.595     17.782   2.600  9.26186E-01  1.01930E+00 -9.31132E-02
    9014.394     18.581   2.640  9.06886E-01  1.01864E+00 -1.11755E-01
    9015.205     19.392   2.680  8.95769E-01  1.01787E+00 -1.22103E-01
    9016.028     20.215   2.720  8.91572E-01  1.01697E+00 -1.25394E-01
    9016.863     21.050   2.760  8.93077E-01  1.01599E+00 -1.22914E-01
    9017.710     21.897   2.800  8.99002E-01  1.01493E+00 -1.15932E-01
    9018.570     22.757   2.840  9.08285E-01  1.01380E+00 -1.05518E-01
    9019.441     23.628   2.880  9.19440E-01  1.01263E+00 -9.31853E-02
    9020.325     24.512   2.920  9.30976E-01  1.01141E+00 -8.04326E-02
    9021.221     25.408   2.960  9.41582E-01  1.01018E+00 -6.85979E-02
    9022.130     26.317   3.000  9.50415E-01  1.00895E+00 -5.85320E-02
    9023.050     27.237   3.040  9.57314E-01  1.00771E+00 -5.03996E-02
    9023.983     28.170   3.080  9.62563E-01  1.00649E+00 -4.39219E-02
    9024.928     29.115   3.120  9.66638E-01  1.00529E+00 -3.86474E-02
    9025.885     30.072   3.160  9.69717E-01  1.00410E+00 -3.43820E-02
    9026.854     31.041   3.200  9.71371E-01  1.00297E+00 -3.15990E-02
    9027.835     32.023   3.240  9.70479E-01  1.00186E+00 -3.13822E-02
    9028.829     33.016   3.280  9.65881E-01  1.00082E+00 -3.49369E-02
    9029.835     34.022   3.320  9.56999E-01  9.99821E-01 -4.28222E-02
    9030.853     35.040   3.360  9.44546E-01  9.98894E-01 -5.43481E-02
    9031.883     36.070   3.400  9.30215E-01  9.98018E-01 -6.78038E-02
    9032.926     37.113   3.440  9.15702E-01  9.97216E-01 -8.15137E-02
    9033.980     38.167   3.480  9.02414E-01  9.96466E-01 -9.40523E-02
    9035.047     39.234   3.520  8.91588E-01  9.95815E-01 -1.04226E-01
    9036.126     40.313   3.560  8.84077E-01  9.95221E-01 -1.11144E-01
    9037.217     41.404   3.600  8.80602E-01  9.94702E-01 -1.14100E-01
    9038.321     42.508   3.640  8.81622E-01  9.94263E-01 -1.12641E-01
    9039.436     43.623   3.680  8.87232E-01  9.93903E-01 -1.06671E-01
    9040.564     44.751   3.720  8.96942E-01  9.93622E-01 -9.66799E-02
    9041.704     45.891   3.760  9.10133E-01  9.93398E-01 -8.32650E-02
    9042.856     47.043   3.800  9.25991E-01  9.93272E-01 -6.72814E-02
    9044.020     48.207   3.840  9.43147E-01  9.93205E-01 -5.00580E-02
    9045.197     49.384   3.880  9.60093E-01  9.93236E-01 -3.31428E-02
    9046.385     50.573   3.920  9.75369E-01  9.93320E-01 -1.79516E-02
    9047.586     51.774   3.960  9.88011E-01  9.93459E-01 -5.44851E-03
    9048.799     52.987   4.000  9.97961E-01  9.93694E-01  4.26693E-03
    9050.025     54.212   4.040  1.00594E+00  9.93980E-01  1.19592E-02
    9051.262     55.449   4.080  1.01313E+00  9.94314E-01  1.88157E-02
    9052.512     56.699   4.120  1.02059E+00  9.94718E-01  2.58759E-02
    9053.774     57.961   4.160  1.02899E+00  9.95171E-01  3.38209E-02
    9055.048     59.235   4.200  1.03859E+00  9.95690E-01  4.28968E-02
    9056.334     60.521   4.240  1.04949E+00  9.96253E-01  5.32353E-02
    9057.633     61.820   4.280  1.06164E+00  9.96835E-01  6.48018E-02
    9058.943     63.130   4.320  1.07468E+00  9.97477E-01  7.72047E-02
    9060.266     64.453   4.360  1.08757E+00  9.98157E-01  8.94117E-02
    9061.601     65.788   4.400  1.09887E+00  9.98852E-01  1.00020E-01
    9062.948     67.135   4.440  1.10761E+00  9.99580E-01  1.08025E-01
    9064.308     68.495   4.480  1.11355E+00  1.00034E+00  1.13214E-01
    9065.679     69.866   4.520  1.11739E+00  1.00111E+00  1.16286E-01
    9067.063     71.250   4.560  1.12023E+00  1.00188E+00  1.18349E-01
    9068.459     72.646   4.600  1.12262E+00  1.00268E+00  1.19935E-01
    9069.867     74.054   4.640  1.12376E+00  1.00348E+00  1.20274E-01
    9071.288     75.475   4.680  1.12183E+00  1.00428E+00  1.17553E-01
    9072.720     76.907   4.720  1.11491E+00  1.00506E+00  1.09850E-01
    9074.165     78.352   4.760  1.10233E+00  1.00585E+00  9.64842E-02
    9075.622     79.809   4.800  1.08510E+00  1.00661E+00  7.84899E-02
    9077.091     81.278   4.840  1.06504E+00  1.00737E+00  5.76737E-02
    9078.572     82.759   4.880  1.04344E+00  1.00809E+00  3.53544E-02
    9080.066     84.253   4.920  1.02071E+00  1.00880E+00  1.19063E-02
    9081.571     85.759   4.960  9.96786E-01  1.00947E+00 -1.26890E-02
    9083.089     87.277   5.000  9.72177E-01  1.01011E+00 -3.79339E-02
    9084.619     88.807   5.040  9.48136E-01  1.01071E+00 -6.25731E-02
    9086.162     90.349   5.080  9.26285E-01  1.01129E+00 -8.50044E-02
    9087.716     91.903   5.120  9.08128E-01  1.01181E+00 -1.03679E-01
    9089.283     93.470   5.160  8.95267E-01  1.01230E+00 -1.17037E-01
    9090.862     95.049   5.200  8.89364E-01  1.01273E+00 -1.23370E-01
    9092.453     96.640   5.240  8.91686E-01  1.01312E+00 -1.21432E-01
    9094.056     98.243   5.280  9.02420E-01  1.01346E+00 -1.11039E-01
    9095.671     99.859   5.320  9.20297E-01  1.01375E+00 -9.34560E-02
    9097.299    101.486   5.360  9.42762E-01  1.01398E+00 -7.12149E-02
    9098.939    103.126   5.400  9.66655E-01  1.01415E+00 -4.74985E-02
    9100.591    104.778   5.440  9.89019E-01  1.01428E+00 -2.52641E-02
    9102.255    106.442   5.480  1.00786E+00  1.01434E+00 -6.48557E-03
    9103.931    108.119   5.520  1.02248E+00  1.01436E+00  8.12455E-03
    9105.620    109.807   5.560  1.03312E+00  1.01432E+00  1.87993E-02
    9107.321    111.508   5.600  1.04042E+00  1.01424E+00  2.61806E-02
    9109.034    113.221   5.640  1.04478E+00  1.01409E+00  3.06879E-02
    9110.759    114.946   5.680  1.04593E+00  1.01390E+00  3.20281E-02
    9112.496    116.683   5.720  1.04299E+00  1.01363E+00  2.93615E-02
    9114.246    118.433   5.760  1.03563E+00  1.01332E+00  2.23114E-02
    9116.008    120.195   5.800  1.02486E+00  1.01299E+00  1.18653E-02
    9117.782    121.969   5.840  1.01289E+00  1.01260E+00  2.83903E-04
    9119.568    123.755   5.880  1.00209E+00  1.01214E+00 -1.00576E-02
    9121.366    125.553   5.920  9.93890E-01  1.01167E+00 -1.77840E-02
    9123.176    127.364   5.960  9.88442E-01  1.01117E+00 -2.27283E-02
    9124.999    129.186   6.000  9.85268E-01  1.01060E+00 -2.53323E-02
