# # comment:                                                     FEFF 9.9.1  
# # Source:
# # Structure
# # Reduced
# # space
# # abc:
# # angles:
# # sites:
# # POT  SCF 100  7.0000   0, screened core-hole, AFOLP (folp(0)= 1.150)
# # Abs   Z=29 Rmt= 1.229 Rnm= 1.329 K  shell
# # Pot 1 Z=20 Rmt= 1.613 Rnm= 1.706
# # Pot 2 Z=29 Rmt= 1.229 Rnm= 1.329
# # Pot 3 Z=51 Rmt= 1.249 Rnm= 1.455
# # Pot 4 Z= 8 Rmt= 0.990 Rnm= 1.095
# # Gam_ch=1.729E+00 H-L exch Vi= 0.000E+00 Vr= 0.000E+00
# # Mu=-6.617E+00eV kf=2.185E+00 Vint=-1.629E+01eV Rs_int= 1.659
# FMS rfms= 9.0000
# # PATH  Rmax=-1.000,  Keep_limit= 0.00, Heap_limit 0.00  Pwcrit= 2.50%
#  S02=0.950  Temp=   0.00  Debye_temp=   0.00  Global_sig2= 0.00000
#  Energy zero shift, vr, vi    0.00000E+00   0.00000E+00
#  Curved wave amplitude ratio filter   4.000%
#     file         sig2 tot  cw amp ratio   deg  nlegs   reff  inp sig2
#     0/   0 paths used
#  xsedge+ 50, used to normalize mu           2.4631E-04
#  -----------------------------------------------------------------------
#  omega    e    k    mu    mu0     chi     @#
    8983.703    -10.427  -1.000  4.28437E-02  5.59929E-02 -1.31491E-02
    8984.002    -10.128  -0.960  4.54899E-02  6.01293E-02 -1.46393E-02
    8984.288     -9.842  -0.920  4.84031E-02  6.47319E-02 -1.63288E-02
    8984.563     -9.567  -0.880  5.16224E-02  6.98698E-02 -1.82474E-02
    8984.825     -9.305  -0.840  5.51942E-02  7.56238E-02 -2.04296E-02
    8985.075     -9.055  -0.800  5.91721E-02  8.20872E-02 -2.29151E-02
    8985.313     -8.817  -0.760  6.36186E-02  8.93674E-02 -2.57488E-02
    8985.538     -8.592  -0.720  6.86048E-02  9.75859E-02 -2.89811E-02
    8985.751     -8.379  -0.680  7.42096E-02  1.06876E-01 -3.26667E-02
    8985.953     -8.177  -0.640  8.05169E-02  1.17380E-01 -3.68632E-02
    8986.142     -7.988  -0.600  8.76094E-02  1.29236E-01 -4.16268E-02
    8986.318     -7.812  -0.560  9.55570E-02  1.42563E-01 -4.70062E-02
    8986.483     -7.647  -0.520  1.04400E-01  1.57433E-01 -5.30329E-02
    8986.635     -7.495  -0.480  1.14122E-01  1.73829E-01 -5.97076E-02
    8986.776     -7.354  -0.440  1.24625E-01  1.91609E-01 -6.69846E-02
    8986.904     -7.226  -0.400  1.35703E-01  2.10461E-01 -7.47579E-02
    8987.019     -7.111  -0.360  1.47043E-01  2.29896E-01 -8.28530E-02
    8987.123     -7.007  -0.320  1.58244E-01  2.49277E-01 -9.10333E-02
    8987.215     -6.916  -0.280  1.68879E-01  2.67900E-01 -9.90208E-02
    8987.294     -6.836  -0.240  1.78559E-01  2.85086E-01 -1.06527E-01
    8987.361     -6.769  -0.200  1.86983E-01  3.00269E-01 -1.13286E-01
    8987.416     -6.714  -0.160  1.93960E-01  3.13035E-01 -1.19075E-01
    8987.458     -6.672  -0.120  1.99390E-01  3.23123E-01 -1.23732E-01
    8987.489     -6.641  -0.080  2.03235E-01  3.30387E-01 -1.27152E-01
    8987.513     -6.617   0.000  2.06215E-01  3.36221E-01 -1.30006E-01
    8987.568     -6.562   0.120  2.13107E-01  3.49381E-01 -1.36274E-01
    8987.611     -6.519   0.160  2.18464E-01  3.59589E-01 -1.41125E-01
    8987.666     -6.464   0.200  2.25236E-01  3.72618E-01 -1.47382E-01
    8987.733     -6.397   0.240  2.33279E-01  3.88281E-01 -1.55003E-01
    8987.812     -6.318   0.280  2.42334E-01  4.06236E-01 -1.63902E-01
    8987.903     -6.227   0.320  2.52123E-01  4.26007E-01 -1.73884E-01
    8988.007     -6.123   0.360  2.62369E-01  4.47009E-01 -1.84640E-01
    8988.123     -6.007   0.400  2.72885E-01  4.68622E-01 -1.95737E-01
    8988.251     -5.879   0.440  2.83628E-01  4.90238E-01 -2.06609E-01
    8988.391     -5.739   0.480  2.94814E-01  5.11436E-01 -2.16621E-01
    8988.543     -5.587   0.520  3.06831E-01  5.31940E-01 -2.25109E-01
    8988.708     -5.422   0.560  3.20085E-01  5.51558E-01 -2.31473E-01
    8988.885     -5.245   0.600  3.34887E-01  5.70299E-01 -2.35412E-01
    8989.074     -5.056   0.640  3.51117E-01  5.88225E-01 -2.37108E-01
    8989.275     -4.855   0.680  3.67978E-01  6.05398E-01 -2.37421E-01
    8989.488     -4.642   0.720  3.84150E-01  6.21916E-01 -2.37766E-01
    8989.714     -4.416   0.760  3.98244E-01  6.37895E-01 -2.39650E-01
    8989.952     -4.178   0.800  4.09312E-01  6.53444E-01 -2.44132E-01
    8990.202     -3.928   0.840  4.16932E-01  6.68594E-01 -2.51662E-01
    8990.464     -3.666   0.880  4.21100E-01  6.83423E-01 -2.62323E-01
    8990.738     -3.392   0.920  4.22396E-01  6.97995E-01 -2.75600E-01
    8991.024     -3.106   0.960  4.22077E-01  7.12302E-01 -2.90226E-01
    8991.323     -2.807   1.000  4.21312E-01  7.26404E-01 -3.05093E-01
    8991.634     -2.496   1.040  4.20505E-01  7.40290E-01 -3.19785E-01
    8991.957     -2.173   1.080  4.19856E-01  7.53963E-01 -3.34107E-01
    8992.292     -1.838   1.120  4.20522E-01  7.67418E-01 -3.46896E-01
    8992.640     -1.490   1.160  4.25593E-01  7.80645E-01 -3.55052E-01
    8993.000     -1.130   1.200  4.39230E-01  7.93629E-01 -3.54400E-01
    8993.371     -0.759   1.240  4.64487E-01  8.06374E-01 -3.41887E-01
    8993.755     -0.375   1.280  5.01537E-01  8.18819E-01 -3.17282E-01
    8994.152      0.022   1.320  5.47385E-01  8.30982E-01 -2.83597E-01
    8994.560      0.430   1.360  5.96728E-01  8.42838E-01 -2.46110E-01
    8994.981      0.851   1.400  6.43070E-01  8.54343E-01 -2.11273E-01
    8995.414      1.284   1.440  6.81031E-01  8.65492E-01 -1.84461E-01
    8995.859      1.729   1.480  7.11702E-01  8.76281E-01 -1.64579E-01
    8996.316      2.186   1.520  7.43628E-01  8.86664E-01 -1.43035E-01
    8996.785      2.655   1.560  7.85634E-01  8.96657E-01 -1.11023E-01
    8997.267      3.137   1.600  8.40010E-01  9.06215E-01 -6.62049E-02
    8997.761      3.631   1.640  9.08131E-01  9.15334E-01 -7.20322E-03
    8998.267      4.136   1.680  9.99130E-01  9.24034E-01  7.50965E-02
    8998.785      4.655   1.720  1.11781E+00  9.32271E-01  1.85534E-01
    8999.315      5.185   1.760  1.24291E+00  9.40066E-01  3.02846E-01
    8999.858      5.728   1.800  1.33935E+00  9.47400E-01  3.91948E-01
    9000.412      6.282   1.840  1.39351E+00  9.54295E-01  4.39218E-01
    9000.979      6.849   1.880  1.41659E+00  9.60730E-01  4.55864E-01
    9001.558      7.428   1.920  1.42144E+00  9.66730E-01  4.54706E-01
    9002.150      8.020   1.960  1.41161E+00  9.72279E-01  4.39332E-01
    9002.753      8.623   2.000  1.38998E+00  9.77401E-01  4.12579E-01
    9003.369      9.239   2.040  1.36700E+00  9.82103E-01  3.84896E-01
    9003.997      9.867   2.080  1.35013E+00  9.86392E-01  3.63739E-01
    9004.637     10.507   2.120  1.33643E+00  9.90293E-01  3.46141E-01
    9005.289     11.159   2.160  1.32194E+00  9.93794E-01  3.28142E-01
    9005.954     11.824   2.200  1.30125E+00  9.96944E-01  3.04301E-01
    9006.630     12.500   2.240  1.26753E+00  9.99731E-01  2.67796E-01
    9007.319     13.189   2.280  1.21874E+00  1.00218E+00  2.16558E-01
    9008.020     13.890   2.320  1.15969E+00  1.00433E+00  1.55363E-01
    9008.733     14.603   2.360  1.10048E+00  1.00615E+00  9.43304E-02
    9009.459     15.329   2.400  1.05321E+00  1.00769E+00  4.55161E-02
    9010.196     16.066   2.440  1.02315E+00  1.00897E+00  1.41772E-02
    9010.946     16.816   2.480  1.00529E+00  1.01000E+00 -4.71677E-03
    9011.708     17.578   2.520  9.92770E-01  1.01079E+00 -1.80213E-02
    9012.482     18.352   2.560  9.83969E-01  1.01137E+00 -2.73970E-02
    9013.269     19.139   2.600  9.80789E-01  1.01174E+00 -3.09469E-02
    9014.067     19.937   2.640  9.80945E-01  1.01191E+00 -3.09650E-02
    9014.878     20.748   2.680  9.82015E-01  1.01194E+00 -2.99230E-02
    9015.701     21.571   2.720  9.81443E-01  1.01181E+00 -3.03638E-02
    9016.536     22.406   2.760  9.77557E-01  1.01154E+00 -3.39874E-02
    9017.383     23.253   2.800  9.70700E-01  1.01116E+00 -4.04578E-02
    9018.243     24.113   2.840  9.62208E-01  1.01065E+00 -4.84472E-02
    9019.115     24.985   2.880  9.53308E-01  1.01006E+00 -5.67535E-02
    9019.999     25.869   2.920  9.44688E-01  1.00938E+00 -6.46956E-02
    9020.895     26.765   2.960  9.36798E-01  1.00863E+00 -7.18312E-02
    9021.803     27.673   3.000  9.29773E-01  1.00782E+00 -7.80501E-02
    9022.724     28.594   3.040  9.23484E-01  1.00697E+00 -8.34867E-02
    9023.656     29.526   3.080  9.17830E-01  1.00608E+00 -8.82502E-02
    9024.601     30.471   3.120  9.12752E-01  1.00515E+00 -9.24011E-02
    9025.558     31.428   3.160  9.08175E-01  1.00422E+00 -9.60401E-02
    9026.527     32.397   3.200  9.04048E-01  1.00327E+00 -9.92247E-02
    9027.509     33.379   3.240  9.00585E-01  1.00233E+00 -1.01742E-01
    9028.503     34.373   3.280  8.97569E-01  1.00138E+00 -1.03814E-01
    9029.508     35.378   3.320  8.94873E-01  1.00044E+00 -1.05570E-01
    9030.526     36.396   3.360  8.92597E-01  9.99532E-01 -1.06936E-01
    9031.557     37.427   3.400  8.90886E-01  9.98653E-01 -1.07766E-01
    9032.599     38.469   3.440  8.89849E-01  9.97787E-01 -1.07938E-01
    9033.654     39.524   3.480  8.89808E-01  9.96956E-01 -1.07148E-01
    9034.720     40.590   3.520  8.91205E-01  9.96162E-01 -1.04957E-01
    9035.799     41.669   3.560  8.94315E-01  9.95408E-01 -1.01093E-01
    9036.891     42.761   3.600  8.99487E-01  9.94695E-01 -9.52087E-02
    9037.994     43.864   3.640  9.07086E-01  9.94046E-01 -8.69600E-02
    9039.110     44.980   3.680  9.17160E-01  9.93420E-01 -7.62600E-02
    9040.237     46.107   3.720  9.29468E-01  9.92859E-01 -6.33908E-02
    9041.377     47.247   3.760  9.43576E-01  9.92343E-01 -4.87671E-02
    9042.529     48.399   3.800  9.59124E-01  9.91896E-01 -3.27721E-02
    9043.694     49.564   3.840  9.75901E-01  9.91494E-01 -1.55935E-02
    9044.870     50.740   3.880  9.93921E-01  9.91139E-01  2.78200E-03
    9046.059     51.929   3.920  1.01297E+00  9.90852E-01  2.21221E-02
    9047.260     53.130   3.960  1.03218E+00  9.90613E-01  4.15655E-02
    9048.473     54.343   4.000  1.05023E+00  9.90439E-01  5.97913E-02
    9049.698     55.568   4.040  1.06563E+00  9.90291E-01  7.53375E-02
    9050.936     56.806   4.080  1.07730E+00  9.90209E-01  8.70948E-02
    9052.185     58.055   4.120  1.08490E+00  9.90194E-01  9.47093E-02
    9053.447     59.317   4.160  1.08887E+00  9.90224E-01  9.86495E-02
    9054.721     60.591   4.200  1.08990E+00  9.90277E-01  9.96186E-02
    9056.008     61.878   4.240  1.08856E+00  9.90414E-01  9.81413E-02
    9057.306     63.176   4.280  1.08516E+00  9.90571E-01  9.45942E-02
    9058.617     64.487   4.320  1.08016E+00  9.90766E-01  8.93962E-02
    9059.939     65.809   4.360  1.07409E+00  9.91002E-01  8.30856E-02
    9061.274     67.144   4.400  1.06760E+00  9.91276E-01  7.63283E-02
    9062.622     68.492   4.440  1.06140E+00  9.91588E-01  6.98129E-02
    9063.981     69.851   4.480  1.05591E+00  9.91934E-01  6.39758E-02
    9065.353     71.223   4.520  1.05116E+00  9.92295E-01  5.88704E-02
    9066.736     72.606   4.560  1.04697E+00  9.92709E-01  5.42639E-02
    9068.132     74.002   4.600  1.04286E+00  9.93111E-01  4.97454E-02
    9069.541     75.411   4.640  1.03845E+00  9.93543E-01  4.49120E-02
    9070.961     76.831   4.680  1.03348E+00  9.94004E-01  3.94719E-02
    9072.394     78.264   4.720  1.02773E+00  9.94471E-01  3.32584E-02
    9073.838     79.708   4.760  1.02115E+00  9.94941E-01  2.62137E-02
    9075.295     81.165   4.800  1.01374E+00  9.95413E-01  1.83222E-02
    9076.764     82.634   4.840  1.00546E+00  9.95909E-01  9.54624E-03
    9078.246     84.116   4.880  9.96350E-01  9.96383E-01 -3.31981E-05
    9079.739     85.609   4.920  9.86847E-01  9.96876E-01 -1.00295E-02
    9081.245     87.115   4.960  9.77600E-01  9.97344E-01 -1.97447E-02
    9082.763     88.633   5.000  9.69451E-01  9.97808E-01 -2.83566E-02
    9084.293     90.163   5.040  9.63004E-01  9.98264E-01 -3.52599E-02
    9085.835     91.705   5.080  9.58578E-01  9.98690E-01 -4.01123E-02
    9087.390     93.260   5.120  9.56336E-01  9.99107E-01 -4.27702E-02
    9088.956     94.826   5.160  9.56235E-01  9.99492E-01 -4.32566E-02
    9090.535     96.405   5.200  9.58048E-01  9.99866E-01 -4.18187E-02
    9092.126     97.996   5.240  9.61172E-01  1.00021E+00 -3.90356E-02
    9093.729     99.599   5.280  9.64907E-01  1.00054E+00 -3.56301E-02
    9095.345    101.215   5.320  9.68565E-01  1.00083E+00 -3.22659E-02
    9096.973    102.843   5.360  9.71736E-01  1.00109E+00 -2.93514E-02
    9098.612    104.482   5.400  9.74245E-01  1.00131E+00 -2.70599E-02
    9100.264    106.134   5.440  9.76064E-01  1.00151E+00 -2.54441E-02
    9101.929    107.799   5.480  9.77113E-01  1.00165E+00 -2.45370E-02
    9103.605    109.475   5.520  9.77427E-01  1.00177E+00 -2.43480E-02
    9105.294    111.164   5.560  9.76962E-01  1.00186E+00 -2.49008E-02
    9106.994    112.864   5.600  9.75670E-01  1.00191E+00 -2.62374E-02
    9108.707    114.577   5.640  9.73509E-01  1.00189E+00 -2.83797E-02
    9110.432    116.302   5.680  9.70687E-01  1.00185E+00 -3.11663E-02
    9112.170    118.040   5.720  9.67557E-01  1.00178E+00 -3.42226E-02
    9113.919    119.789   5.760  9.64630E-01  1.00167E+00 -3.70363E-02
    9115.681    121.551   5.800  9.62421E-01  1.00151E+00 -3.90928E-02
    9117.455    123.325   5.840  9.61437E-01  1.00132E+00 -3.98855E-02
    9119.241    125.111   5.880  9.62135E-01  1.00109E+00 -3.89594E-02
    9121.039    126.909   5.920  9.64815E-01  1.00083E+00 -3.60129E-02
    9122.850    128.720   5.960  9.69492E-01  1.00052E+00 -3.10317E-02
    9124.673    130.543   6.000  9.76030E-01  1.00015E+00 -2.41252E-02
