# # comment:                                                     FEFF 9.9.1  
# # Source:
# # Structure
# # Reduced
# # space
# # abc:
# # angles:
# # sites:
# # POT  SCF 100  7.0000   0, screened core-hole, AFOLP (folp(0)= 1.150)
# # Abs   Z=29 Rmt= 1.271 Rnm= 1.356 K  shell
# # Pot 1 Z=29 Rmt= 1.254 Rnm= 1.351
# # Pot 2 Z=34 Rmt= 1.086 Rnm= 1.328
# # Pot 3 Z= 8 Rmt= 1.011 Rnm= 1.110
# # Gam_ch=1.729E+00 H-L exch Vi= 0.000E+00 Vr= 0.000E+00
# # Mu=-6.582E+00eV kf=2.220E+00 Vint=-1.511E+01eV Rs_int= 1.634
# FMS rfms= 9.0000
# # PATH  Rmax=-1.000,  Keep_limit= 0.00, Heap_limit 0.00  Pwcrit= 2.50%
#  S02=0.950  Temp=   0.00  Debye_temp=   0.00  Global_sig2= 0.00000
#  Energy zero shift, vr, vi    0.00000E+00   0.00000E+00
#  Curved wave amplitude ratio filter   4.000%
#     file         sig2 tot  cw amp ratio   deg  nlegs   reff  inp sig2
#     0/   0 paths used
#  xsedge+ 50, used to normalize mu           2.4600E-04
#  -----------------------------------------------------------------------
#  omega    e    k    mu    mu0     chi     @#
    8983.317    -10.392  -1.000  3.64884E-02  5.31006E-02 -1.66122E-02
    8983.616    -10.093  -0.960  3.83219E-02  5.69361E-02 -1.86142E-02
    8983.902     -9.807  -0.920  4.02904E-02  6.11960E-02 -2.09057E-02
    8984.176     -9.533  -0.880  4.24089E-02  6.59427E-02 -2.35338E-02
    8984.438     -9.271  -0.840  4.46946E-02  7.12485E-02 -2.65540E-02
    8984.688     -9.021  -0.800  4.71670E-02  7.71975E-02 -3.00305E-02
    8984.926     -8.783  -0.760  4.98482E-02  8.38858E-02 -3.40377E-02
    8985.152     -8.557  -0.720  5.27625E-02  9.14223E-02 -3.86599E-02
    8985.365     -8.344  -0.680  5.59362E-02  9.99267E-02 -4.39905E-02
    8985.566     -8.143  -0.640  5.93963E-02  1.09525E-01 -5.01288E-02
    8985.755     -7.954  -0.600  6.31684E-02  1.20342E-01 -5.71732E-02
    8985.932     -7.777  -0.560  6.72730E-02  1.32482E-01 -6.52090E-02
    8986.097     -7.612  -0.520  7.17196E-02  1.46009E-01 -7.42891E-02
    8986.249     -7.460  -0.480  7.64995E-02  1.60907E-01 -8.44079E-02
    8986.389     -7.320  -0.440  8.15769E-02  1.77048E-01 -9.54707E-02
    8986.517     -7.192  -0.400  8.68806E-02  1.94149E-01 -1.07268E-01
    8986.633     -7.076  -0.360  9.23013E-02  2.11771E-01 -1.19469E-01
    8986.737     -6.972  -0.320  9.76956E-02  2.29341E-01 -1.31646E-01
    8986.828     -6.881  -0.280  1.02899E-01  2.46225E-01 -1.43326E-01
    8986.907     -6.802  -0.240  1.07745E-01  2.61812E-01 -1.54066E-01
    8986.974     -6.735  -0.200  1.12082E-01  2.75587E-01 -1.63505E-01
    8987.029     -6.680  -0.160  1.15785E-01  2.87177E-01 -1.71393E-01
    8987.072     -6.637  -0.120  1.18758E-01  2.96341E-01 -1.77582E-01
    8987.102     -6.607  -0.080  1.20939E-01  3.02943E-01 -1.82004E-01
    8987.127     -6.582   0.000  1.22743E-01  3.08248E-01 -1.85505E-01
    8987.182     -6.527   0.120  1.26749E-01  3.20219E-01 -1.93470E-01
    8987.224     -6.485   0.160  1.29866E-01  3.29514E-01 -1.99649E-01
    8987.279     -6.430   0.200  1.33884E-01  3.41408E-01 -2.07524E-01
    8987.346     -6.363   0.240  1.38778E-01  3.55704E-01 -2.16926E-01
    8987.426     -6.284   0.280  1.44524E-01  3.72121E-01 -2.27597E-01
    8987.517     -6.192   0.320  1.51045E-01  3.90291E-01 -2.39246E-01
    8987.621     -6.088   0.360  1.58162E-01  4.09640E-01 -2.51478E-01
    8987.736     -5.973   0.400  1.65667E-01  4.29644E-01 -2.63977E-01
    8987.864     -5.845   0.440  1.73340E-01  4.49788E-01 -2.76447E-01
    8988.005     -5.704   0.480  1.81006E-01  4.69686E-01 -2.88680E-01
    8988.157     -5.552   0.520  1.88594E-01  4.89073E-01 -3.00479E-01
    8988.322     -5.387   0.560  1.96217E-01  5.07835E-01 -3.11618E-01
    8988.498     -5.211   0.600  2.04131E-01  5.25961E-01 -3.21830E-01
    8988.687     -5.022   0.640  2.12758E-01  5.43465E-01 -3.30706E-01
    8988.889     -4.820   0.680  2.22645E-01  5.60414E-01 -3.37769E-01
    8989.102     -4.607   0.720  2.34433E-01  5.76931E-01 -3.42498E-01
    8989.327     -4.382   0.760  2.48513E-01  5.93054E-01 -3.44541E-01
    8989.565     -4.144   0.800  2.65024E-01  6.08897E-01 -3.43873E-01
    8989.815     -3.894   0.840  2.83561E-01  6.24495E-01 -3.40934E-01
    8990.077     -3.632   0.880  3.03476E-01  6.39914E-01 -3.36438E-01
    8990.352     -3.357   0.920  3.23942E-01  6.55145E-01 -3.31203E-01
    8990.638     -3.071   0.960  3.44331E-01  6.70249E-01 -3.25918E-01
    8990.937     -2.772   1.000  3.64154E-01  6.85195E-01 -3.21041E-01
    8991.248     -2.461   1.040  3.83258E-01  7.00025E-01 -3.16768E-01
    8991.571     -2.138   1.080  4.02253E-01  7.14694E-01 -3.12441E-01
    8991.906     -1.803   1.120  4.22936E-01  7.29209E-01 -3.06274E-01
    8992.254     -1.455   1.160  4.47272E-01  7.43553E-01 -2.96281E-01
    8992.613     -1.096   1.200  4.76698E-01  7.57664E-01 -2.80967E-01
    8992.985     -0.724   1.240  5.11764E-01  7.71582E-01 -2.59818E-01
    8993.369     -0.340   1.280  5.51320E-01  7.85219E-01 -2.33899E-01
    8993.765      0.056   1.320  5.94944E-01  7.98588E-01 -2.03644E-01
    8994.174      0.465   1.360  6.45066E-01  8.11642E-01 -1.66576E-01
    8994.594      0.885   1.400  7.04829E-01  8.24351E-01 -1.19522E-01
    8995.027      1.318   1.440  7.70687E-01  8.36706E-01 -6.60186E-02
    8995.472      1.763   1.480  8.30779E-01  8.48659E-01 -1.78801E-02
    8995.929      2.220   1.520  8.77108E-01  8.60223E-01  1.68845E-02
    8996.399      2.690   1.560  9.13299E-01  8.71370E-01  4.19291E-02
    8996.880      3.171   1.600  9.48950E-01  8.82054E-01  6.68963E-02
    8997.374      3.665   1.640  9.92353E-01  8.92288E-01  1.00065E-01
    8997.880      4.171   1.680  1.04512E+00  9.02027E-01  1.43093E-01
    8998.398      4.689   1.720  1.10466E+00  9.11311E-01  1.93347E-01
    8998.929      5.220   1.760  1.17254E+00  9.20097E-01  2.52438E-01
    8999.471      5.762   1.800  1.25086E+00  9.28405E-01  3.22460E-01
    9000.026      6.317   1.840  1.33295E+00  9.36215E-01  3.96737E-01
    9000.593      6.884   1.880  1.40200E+00  9.43550E-01  4.58448E-01
    9001.172      7.463   1.920  1.44045E+00  9.50390E-01  4.90063E-01
    9001.763      8.054   1.960  1.44340E+00  9.56762E-01  4.86643E-01
    9002.367      8.658   2.000  1.41794E+00  9.62649E-01  4.55286E-01
    9002.982      9.273   2.040  1.36999E+00  9.68078E-01  4.01908E-01
    9003.610      9.901   2.080  1.30550E+00  9.73076E-01  3.32421E-01
    9004.250     10.541   2.120  1.23823E+00  9.77651E-01  2.60582E-01
    9004.903     11.194   2.160  1.18107E+00  9.81790E-01  1.99283E-01
    9005.567     11.858   2.200  1.13854E+00  9.85541E-01  1.52997E-01
    9006.244     12.535   2.240  1.10966E+00  9.88894E-01  1.20766E-01
    9006.933     13.224   2.280  1.09041E+00  9.91898E-01  9.85124E-02
    9007.634     13.925   2.320  1.07604E+00  9.94563E-01  8.14793E-02
    9008.347     14.638   2.360  1.06415E+00  9.96879E-01  6.72740E-02
    9009.072     15.363   2.400  1.05443E+00  9.98893E-01  5.55408E-02
    9009.810     16.101   2.440  1.04715E+00  1.00062E+00  4.65338E-02
    9010.560     16.851   2.480  1.04164E+00  1.00206E+00  3.95779E-02
    9011.322     17.613   2.520  1.03427E+00  1.00328E+00  3.09969E-02
    9012.096     18.387   2.560  1.01896E+00  1.00423E+00  1.47316E-02
    9012.882     19.173   2.600  9.92519E-01  1.00499E+00 -1.24709E-02
    9013.681     19.972   2.640  9.65406E-01  1.00555E+00 -4.01410E-02
    9014.492     20.783   2.680  9.46946E-01  1.00591E+00 -5.89661E-02
    9015.315     21.606   2.720  9.34084E-01  1.00611E+00 -7.20266E-02
    9016.150     22.441   2.760  9.24169E-01  1.00617E+00 -8.20041E-02
    9016.997     23.288   2.800  9.15770E-01  1.00611E+00 -9.03375E-02
    9017.857     24.148   2.840  9.08325E-01  1.00592E+00 -9.75951E-02
    9018.728     25.019   2.880  9.01509E-01  1.00562E+00 -1.04110E-01
    9019.612     25.903   2.920  8.95141E-01  1.00523E+00 -1.10089E-01
    9020.508     26.799   2.960  8.89527E-01  1.00478E+00 -1.15255E-01
    9021.417     27.708   3.000  8.84800E-01  1.00426E+00 -1.19459E-01
    9022.337     28.628   3.040  8.81055E-01  1.00369E+00 -1.22633E-01
    9023.270     29.561   3.080  8.78496E-01  1.00305E+00 -1.24557E-01
    9024.215     30.506   3.120  8.77461E-01  1.00240E+00 -1.24940E-01
    9025.172     31.463   3.160  8.78111E-01  1.00174E+00 -1.23626E-01
    9026.141     32.432   3.200  8.80558E-01  1.00104E+00 -1.20484E-01
    9027.122     33.413   3.240  8.84998E-01  1.00034E+00 -1.15346E-01
    9028.116     34.407   3.280  8.91135E-01  9.99645E-01 -1.08510E-01
    9029.122     35.413   3.320  8.98790E-01  9.98947E-01 -1.00158E-01
    9030.140     36.431   3.360  9.07794E-01  9.98275E-01 -9.04805E-02
    9031.170     37.461   3.400  9.17901E-01  9.97612E-01 -7.97106E-02
    9032.213     38.504   3.440  9.28809E-01  9.96980E-01 -6.81707E-02
    9033.267     39.558   3.480  9.40259E-01  9.96359E-01 -5.61006E-02
    9034.334     40.625   3.520  9.52075E-01  9.95775E-01 -4.37005E-02
    9035.413     41.704   3.560  9.64046E-01  9.95250E-01 -3.12039E-02
    9036.504     42.795   3.600  9.76007E-01  9.94743E-01 -1.87361E-02
    9037.608     43.899   3.640  9.87901E-01  9.94276E-01 -6.37424E-03
    9038.723     45.014   3.680  9.99613E-01  9.93871E-01  5.74234E-03
    9039.851     46.142   3.720  1.01095E+00  9.93487E-01  1.74610E-02
    9040.991     47.282   3.760  1.02179E+00  9.93166E-01  2.86190E-02
    9042.143     48.434   3.800  1.03188E+00  9.92890E-01  3.89861E-02
    9043.307     49.598   3.840  1.04090E+00  9.92657E-01  4.82430E-02
    9044.484     50.775   3.880  1.04856E+00  9.92488E-01  5.60760E-02
    9045.673     51.964   3.920  1.05454E+00  9.92341E-01  6.21946E-02
    9046.873     53.164   3.960  1.05862E+00  9.92258E-01  6.63656E-02
    9048.087     54.378   4.000  1.06090E+00  9.92220E-01  6.86784E-02
    9049.312     55.603   4.040  1.06173E+00  9.92224E-01  6.95069E-02
    9050.549     56.840   4.080  1.06164E+00  9.92290E-01  6.93467E-02
    9051.799     58.090   4.120  1.06098E+00  9.92377E-01  6.86008E-02
    9053.061     59.352   4.160  1.05993E+00  9.92503E-01  6.74298E-02
    9054.335     60.626   4.200  1.05833E+00  9.92689E-01  6.56366E-02
    9055.621     61.912   4.240  1.05571E+00  9.92893E-01  6.28191E-02
    9056.920     63.211   4.280  1.05181E+00  9.93136E-01  5.86699E-02
    9058.230     64.521   4.320  1.04656E+00  9.93435E-01  5.31280E-02
    9059.553     65.844   4.360  1.04017E+00  9.93727E-01  4.64402E-02
    9060.888     67.179   4.400  1.03321E+00  9.94074E-01  3.91408E-02
    9062.235     68.526   4.440  1.02637E+00  9.94433E-01  3.19358E-02
    9063.595     69.886   4.480  1.02032E+00  9.94822E-01  2.54944E-02
    9064.966     71.257   4.520  1.01554E+00  9.95221E-01  2.03221E-02
    9066.350     72.641   4.560  1.01227E+00  9.95648E-01  1.66222E-02
    9067.746     74.037   4.600  1.01032E+00  9.96080E-01  1.42446E-02
    9069.154     75.445   4.640  1.00933E+00  9.96517E-01  1.28094E-02
    9070.575     76.866   4.680  1.00880E+00  9.96977E-01  1.18180E-02
    9072.007     78.298   4.720  1.00816E+00  9.97418E-01  1.07461E-02
    9073.452     79.743   4.760  1.00704E+00  9.97882E-01  9.15411E-03
    9074.909     81.200   4.800  1.00510E+00  9.98344E-01  6.76014E-03
    9076.378     82.669   4.840  1.00228E+00  9.98781E-01  3.50354E-03
    9077.859     84.150   4.880  9.98783E-01  9.99235E-01 -4.52500E-04
    9079.353     85.644   4.920  9.94816E-01  9.99661E-01 -4.84528E-03
    9080.859     87.149   4.960  9.90564E-01  1.00006E+00 -9.49439E-03
    9082.376     88.667   5.000  9.86067E-01  1.00047E+00 -1.44028E-02
    9083.906     90.197   5.040  9.81116E-01  1.00085E+00 -1.97358E-02
    9085.449     91.740   5.080  9.75690E-01  1.00120E+00 -2.55110E-02
    9087.003     93.294   5.120  9.70094E-01  1.00154E+00 -3.14450E-02
    9088.570     94.861   5.160  9.64847E-01  1.00187E+00 -3.70188E-02
    9090.149     96.440   5.200  9.60426E-01  1.00214E+00 -4.17099E-02
    9091.740     98.031   5.240  9.57136E-01  1.00239E+00 -4.52560E-02
    9093.343     99.634   5.280  9.54979E-01  1.00264E+00 -4.76566E-02
    9094.958    101.249   5.320  9.53721E-01  1.00282E+00 -4.90978E-02
    9096.586    102.877   5.360  9.53235E-01  1.00298E+00 -4.97490E-02
    9098.226    104.517   5.400  9.53440E-01  1.00309E+00 -4.96482E-02
    9099.878    106.169   5.440  9.54466E-01  1.00318E+00 -4.87120E-02
    9101.542    107.833   5.480  9.56354E-01  1.00323E+00 -4.68771E-02
    9103.219    109.510   5.520  9.59121E-01  1.00327E+00 -4.41452E-02
    9104.907    111.198   5.560  9.62673E-01  1.00324E+00 -4.05679E-02
    9106.608    112.899   5.600  9.67038E-01  1.00318E+00 -3.61375E-02
    9108.321    114.612   5.640  9.72304E-01  1.00309E+00 -3.07892E-02
    9110.046    116.337   5.680  9.78508E-01  1.00295E+00 -2.44419E-02
    9111.783    118.074   5.720  9.85672E-01  1.00279E+00 -1.71196E-02
    9113.533    119.824   5.760  9.93582E-01  1.00260E+00 -9.01480E-03
    9115.295    121.586   5.800  1.00189E+00  1.00236E+00 -4.76422E-04
    9117.069    123.360   5.840  1.01018E+00  1.00209E+00  8.09136E-03
    9118.855    125.146   5.880  1.01810E+00  1.00179E+00  1.63161E-02
    9120.653    126.944   5.920  1.02533E+00  1.00145E+00  2.38859E-02
    9122.464    128.755   5.960  1.03154E+00  1.00110E+00  3.04396E-02
    9124.286    130.577   6.000  1.03617E+00  1.00070E+00  3.54757E-02
