# # comment:                                                     FEFF 9.9.1  
# # Source:
# # Structure
# # Reduced
# # space
# # abc:
# # angles:
# # sites:
# # POT  SCF 100  7.0000   0, screened core-hole, AFOLP (folp(0)= 1.150)
# # Abs   Z=29 Rmt= 1.182 Rnm= 1.284 K  shell
# # Pot 1 Z=29 Rmt= 1.182 Rnm= 1.284
# # Pot 2 Z=15 Rmt= 0.955 Rnm= 1.189
# # Pot 3 Z= 1 Rmt= 0.751 Rnm= 0.897
# # Pot 4 Z= 8 Rmt= 0.893 Rnm= 1.052
# # Gam_ch=1.729E+00 H-L exch Vi= 0.000E+00 Vr= 0.000E+00
# # Mu=-6.513E+00eV kf=2.421E+00 Vint=-1.620E+01eV Rs_int= 1.498
# FMS rfms= 9.0000
# # PATH  Rmax=-1.000,  Keep_limit= 0.00, Heap_limit 0.00  Pwcrit= 2.50%
#  S02=0.950  Temp=   0.00  Debye_temp=   0.00  Global_sig2= 0.00000
#  Energy zero shift, vr, vi    0.00000E+00   0.00000E+00
#  Curved wave amplitude ratio filter   4.000%
#     file         sig2 tot  cw amp ratio   deg  nlegs   reff  inp sig2
#     0/   0 paths used
#  xsedge+ 50, used to normalize mu           2.4669E-04
#  -----------------------------------------------------------------------
#  omega    e    k    mu    mu0     chi     @#
    8983.309    -10.323  -1.000  3.75698E-02  5.27077E-02 -1.51379E-02
    8983.607    -10.025  -0.960  3.96718E-02  5.65377E-02 -1.68659E-02
    8983.894     -9.738  -0.920  4.19523E-02  6.07953E-02 -1.88430E-02
    8984.168     -9.464  -0.880  4.44324E-02  6.55440E-02 -2.11116E-02
    8984.430     -9.202  -0.840  4.71353E-02  7.08573E-02 -2.37219E-02
    8984.680     -8.952  -0.800  5.00875E-02  7.68206E-02 -2.67331E-02
    8984.918     -8.714  -0.760  5.33179E-02  8.35321E-02 -3.02142E-02
    8985.144     -8.488  -0.720  5.68581E-02  9.11026E-02 -3.42445E-02
    8985.357     -8.275  -0.680  6.07413E-02  9.96543E-02 -3.89130E-02
    8985.558     -8.074  -0.640  6.50008E-02  1.09316E-01 -4.43154E-02
    8985.747     -7.885  -0.600  6.96675E-02  1.20215E-01 -5.05476E-02
    8985.924     -7.708  -0.560  7.47650E-02  1.32459E-01 -5.76945E-02
    8986.088     -7.544  -0.520  8.03032E-02  1.46114E-01 -6.58106E-02
    8986.241     -7.391  -0.480  8.62697E-02  1.61164E-01 -7.48945E-02
    8986.381     -7.251  -0.440  9.26197E-02  1.77478E-01 -8.48588E-02
    8986.509     -7.123  -0.400  9.92669E-02  1.94772E-01 -9.55048E-02
    8986.625     -7.007  -0.360  1.06080E-01  2.12596E-01 -1.06516E-01
    8986.728     -6.903  -0.320  1.12885E-01  2.30369E-01 -1.17484E-01
    8986.820     -6.812  -0.280  1.19483E-01  2.47446E-01 -1.27963E-01
    8986.899     -6.733  -0.240  1.25665E-01  2.63205E-01 -1.37540E-01
    8986.966     -6.666  -0.200  1.31236E-01  2.77128E-01 -1.45892E-01
    8987.021     -6.611  -0.160  1.36027E-01  2.88837E-01 -1.52809E-01
    8987.064     -6.568  -0.120  1.39902E-01  2.98090E-01 -1.58188E-01
    8987.094     -6.538  -0.080  1.42759E-01  3.04754E-01 -1.61995E-01
    8987.119     -6.513   0.000  1.45135E-01  3.10107E-01 -1.64972E-01
    8987.174     -6.458   0.120  1.50443E-01  3.22171E-01 -1.71729E-01
    8987.216     -6.416   0.160  1.54618E-01  3.31546E-01 -1.76928E-01
    8987.271     -6.361   0.200  1.60086E-01  3.43511E-01 -1.83425E-01
    8987.338     -6.294   0.240  1.66899E-01  3.57875E-01 -1.90976E-01
    8987.417     -6.215   0.280  1.75175E-01  3.74386E-01 -1.99210E-01
    8987.509     -6.123   0.320  1.84933E-01  3.92552E-01 -2.07619E-01
    8987.612     -6.020   0.360  1.96265E-01  4.11881E-01 -2.15616E-01
    8987.728     -5.904   0.400  2.09160E-01  4.31765E-01 -2.22605E-01
    8987.856     -5.776   0.440  2.23574E-01  4.51710E-01 -2.28136E-01
    8987.996     -5.636   0.480  2.39319E-01  4.71294E-01 -2.31975E-01
    8988.149     -5.483   0.520  2.56057E-01  4.90265E-01 -2.34208E-01
    8988.313     -5.319   0.560  2.73260E-01  5.08488E-01 -2.35228E-01
    8988.490     -5.142   0.600  2.90350E-01  5.25929E-01 -2.35579E-01
    8988.679     -4.953   0.640  3.06878E-01  5.42669E-01 -2.35791E-01
    8988.880     -4.752   0.680  3.22488E-01  5.58784E-01 -2.36296E-01
    8989.094     -4.538   0.720  3.37008E-01  5.74341E-01 -2.37333E-01
    8989.319     -4.313   0.760  3.50678E-01  5.89448E-01 -2.38770E-01
    8989.557     -4.075   0.800  3.64549E-01  6.04204E-01 -2.39655E-01
    8989.807     -3.825   0.840  3.79972E-01  6.18675E-01 -2.38703E-01
    8990.069     -3.563   0.880  3.96877E-01  6.32915E-01 -2.36037E-01
    8990.343     -3.289   0.920  4.12742E-01  6.46961E-01 -2.34220E-01
    8990.630     -3.002   0.960  4.25068E-01  6.60844E-01 -2.35776E-01
    8990.929     -2.703   1.000  4.34891E-01  6.74599E-01 -2.39708E-01
    8991.240     -2.392   1.040  4.45517E-01  6.88215E-01 -2.42698E-01
    8991.563     -2.069   1.080  4.58605E-01  7.01712E-01 -2.43107E-01
    8991.898     -1.734   1.120  4.72207E-01  7.15087E-01 -2.42879E-01
    8992.245     -1.387   1.160  4.82518E-01  7.28326E-01 -2.45808E-01
    8992.605     -1.027   1.200  4.87535E-01  7.41395E-01 -2.53860E-01
    8992.977     -0.655   1.240  4.89386E-01  7.54316E-01 -2.64931E-01
    8993.361     -0.271   1.280  4.92623E-01  7.67050E-01 -2.74427E-01
    8993.757      0.125   1.320  5.00629E-01  7.79572E-01 -2.78943E-01
    8994.166      0.534   1.360  5.14780E-01  7.91857E-01 -2.77077E-01
    8994.586      0.954   1.400  5.35693E-01  8.03900E-01 -2.68207E-01
    8995.019      1.387   1.440  5.63403E-01  8.15694E-01 -2.52291E-01
    8995.464      1.832   1.480  5.96677E-01  8.27175E-01 -2.30498E-01
    8995.921      2.289   1.520  6.32107E-01  8.38354E-01 -2.06248E-01
    8996.391      2.759   1.560  6.65843E-01  8.49226E-01 -1.83382E-01
    8996.872      3.240   1.600  6.98553E-01  8.59722E-01 -1.61169E-01
    8997.366      3.734   1.640  7.34072E-01  8.69879E-01 -1.35807E-01
    8997.872      4.240   1.680  7.72191E-01  8.79651E-01 -1.07461E-01
    8998.390      4.758   1.720  8.11983E-01  8.89034E-01 -7.70512E-02
    8998.920      5.288   1.760  8.61716E-01  8.98025E-01 -3.63083E-02
    8999.463      5.831   1.800  9.29389E-01  9.06619E-01  2.27703E-02
    9000.018      6.386   1.840  1.00966E+00  9.14795E-01  9.48625E-02
    9000.585      6.953   1.880  1.08752E+00  9.22574E-01  1.64946E-01
    9001.164      7.532   1.920  1.14491E+00  9.29915E-01  2.14994E-01
    9001.755      8.123   1.960  1.17013E+00  9.36859E-01  2.33273E-01
    9002.359      8.727   2.000  1.16890E+00  9.43386E-01  2.25518E-01
    9002.974      9.342   2.040  1.16311E+00  9.49500E-01  2.13613E-01
    9003.602      9.970   2.080  1.17099E+00  9.55226E-01  2.15768E-01
    9004.242     10.610   2.120  1.19187E+00  9.60544E-01  2.31329E-01
    9004.895     11.263   2.160  1.21319E+00  9.65460E-01  2.47727E-01
    9005.559     11.927   2.200  1.22234E+00  9.70021E-01  2.52315E-01
    9006.236     12.604   2.240  1.21653E+00  9.74213E-01  2.42321E-01
    9006.924     13.292   2.280  1.20491E+00  9.78040E-01  2.26870E-01
    9007.625     13.994   2.320  1.19889E+00  9.81529E-01  2.17365E-01
    9008.339     14.707   2.360  1.20391E+00  9.84667E-01  2.19242E-01
    9009.064     15.432   2.400  1.21789E+00  9.87523E-01  2.30363E-01
    9009.802     16.170   2.440  1.23681E+00  9.90064E-01  2.46746E-01
    9010.552     16.920   2.480  1.25800E+00  9.92316E-01  2.65686E-01
    9011.314     17.682   2.520  1.27358E+00  9.94287E-01  2.79292E-01
    9012.088     18.456   2.560  1.27261E+00  9.96006E-01  2.76604E-01
    9012.874     19.242   2.600  1.25362E+00  9.97500E-01  2.56123E-01
    9013.673     20.041   2.640  1.22288E+00  9.98759E-01  2.24117E-01
    9014.483     20.852   2.680  1.18663E+00  9.99808E-01  1.86822E-01
    9015.306     21.674   2.720  1.14706E+00  1.00065E+00  1.46403E-01
    9016.142     22.510   2.760  1.10397E+00  1.00131E+00  1.02659E-01
    9016.989     23.357   2.800  1.05825E+00  1.00181E+00  5.64384E-02
    9017.848     24.216   2.840  1.01816E+00  1.00216E+00  1.60050E-02
    9018.720     25.088   2.880  9.88135E-01  1.00235E+00 -1.42146E-02
    9019.604     25.972   2.920  9.64523E-01  1.00244E+00 -3.79124E-02
    9020.500     26.868   2.960  9.46015E-01  1.00238E+00 -5.63680E-02
    9021.408     27.777   3.000  9.31780E-01  1.00226E+00 -7.04769E-02
    9022.329     28.697   3.040  9.21045E-01  1.00202E+00 -8.09771E-02
    9023.262     29.630   3.080  9.13117E-01  1.00171E+00 -8.85883E-02
    9024.207     30.575   3.120  9.07374E-01  1.00131E+00 -9.39381E-02
    9025.164     31.532   3.160  9.02992E-01  1.00087E+00 -9.78751E-02
    9026.133     32.501   3.200  8.98942E-01  1.00038E+00 -1.01435E-01
    9027.114     33.482   3.240  8.94385E-01  9.99846E-01 -1.05461E-01
    9028.108     34.476   3.280  8.89013E-01  9.99298E-01 -1.10285E-01
    9029.114     35.482   3.320  8.82681E-01  9.98696E-01 -1.16015E-01
    9030.132     36.500   3.360  8.75892E-01  9.98105E-01 -1.22213E-01
    9031.162     37.530   3.400  8.69453E-01  9.97487E-01 -1.28034E-01
    9032.204     38.573   3.440  8.64202E-01  9.96865E-01 -1.32662E-01
    9033.259     39.627   3.480  8.60812E-01  9.96243E-01 -1.35432E-01
    9034.326     40.694   3.520  8.59837E-01  9.95646E-01 -1.35809E-01
    9035.405     41.773   3.560  8.61619E-01  9.95033E-01 -1.33414E-01
    9036.496     42.864   3.600  8.65978E-01  9.94470E-01 -1.28491E-01
    9037.599     43.967   3.640  8.72570E-01  9.93915E-01 -1.21345E-01
    9038.715     45.083   3.680  8.80886E-01  9.93372E-01 -1.12487E-01
    9039.843     46.211   3.720  8.90354E-01  9.92864E-01 -1.02510E-01
    9040.983     47.351   3.760  9.00501E-01  9.92412E-01 -9.19103E-02
    9042.135     48.503   3.800  9.11061E-01  9.91975E-01 -8.09136E-02
    9043.299     49.667   3.840  9.21978E-01  9.91575E-01 -6.95968E-02
    9044.476     50.844   3.880  9.33123E-01  9.91192E-01 -5.80688E-02
    9045.664     52.032   3.920  9.44557E-01  9.90867E-01 -4.63105E-02
    9046.865     53.233   3.960  9.56286E-01  9.90585E-01 -3.42988E-02
    9048.078     54.446   4.000  9.68316E-01  9.90343E-01 -2.20269E-02
    9049.304     55.672   4.040  9.80713E-01  9.90142E-01 -9.42909E-03
    9050.541     56.909   4.080  9.93580E-01  9.89982E-01  3.59782E-03
    9051.791     58.159   4.120  1.00692E+00  9.89885E-01  1.70353E-02
    9053.053     59.421   4.160  1.02050E+00  9.89805E-01  3.06943E-02
    9054.327     60.695   4.200  1.03395E+00  9.89764E-01  4.41849E-02
    9055.613     61.981   4.240  1.04659E+00  9.89763E-01  5.68262E-02
    9056.911     63.279   4.280  1.05758E+00  9.89822E-01  6.77625E-02
    9058.222     64.590   4.320  1.06620E+00  9.89900E-01  7.62976E-02
    9059.545     65.913   4.360  1.07202E+00  9.90015E-01  8.20091E-02
    9060.880     67.248   4.400  1.07494E+00  9.90166E-01  8.47745E-02
    9062.227     68.595   4.440  1.07518E+00  9.90353E-01  8.48283E-02
    9063.587     69.955   4.480  1.07311E+00  9.90554E-01  8.25596E-02
    9064.958     71.326   4.520  1.06924E+00  9.90811E-01  7.84335E-02
    9066.342     72.710   4.560  1.06411E+00  9.91082E-01  7.30300E-02
    9067.738     74.106   4.600  1.05836E+00  9.91362E-01  6.69968E-02
    9069.146     75.514   4.640  1.05262E+00  9.91695E-01  6.09297E-02
    9070.566     76.934   4.680  1.04734E+00  9.92016E-01  5.53228E-02
    9071.999     78.367   4.720  1.04286E+00  9.92387E-01  5.04769E-02
    9073.444     79.812   4.760  1.03916E+00  9.92742E-01  4.64138E-02
    9074.901     81.269   4.800  1.03610E+00  9.93124E-01  4.29711E-02
    9076.370     82.738   4.840  1.03342E+00  9.93509E-01  3.99066E-02
    9077.851     84.219   4.880  1.03085E+00  9.93898E-01  3.69571E-02
    9079.345     85.713   4.920  1.02822E+00  9.94309E-01  3.39151E-02
    9080.850     87.218   4.960  1.02533E+00  9.94697E-01  3.06373E-02
    9082.368     88.736   5.000  1.02215E+00  9.95085E-01  2.70618E-02
    9083.898     90.266   5.040  1.01870E+00  9.95493E-01  2.32117E-02
    9085.441     91.809   5.080  1.01506E+00  9.95875E-01  1.91840E-02
    9086.995     93.363   5.120  1.01142E+00  9.96251E-01  1.51725E-02
    9088.562     94.930   5.160  1.00799E+00  9.96597E-01  1.13948E-02
    9090.141     96.509   5.200  1.00489E+00  9.96937E-01  7.95188E-03
    9091.732     98.100   5.240  1.00199E+00  9.97271E-01  4.72215E-03
    9093.335     99.703   5.280  9.99013E-01  9.97595E-01  1.41735E-03
    9094.950    101.318   5.320  9.95624E-01  9.97867E-01 -2.24271E-03
    9096.578    102.946   5.360  9.91685E-01  9.98147E-01 -6.46269E-03
    9098.218    104.586   5.400  9.87003E-01  9.98374E-01 -1.13704E-02
    9099.870    106.238   5.440  9.81614E-01  9.98610E-01 -1.69958E-02
    9101.534    107.902   5.480  9.75634E-01  9.98790E-01 -2.31560E-02
    9103.210    109.578   5.520  9.69529E-01  9.98954E-01 -2.94244E-02
    9104.899    111.267   5.560  9.63809E-01  9.99060E-01 -3.52509E-02
    9106.600    112.968   5.600  9.59031E-01  9.99174E-01 -4.01430E-02
    9108.313    114.681   5.640  9.55390E-01  9.99227E-01 -4.38370E-02
    9110.038    116.406   5.680  9.52896E-01  9.99243E-01 -4.63470E-02
    9111.775    118.143   5.720  9.51334E-01  9.99245E-01 -4.79115E-02
    9113.525    119.893   5.760  9.50376E-01  9.99211E-01 -4.88353E-02
    9115.287    121.655   5.800  9.49768E-01  9.99139E-01 -4.93710E-02
    9117.060    123.428   5.840  9.49402E-01  9.99028E-01 -4.96261E-02
    9118.847    125.215   5.880  9.49319E-01  9.98879E-01 -4.95604E-02
    9120.645    127.013   5.920  9.49654E-01  9.98694E-01 -4.90403E-02
    9122.455    128.823   5.960  9.50647E-01  9.98471E-01 -4.78242E-02
    9124.278    130.646   6.000  9.52824E-01  9.98216E-01 -4.53922E-02
