# # comment:                                                     FEFF 9.9.1  
# # Source:
# # Structure
# # Reduced
# # space
# # abc:
# # angles:
# # sites:
# # POT  SCF 100  7.0000   0, screened core-hole, AFOLP (folp(0)= 1.150)
# # Abs   Z=29 Rmt= 1.167 Rnm= 1.282 K  shell
# # Pot 1 Z=29 Rmt= 1.167 Rnm= 1.282
# # Pot 2 Z= 8 Rmt= 0.987 Rnm= 1.102
# # Gam_ch=1.729E+00 H-L exch Vi= 0.000E+00 Vr= 0.000E+00
# # Mu=-6.034E+00eV kf=2.212E+00 Vint=-1.522E+01eV Rs_int= 1.640
# FMS rfms= 9.0000
# # PATH  Rmax=-1.000,  Keep_limit= 0.00, Heap_limit 0.00  Pwcrit= 2.50%
#  S02=0.950  Temp=   0.00  Debye_temp=   0.00  Global_sig2= 0.00000
#  Energy zero shift, vr, vi    0.00000E+00   0.00000E+00
#  Curved wave amplitude ratio filter   4.000%
#     file         sig2 tot  cw amp ratio   deg  nlegs   reff  inp sig2
#     0/   0 paths used
#  xsedge+ 50, used to normalize mu           2.4306E-04
#  -----------------------------------------------------------------------
#  omega    e    k    mu    mu0     chi     @#
    8983.627     -9.844  -1.000  3.80031E-02  5.81452E-02 -2.01420E-02
    8983.926     -9.545  -0.960  3.99710E-02  6.24678E-02 -2.24968E-02
    8984.212     -9.258  -0.920  4.20923E-02  6.72783E-02 -2.51859E-02
    8984.487     -8.984  -0.880  4.43853E-02  7.26489E-02 -2.82636E-02
    8984.749     -8.722  -0.840  4.68710E-02  7.86641E-02 -3.17930E-02
    8984.999     -8.472  -0.800  4.95738E-02  8.54213E-02 -3.58475E-02
    8985.236     -8.234  -0.760  5.25211E-02  9.30328E-02 -4.05117E-02
    8985.462     -8.009  -0.720  5.57439E-02  1.01625E-01 -4.58814E-02
    8985.675     -7.795  -0.680  5.92759E-02  1.11339E-01 -5.20626E-02
    8985.876     -7.594  -0.640  6.31525E-02  1.22320E-01 -5.91674E-02
    8986.065     -7.405  -0.600  6.74074E-02  1.34714E-01 -6.73071E-02
    8986.242     -7.228  -0.560  7.20685E-02  1.48646E-01 -7.65777E-02
    8986.407     -7.064  -0.520  7.71500E-02  1.64189E-01 -8.70391E-02
    8986.559     -6.911  -0.480  8.26423E-02  1.81328E-01 -9.86854E-02
    8986.699     -6.771  -0.440  8.85006E-02  1.99911E-01 -1.11411E-01
    8986.827     -6.643  -0.400  9.46340E-02  2.19615E-01 -1.24981E-01
    8986.943     -6.527  -0.360  1.00903E-01  2.39928E-01 -1.39026E-01
    8987.047     -6.424  -0.320  1.07125E-01  2.60187E-01 -1.53062E-01
    8987.138     -6.332  -0.280  1.13098E-01  2.79654E-01 -1.66556E-01
    8987.218     -6.253  -0.240  1.18621E-01  2.97621E-01 -1.79000E-01
    8987.285     -6.186  -0.200  1.23523E-01  3.13496E-01 -1.89973E-01
    8987.339     -6.131  -0.160  1.27671E-01  3.26846E-01 -1.99176E-01
    8987.382     -6.088  -0.120  1.30974E-01  3.37397E-01 -2.06423E-01
    8987.413     -6.058  -0.080  1.33376E-01  3.44995E-01 -2.11619E-01
    8987.437     -6.034   0.000  1.35345E-01  3.51098E-01 -2.15753E-01
    8987.492     -5.979   0.120  1.39736E-01  3.64861E-01 -2.25125E-01
    8987.535     -5.936   0.160  1.43107E-01  3.75548E-01 -2.32441E-01
    8987.589     -5.881   0.200  1.47418E-01  3.89183E-01 -2.41765E-01
    8987.656     -5.814   0.240  1.52616E-01  4.05576E-01 -2.52961E-01
    8987.736     -5.735   0.280  1.58627E-01  4.24392E-01 -2.65764E-01
    8987.827     -5.643   0.320  1.65323E-01  4.45119E-01 -2.79796E-01
    8987.931     -5.540   0.360  1.72541E-01  4.67152E-01 -2.94611E-01
    8988.047     -5.424   0.400  1.80102E-01  4.89845E-01 -3.09743E-01
    8988.175     -5.296   0.440  1.87810E-01  5.12567E-01 -3.24757E-01
    8988.315     -5.156   0.480  1.95562E-01  5.34884E-01 -3.39322E-01
    8988.467     -5.003   0.520  2.03300E-01  5.56483E-01 -3.53182E-01
    8988.632     -4.839   0.560  2.10940E-01  5.77209E-01 -3.66269E-01
    8988.809     -4.662   0.600  2.18395E-01  5.97026E-01 -3.78632E-01
    8988.998     -4.473   0.640  2.25573E-01  6.15977E-01 -3.90404E-01
    8989.199     -4.272   0.680  2.32578E-01  6.34187E-01 -4.01608E-01
    8989.412     -4.058   0.720  2.39832E-01  6.51713E-01 -4.11880E-01
    8989.638     -3.833   0.760  2.48462E-01  6.68653E-01 -4.20191E-01
    8989.875     -3.595   0.800  2.60117E-01  6.85136E-01 -4.25019E-01
    8990.125     -3.345   0.840  2.76425E-01  7.01194E-01 -4.24769E-01
    8990.387     -3.083   0.880  2.98813E-01  7.16883E-01 -4.18071E-01
    8990.662     -2.809   0.920  3.28568E-01  7.32270E-01 -4.03702E-01
    8990.948     -2.522   0.960  3.66917E-01  7.47381E-01 -3.80464E-01
    8991.247     -2.224   1.000  4.14283E-01  7.62193E-01 -3.47910E-01
    8991.558     -1.913   1.040  4.68598E-01  7.76736E-01 -3.08137E-01
    8991.881     -1.590   1.080  5.22990E-01  7.90988E-01 -2.67998E-01
    8992.216     -1.254   1.120  5.66639E-01  8.04983E-01 -2.38344E-01
    8992.564     -0.907   1.160  5.91830E-01  8.18647E-01 -2.26816E-01
    8992.923     -0.547   1.200  5.99997E-01  8.32005E-01 -2.32008E-01
    8993.295     -0.175   1.240  5.97622E-01  8.45018E-01 -2.47396E-01
    8993.679      0.209   1.280  5.94762E-01  8.57661E-01 -2.62899E-01
    8994.076      0.605   1.320  6.02979E-01  8.69912E-01 -2.66934E-01
    8994.484      1.013   1.360  6.27970E-01  8.81768E-01 -2.53798E-01
    8994.905      1.434   1.400  6.67654E-01  8.93181E-01 -2.25527E-01
    8995.337      1.867   1.440  7.15836E-01  9.04170E-01 -1.88333E-01
    8995.782      2.312   1.480  7.64378E-01  9.14664E-01 -1.50286E-01
    8996.240      2.769   1.520  8.04492E-01  9.24683E-01 -1.20190E-01
    8996.709      3.238   1.560  8.31065E-01  9.34202E-01 -1.03137E-01
    8997.191      3.720   1.600  8.47995E-01  9.43219E-01 -9.52247E-02
    8997.684      4.214   1.640  8.68884E-01  9.51713E-01 -8.28294E-02
    8998.190      4.720   1.680  9.07650E-01  9.59704E-01 -5.20546E-02
    8998.708      5.238   1.720  9.65457E-01  9.67151E-01 -1.69401E-03
    8999.239      5.768   1.760  1.03253E+00  9.74098E-01  5.84344E-02
    8999.781      6.311   1.800  1.10565E+00  9.80528E-01  1.25120E-01
    9000.336      6.866   1.840  1.18576E+00  9.86447E-01  1.99311E-01
    9000.903      7.432   1.880  1.26155E+00  9.91857E-01  2.69694E-01
    9001.482      8.012   1.920  1.32762E+00  9.96787E-01  3.30830E-01
    9002.073      8.603   1.960  1.39218E+00  1.00124E+00  3.90935E-01
    9002.677      9.206   2.000  1.44728E+00  1.00524E+00  4.42038E-01
    9003.293      9.822   2.040  1.47096E+00  1.00877E+00  4.62185E-01
    9003.921     10.450   2.080  1.45605E+00  1.01188E+00  4.44162E-01
    9004.561     11.090   2.120  1.41708E+00  1.01460E+00  4.02480E-01
    9005.213     11.742   2.160  1.37341E+00  1.01693E+00  3.56476E-01
    9005.877     12.407   2.200  1.33306E+00  1.01887E+00  3.14196E-01
    9006.554     13.083   2.240  1.29203E+00  1.02048E+00  2.71551E-01
    9007.243     13.772   2.280  1.24381E+00  1.02176E+00  2.22053E-01
    9007.944     14.473   2.320  1.19184E+00  1.02272E+00  1.69117E-01
    9008.657     15.187   2.360  1.14892E+00  1.02341E+00  1.25512E-01
    9009.383     15.912   2.400  1.12664E+00  1.02384E+00  1.02797E-01
    9010.120     16.650   2.440  1.12624E+00  1.02400E+00  1.02239E-01
    9010.870     17.399   2.480  1.13535E+00  1.02397E+00  1.11380E-01
    9011.632     18.161   2.520  1.13608E+00  1.02373E+00  1.12355E-01
    9012.406     18.936   2.560  1.12782E+00  1.02329E+00  1.04529E-01
    9013.193     19.722   2.600  1.12234E+00  1.02271E+00  9.96306E-02
    9013.991     20.521   2.640  1.11040E+00  1.02196E+00  8.84338E-02
    9014.802     21.331   2.680  1.09149E+00  1.02109E+00  7.03964E-02
    9015.625     22.154   2.720  1.06995E+00  1.02013E+00  4.98224E-02
    9016.460     22.989   2.760  1.04870E+00  1.01905E+00  2.96538E-02
    9017.307     23.837   2.800  1.02881E+00  1.01788E+00  1.09263E-02
    9018.167     24.696   2.840  1.01111E+00  1.01667E+00 -5.55287E-03
    9019.039     25.568   2.880  9.96019E-01  1.01540E+00 -1.93838E-02
    9019.922     26.452   2.920  9.82951E-01  1.01410E+00 -3.11473E-02
    9020.819     27.348   2.960  9.71131E-01  1.01278E+00 -4.16492E-02
    9021.727     28.256   3.000  9.59947E-01  1.01143E+00 -5.14838E-02
    9022.647     29.177   3.040  9.49222E-01  1.01008E+00 -6.08567E-02
    9023.580     30.110   3.080  9.39108E-01  1.00873E+00 -6.96195E-02
    9024.525     31.054   3.120  9.29760E-01  1.00741E+00 -7.76450E-02
    9025.482     32.011   3.160  9.20797E-01  1.00612E+00 -8.53180E-02
    9026.451     32.981   3.200  9.11493E-01  1.00484E+00 -9.33461E-02
    9027.433     33.962   3.240  9.01858E-01  1.00360E+00 -1.01743E-01
    9028.426     34.956   3.280  8.92110E-01  1.00243E+00 -1.10318E-01
    9029.432     35.962   3.320  8.82654E-01  1.00130E+00 -1.18646E-01
    9030.450     36.980   3.360  8.74035E-01  1.00022E+00 -1.26184E-01
    9031.480     38.010   3.400  8.66764E-01  9.99209E-01 -1.32446E-01
    9032.523     39.052   3.440  8.61268E-01  9.98251E-01 -1.36984E-01
    9033.577     40.107   3.480  8.58019E-01  9.97368E-01 -1.39349E-01
    9034.644     41.174   3.520  8.57483E-01  9.96563E-01 -1.39080E-01
    9035.723     42.253   3.560  8.59666E-01  9.95837E-01 -1.36171E-01
    9036.814     43.344   3.600  8.64430E-01  9.95191E-01 -1.30761E-01
    9037.918     44.447   3.640  8.71496E-01  9.94627E-01 -1.23131E-01
    9039.033     45.563   3.680  8.80448E-01  9.94143E-01 -1.13695E-01
    9040.161     46.691   3.720  8.90819E-01  9.93741E-01 -1.02923E-01
    9041.301     47.831   3.760  9.02323E-01  9.93420E-01 -9.10966E-02
    9042.453     48.983   3.800  9.14770E-01  9.93179E-01 -7.84091E-02
    9043.618     50.147   3.840  9.28027E-01  9.93021E-01 -6.49941E-02
    9044.794     51.323   3.880  9.42069E-01  9.92945E-01 -5.08751E-02
    9045.983     52.512   3.920  9.56937E-01  9.92948E-01 -3.60109E-02
    9047.184     53.713   3.960  9.72559E-01  9.93034E-01 -2.04749E-02
    9048.397     54.926   4.000  9.88796E-01  9.93198E-01 -4.40160E-03
    9049.622     56.152   4.040  1.00551E+00  9.93441E-01  1.20724E-02
    9050.860     57.389   4.080  1.02253E+00  9.93761E-01  2.87721E-02
    9052.109     58.639   4.120  1.03957E+00  9.94135E-01  4.54304E-02
    9053.371     59.901   4.160  1.05635E+00  9.94585E-01  6.17614E-02
    9054.645     61.175   4.200  1.07243E+00  9.95111E-01  7.73200E-02
    9055.931     62.461   4.240  1.08705E+00  9.95686E-01  9.13673E-02
    9057.230     63.759   4.280  1.09935E+00  9.96331E-01  1.03024E-01
    9058.540     65.070   4.320  1.10837E+00  9.97023E-01  1.11351E-01
    9059.863     66.393   4.360  1.11332E+00  9.97762E-01  1.15556E-01
    9061.198     67.728   4.400  1.11385E+00  9.98566E-01  1.15281E-01
    9062.546     69.075   4.440  1.11027E+00  9.99413E-01  1.10861E-01
    9063.905     70.434   4.480  1.10357E+00  1.00028E+00  1.03298E-01
    9065.277     71.806   4.520  1.09515E+00  1.00120E+00  9.39532E-02
    9066.660     73.190   4.560  1.08627E+00  1.00214E+00  8.41388E-02
    9068.056     74.586   4.600  1.07767E+00  1.00310E+00  7.45706E-02
    9069.464     75.994   4.640  1.06944E+00  1.00408E+00  6.53527E-02
    9070.885     77.414   4.680  1.06130E+00  1.00509E+00  5.62079E-02
    9072.317     78.847   4.720  1.05283E+00  1.00610E+00  4.67335E-02
    9073.762     80.292   4.760  1.04367E+00  1.00711E+00  3.65557E-02
    9075.219     81.749   4.800  1.03357E+00  1.00813E+00  2.54431E-02
    9076.688     83.218   4.840  1.02254E+00  1.00916E+00  1.33745E-02
    9078.169     84.699   4.880  1.01091E+00  1.01015E+00  7.60728E-04
    9079.663     86.192   4.920  9.99777E-01  1.01115E+00 -1.13686E-02
    9081.169     87.698   4.960  9.90509E-01  1.01212E+00 -2.16072E-02
    9082.687     89.216   5.000  9.84479E-01  1.01308E+00 -2.85963E-02
    9084.217     90.746   5.040  9.82477E-01  1.01400E+00 -3.15217E-02
    9085.759     92.288   5.080  9.84452E-01  1.01489E+00 -3.04334E-02
    9087.313     93.843   5.120  9.89626E-01  1.01576E+00 -2.61291E-02
    9088.880     95.410   5.160  9.96663E-01  1.01656E+00 -1.98987E-02
    9090.459     96.988   5.200  1.00418E+00  1.01732E+00 -1.31441E-02
    9092.050     98.579   5.240  1.01093E+00  1.01807E+00 -7.13174E-03
    9093.653    100.183   5.280  1.01602E+00  1.01874E+00 -2.72531E-03
    9095.269    101.798   5.320  1.01906E+00  1.01934E+00 -2.85592E-04
    9096.896    103.426   5.360  1.02019E+00  1.01992E+00  2.66841E-04
    9098.536    105.066   5.400  1.01976E+00  1.02043E+00 -6.64166E-04
    9100.188    106.718   5.440  1.01849E+00  1.02086E+00 -2.36987E-03
    9101.852    108.382   5.480  1.01724E+00  1.02124E+00 -3.99773E-03
    9103.529    110.058   5.520  1.01676E+00  1.02155E+00 -4.78366E-03
    9105.217    111.747   5.560  1.01755E+00  1.02180E+00 -4.24724E-03
    9106.918    113.448   5.600  1.01967E+00  1.02198E+00 -2.30983E-03
    9108.631    115.161   5.640  1.02264E+00  1.02208E+00  5.60961E-04
    9110.356    116.886   5.680  1.02557E+00  1.02213E+00  3.43857E-03
    9112.094    118.623   5.720  1.02721E+00  1.02211E+00  5.10107E-03
    9113.843    120.373   5.760  1.02632E+00  1.02203E+00  4.28895E-03
    9115.605    122.134   5.800  1.02180E+00  1.02186E+00 -6.00989E-05
    9117.379    123.908   5.840  1.01321E+00  1.02165E+00 -8.44827E-03
    9119.165    125.694   5.880  1.00078E+00  1.02135E+00 -2.05773E-02
    9120.963    127.493   5.920  9.85708E-01  1.02100E+00 -3.52962E-02
    9122.774    129.303   5.960  9.69840E-01  1.02057E+00 -5.07353E-02
    9124.596    131.126   6.000  9.55222E-01  1.02005E+00 -6.48228E-02
