# # comment:                                                     FEFF 9.9.1  
# # Source:
# # Structure
# # Reduced
# # space
# # abc:
# # angles:
# # sites:
# # POT  SCF 100  7.0000   0, screened core-hole, AFOLP (folp(0)= 1.150)
# # Abs   Z=29 Rmt= 1.281 Rnm= 1.339 K  shell
# # Pot 1 Z= 3 Rmt= 1.456 Rnm= 1.519
# # Pot 2 Z=29 Rmt= 1.287 Rnm= 1.343
# # Pot 3 Z=15 Rmt= 0.948 Rnm= 1.162
# # Pot 4 Z= 8 Rmt= 0.927 Rnm= 1.045
# # Gam_ch=1.729E+00 H-L exch Vi= 0.000E+00 Vr= 0.000E+00
# # Mu=-6.565E+00eV kf=2.436E+00 Vint=-1.706E+01eV Rs_int= 1.489
# FMS rfms= 9.0000
# # PATH  Rmax=-1.000,  Keep_limit= 0.00, Heap_limit 0.00  Pwcrit= 2.50%
#  S02=0.950  Temp=   0.00  Debye_temp=   0.00  Global_sig2= 0.00000
#  Energy zero shift, vr, vi    0.00000E+00   0.00000E+00
#  Curved wave amplitude ratio filter   4.000%
#     file         sig2 tot  cw amp ratio   deg  nlegs   reff  inp sig2
#     0/   0 paths used
#  xsedge+ 50, used to normalize mu           2.4895E-04
#  -----------------------------------------------------------------------
#  omega    e    k    mu    mu0     chi     @#
    8983.412    -10.375  -1.000  3.31436E-02  4.89468E-02 -1.58032E-02
    8983.711    -10.076  -0.960  3.45938E-02  5.24357E-02 -1.78419E-02
    8983.997     -9.789  -0.920  3.61209E-02  5.63110E-02 -2.01900E-02
    8984.272     -9.515  -0.880  3.77300E-02  6.06296E-02 -2.28996E-02
    8984.534     -9.253  -0.840  3.94265E-02  6.54581E-02 -2.60316E-02
    8984.784     -9.003  -0.800  4.12164E-02  7.08736E-02 -2.96572E-02
    8985.021     -8.765  -0.760  4.31059E-02  7.69645E-02 -3.38586E-02
    8985.247     -8.540  -0.720  4.51018E-02  8.38311E-02 -3.87292E-02
    8985.460     -8.326  -0.680  4.72107E-02  9.15835E-02 -4.43728E-02
    8985.661     -8.125  -0.640  4.94387E-02  1.00338E-01 -5.08996E-02
    8985.850     -7.936  -0.600  5.17905E-02  1.10210E-01 -5.84195E-02
    8986.027     -7.759  -0.560  5.42680E-02  1.21296E-01 -6.70284E-02
    8986.192     -7.595  -0.520  5.68683E-02  1.33656E-01 -7.67876E-02
    8986.344     -7.442  -0.480  5.95806E-02  1.47276E-01 -8.76952E-02
    8986.484     -7.302  -0.440  6.23831E-02  1.62036E-01 -9.96532E-02
    8986.612     -7.174  -0.400  6.52405E-02  1.77680E-01 -1.12439E-01
    8986.728     -7.058  -0.360  6.81026E-02  1.93801E-01 -1.25698E-01
    8986.832     -6.955  -0.320  7.09066E-02  2.09874E-01 -1.38967E-01
    8986.923     -6.863  -0.280  7.35819E-02  2.25314E-01 -1.51732E-01
    8987.003     -6.784  -0.240  7.60571E-02  2.39562E-01 -1.63505E-01
    8987.070     -6.717  -0.200  7.82664E-02  2.52148E-01 -1.73882E-01
    8987.125     -6.662  -0.160  8.01535E-02  2.62731E-01 -1.82578E-01
    8987.167     -6.620  -0.120  8.16730E-02  2.71093E-01 -1.89420E-01
    8987.198     -6.589  -0.080  8.27906E-02  2.77115E-01 -1.94325E-01
    8987.222     -6.565   0.000  8.37215E-02  2.81952E-01 -1.98231E-01
    8987.277     -6.510   0.120  8.58616E-02  2.92870E-01 -2.07009E-01
    8987.320     -6.467   0.160  8.75023E-02  3.01337E-01 -2.13834E-01
    8987.374     -6.412   0.200  8.96228E-02  3.12139E-01 -2.22516E-01
    8987.442     -6.345   0.240  9.22363E-02  3.25122E-01 -2.32886E-01
    8987.521     -6.266   0.280  9.53558E-02  3.40018E-01 -2.44662E-01
    8987.612     -6.175   0.320  9.89856E-02  3.56414E-01 -2.57428E-01
    8987.716     -6.071   0.360  1.03135E-01  3.73848E-01 -2.70713E-01
    8987.832     -5.955   0.400  1.07830E-01  3.91803E-01 -2.83974E-01
    8987.960     -5.827   0.440  1.13017E-01  4.09793E-01 -2.96776E-01
    8988.100     -5.687   0.480  1.18710E-01  4.27436E-01 -3.08726E-01
    8988.252     -5.534   0.520  1.24971E-01  4.44543E-01 -3.19572E-01
    8988.417     -5.370   0.560  1.31863E-01  4.60952E-01 -3.29089E-01
    8988.594     -5.193   0.600  1.39648E-01  4.76695E-01 -3.37047E-01
    8988.783     -5.004   0.640  1.48591E-01  4.91789E-01 -3.43198E-01
    8988.984     -4.803   0.680  1.59064E-01  5.06342E-01 -3.47278E-01
    8989.197     -4.590   0.720  1.71418E-01  5.20438E-01 -3.49019E-01
    8989.423     -4.364   0.760  1.85781E-01  5.34157E-01 -3.48376E-01
    8989.660     -4.126   0.800  2.02118E-01  5.47594E-01 -3.45477E-01
    8989.910     -3.876   0.840  2.20307E-01  5.60831E-01 -3.40524E-01
    8990.172     -3.614   0.880  2.40849E-01  5.73918E-01 -3.33069E-01
    8990.447     -3.340   0.920  2.64880E-01  5.86895E-01 -3.22015E-01
    8990.733     -3.053   0.960  2.93194E-01  5.99807E-01 -3.06614E-01
    8991.032     -2.755   1.000  3.25689E-01  6.12694E-01 -2.87005E-01
    8991.343     -2.444   1.040  3.61784E-01  6.25544E-01 -2.63760E-01
    8991.666     -2.121   1.080  4.00440E-01  6.38379E-01 -2.37939E-01
    8992.001     -1.785   1.120  4.39922E-01  6.51198E-01 -2.11276E-01
    8992.349     -1.438   1.160  4.79229E-01  6.64011E-01 -1.84783E-01
    8992.708     -1.078   1.200  5.18030E-01  6.76807E-01 -1.58777E-01
    8993.080     -0.706   1.240  5.54936E-01  6.89568E-01 -1.34632E-01
    8993.464     -0.322   1.280  5.88502E-01  7.02274E-01 -1.13772E-01
    8993.861      0.074   1.320  6.19565E-01  7.14927E-01 -9.53626E-02
    8994.269      0.482   1.360  6.49474E-01  7.27502E-01 -7.80285E-02
    8994.690      0.903   1.400  6.82480E-01  7.39994E-01 -5.75137E-02
    8995.122      1.336   1.440  7.28135E-01  7.52336E-01 -2.42004E-02
    8995.567      1.781   1.480  7.87236E-01  7.64562E-01  2.26742E-02
    8996.025      2.238   1.520  8.45363E-01  7.76625E-01  6.87381E-02
    8996.494      2.707   1.560  8.99726E-01  7.88516E-01  1.11210E-01
    8996.976      3.189   1.600  9.60972E-01  8.00186E-01  1.60786E-01
    8997.469      3.683   1.640  1.03051E+00  8.11627E-01  2.18887E-01
    8997.975      4.189   1.680  1.10793E+00  8.22830E-01  2.85095E-01
    8998.494      4.707   1.720  1.19387E+00  8.33768E-01  3.60104E-01
    8999.024      5.237   1.760  1.28117E+00  8.44433E-01  4.36734E-01
    8999.566      5.780   1.800  1.35364E+00  8.54797E-01  4.98843E-01
    9000.121      6.334   1.840  1.39278E+00  8.64832E-01  5.27948E-01
    9000.688      6.901   1.880  1.38959E+00  8.74554E-01  5.15040E-01
    9001.267      7.480   1.920  1.35485E+00  8.83914E-01  4.70938E-01
    9001.858      8.072   1.960  1.30807E+00  8.92929E-01  4.15143E-01
    9002.462      8.675   2.000  1.26203E+00  9.01576E-01  3.60450E-01
    9003.078      9.291   2.040  1.22370E+00  9.09850E-01  3.13854E-01
    9003.706      9.919   2.080  1.19243E+00  9.17748E-01  2.74683E-01
    9004.346     10.559   2.120  1.16289E+00  9.25270E-01  2.37619E-01
    9004.998     11.211   2.160  1.13019E+00  9.32412E-01  1.97775E-01
    9005.662     11.876   2.200  1.09574E+00  9.39135E-01  1.56608E-01
    9006.339     12.552   2.240  1.06424E+00  9.45498E-01  1.18739E-01
    9007.028     13.241   2.280  1.03763E+00  9.51463E-01  8.61684E-02
    9007.729     13.942   2.320  1.01830E+00  9.57033E-01  6.12644E-02
    9008.442     14.655   2.360  1.00629E+00  9.62249E-01  4.40417E-02
    9009.168     15.381   2.400  1.00048E+00  9.67075E-01  3.34073E-02
    9009.905     16.118   2.440  9.99778E-01  9.71533E-01  2.82448E-02
    9010.655     16.868   2.480  1.00002E+00  9.75650E-01  2.43692E-02
    9011.417     17.630   2.520  9.96874E-01  9.79407E-01  1.74670E-02
    9012.191     18.404   2.560  9.90630E-01  9.82811E-01  7.81955E-03
    9012.978     19.191   2.600  9.85200E-01  9.85907E-01 -7.06682E-04
    9013.776     19.989   2.640  9.82029E-01  9.88661E-01 -6.63135E-03
    9014.587     20.800   2.680  9.77243E-01  9.91119E-01 -1.38754E-02
    9015.410     21.623   2.720  9.66860E-01  9.93288E-01 -2.64288E-02
    9016.245     22.458   2.760  9.51475E-01  9.95177E-01 -4.37024E-02
    9017.092     23.306   2.800  9.32116E-01  9.96812E-01 -6.46955E-02
    9017.952     24.165   2.840  9.09405E-01  9.98197E-01 -8.87921E-02
    9018.824     25.037   2.880  8.85056E-01  9.99319E-01 -1.14262E-01
    9019.707     25.921   2.920  8.61558E-01  1.00023E+00 -1.38668E-01
    9020.604     26.817   2.960  8.41086E-01  1.00093E+00 -1.59840E-01
    9021.512     27.725   3.000  8.24639E-01  1.00143E+00 -1.76789E-01
    9022.432     28.646   3.040  8.12926E-01  1.00176E+00 -1.88829E-01
    9023.365     29.578   3.080  8.06201E-01  1.00190E+00 -1.95694E-01
    9024.310     30.523   3.120  8.04421E-01  1.00190E+00 -1.97476E-01
    9025.267     31.480   3.160  8.07322E-01  1.00174E+00 -1.94422E-01
    9026.236     32.450   3.200  8.13945E-01  1.00147E+00 -1.87521E-01
    9027.218     33.431   3.240  8.23732E-01  1.00107E+00 -1.77335E-01
    9028.211     34.425   3.280  8.36309E-01  1.00058E+00 -1.64267E-01
    9029.217     35.431   3.320  8.51154E-01  9.99976E-01 -1.48822E-01
    9030.235     36.449   3.360  8.68134E-01  9.99314E-01 -1.31180E-01
    9031.265     37.479   3.400  8.87067E-01  9.98556E-01 -1.11489E-01
    9032.308     38.521   3.440  9.07721E-01  9.97767E-01 -9.00462E-02
    9033.362     39.576   3.480  9.29720E-01  9.96911E-01 -6.71916E-02
    9034.429     40.643   3.520  9.52755E-01  9.96015E-01 -4.32595E-02
    9035.508     41.722   3.560  9.76182E-01  9.95102E-01 -1.89194E-02
    9036.599     42.813   3.600  9.99077E-01  9.94135E-01  4.94153E-03
    9037.703     43.916   3.640  1.02073E+00  9.93181E-01  2.75454E-02
    9038.818     45.032   3.680  1.04053E+00  9.92223E-01  4.83034E-02
    9039.946     46.159   3.720  1.05808E+00  9.91244E-01  6.68392E-02
    9041.086     47.299   3.760  1.07335E+00  9.90288E-01  8.30658E-02
    9042.238     48.452   3.800  1.08627E+00  9.89337E-01  9.69289E-02
    9043.403     49.616   3.840  1.09656E+00  9.88415E-01  1.08147E-01
    9044.579     50.792   3.880  1.10395E+00  9.87504E-01  1.16448E-01
    9045.768     51.981   3.920  1.10824E+00  9.86627E-01  1.21608E-01
    9046.969     53.182   3.960  1.10924E+00  9.85787E-01  1.23454E-01
    9048.182     54.395   4.000  1.10690E+00  9.84987E-01  1.21910E-01
    9049.407     55.620   4.040  1.10152E+00  9.84227E-01  1.17296E-01
    9050.645     56.858   4.080  1.09373E+00  9.83529E-01  1.10201E-01
    9051.894     58.108   4.120  1.08428E+00  9.82853E-01  1.01427E-01
    9053.156     59.369   4.160  1.07403E+00  9.82242E-01  9.17867E-02
    9054.430     60.643   4.200  1.06357E+00  9.81674E-01  8.18994E-02
    9055.716     61.930   4.240  1.05326E+00  9.81151E-01  7.21093E-02
    9057.015     63.228   4.280  1.04332E+00  9.80697E-01  6.26280E-02
    9058.325     64.539   4.320  1.03385E+00  9.80287E-01  5.35604E-02
    9059.648     65.862   4.360  1.02474E+00  9.79923E-01  4.48223E-02
    9060.983     67.197   4.400  1.01584E+00  9.79627E-01  3.62174E-02
    9062.331     68.544   4.440  1.00693E+00  9.79378E-01  2.75533E-02
    9063.690     69.903   4.480  9.97885E-01  9.79198E-01  1.86872E-02
    9065.062     71.275   4.520  9.88659E-01  9.79064E-01  9.59468E-03
    9066.445     72.659   4.560  9.79346E-01  9.78975E-01  3.70749E-04
    9067.841     74.055   4.600  9.70161E-01  9.78953E-01 -8.79192E-03
    9069.249     75.463   4.640  9.61376E-01  9.78975E-01 -1.75988E-02
    9070.670     76.883   4.680  9.53373E-01  9.79039E-01 -2.56659E-02
    9072.102     78.316   4.720  9.46480E-01  9.79147E-01 -3.26669E-02
    9073.547     79.760   4.760  9.40928E-01  9.79317E-01 -3.83891E-02
    9075.004     81.217   4.800  9.36763E-01  9.79507E-01 -4.27442E-02
    9076.473     82.686   4.840  9.33961E-01  9.79757E-01 -4.57955E-02
    9077.955     84.168   4.880  9.32325E-01  9.80023E-01 -4.76980E-02
    9079.448     85.661   4.920  9.31690E-01  9.80327E-01 -4.86365E-02
    9080.954     87.167   4.960  9.31965E-01  9.80687E-01 -4.87223E-02
    9082.472     88.685   5.000  9.33163E-01  9.81038E-01 -4.78758E-02
    9084.002     90.215   5.040  9.35457E-01  9.81441E-01 -4.59844E-02
    9085.544     91.757   5.080  9.38746E-01  9.81833E-01 -4.30872E-02
    9087.098     93.312   5.120  9.42793E-01  9.82274E-01 -3.94808E-02
    9088.665     94.878   5.160  9.46986E-01  9.82699E-01 -3.57129E-02
    9090.244     96.457   5.200  9.50793E-01  9.83150E-01 -3.23573E-02
    9091.835     98.048   5.240  9.53698E-01  9.83604E-01 -2.99060E-02
    9093.438     99.652   5.280  9.55445E-01  9.84058E-01 -2.86137E-02
    9095.054    101.267   5.320  9.56102E-01  9.84512E-01 -2.84105E-02
    9096.681    102.895   5.360  9.56079E-01  9.84965E-01 -2.88852E-02
    9098.321    104.534   5.400  9.55972E-01  9.85414E-01 -2.94422E-02
    9099.973    106.186   5.440  9.56282E-01  9.85859E-01 -2.95768E-02
    9101.637    107.851   5.480  9.57209E-01  9.86273E-01 -2.90645E-02
    9103.314    109.527   5.520  9.58692E-01  9.86678E-01 -2.79864E-02
    9105.002    111.216   5.560  9.60441E-01  9.87051E-01 -2.66096E-02
    9106.703    112.916   5.600  9.62298E-01  9.87389E-01 -2.50912E-02
    9108.416    114.629   5.640  9.64469E-01  9.87717E-01 -2.32482E-02
    9110.141    116.355   5.680  9.67517E-01  9.88034E-01 -2.05166E-02
    9111.879    118.092   5.720  9.72140E-01  9.88291E-01 -1.61510E-02
    9113.628    119.841   5.760  9.78944E-01  9.88532E-01 -9.58784E-03
    9115.390    121.603   5.800  9.87910E-01  9.88710E-01 -7.99662E-04
    9117.164    123.377   5.840  9.98461E-01  9.88874E-01  9.58671E-03
    9118.950    125.163   5.880  1.00949E+00  9.89000E-01  2.04852E-02
    9120.748    126.962   5.920  1.01979E+00  9.89083E-01  3.07043E-02
    9122.559    128.772   5.960  1.02827E+00  9.89094E-01  3.91718E-02
    9124.381    130.595   6.000  1.03408E+00  9.89068E-01  4.50083E-02
