# # comment:                                                     FEFF 9.9.1  
# # Source:
# # Structure
# # Reduced
# # space
# # abc:
# # angles:
# # sites:
# # POT  SCF 100  7.0000   0, screened core-hole, AFOLP (folp(0)= 1.150)
# # Abs   Z=29 Rmt= 1.236 Rnm= 1.329 K  shell
# # Pot 1 Z=29 Rmt= 1.247 Rnm= 1.372
# # Pot 2 Z=34 Rmt= 1.099 Rnm= 1.336
# # Pot 3 Z=17 Rmt= 1.357 Rnm= 1.556
# # Pot 4 Z= 8 Rmt= 0.998 Rnm= 1.104
# # Gam_ch=1.729E+00 H-L exch Vi= 0.000E+00 Vr= 0.000E+00
# # Mu=-6.350E+00eV kf=1.939E+00 Vint=-1.322E+01eV Rs_int= 1.870
# FMS rfms= 9.0000
# # PATH  Rmax=-1.000,  Keep_limit= 0.00, Heap_limit 0.00  Pwcrit= 2.50%
#  S02=0.950  Temp=   0.00  Debye_temp=   0.00  Global_sig2= 0.00000
#  Energy zero shift, vr, vi    0.00000E+00   0.00000E+00
#  Curved wave amplitude ratio filter   4.000%
#     file         sig2 tot  cw amp ratio   deg  nlegs   reff  inp sig2
#     0/   0 paths used
#  xsedge+ 50, used to normalize mu           2.4123E-04
#  -----------------------------------------------------------------------
#  omega    e    k    mu    mu0     chi     @#
    8983.396    -10.160  -1.000  3.62305E-02  5.71441E-02 -2.09136E-02
    8983.694     -9.861  -0.960  3.79040E-02  6.12949E-02 -2.33909E-02
    8983.981     -9.575  -0.920  3.96763E-02  6.59014E-02 -2.62251E-02
    8984.255     -9.300  -0.880  4.15552E-02  7.10298E-02 -2.94746E-02
    8984.517     -9.038  -0.840  4.35489E-02  7.67566E-02 -3.32077E-02
    8984.767     -8.788  -0.800  4.56668E-02  8.31706E-02 -3.75039E-02
    8985.005     -8.550  -0.760  4.79186E-02  9.03734E-02 -4.24548E-02
    8985.231     -8.325  -0.720  5.03149E-02  9.84793E-02 -4.81644E-02
    8985.444     -8.112  -0.680  5.28664E-02  1.07614E-01 -5.47479E-02
    8985.645     -7.910  -0.640  5.55834E-02  1.17911E-01 -6.23273E-02
    8985.834     -7.721  -0.600  5.84744E-02  1.29498E-01 -7.10240E-02
    8986.011     -7.545  -0.560  6.15443E-02  1.42487E-01 -8.09432E-02
    8986.175     -7.380  -0.520  6.47913E-02  1.56943E-01 -9.21513E-02
    8986.328     -7.228  -0.480  6.82033E-02  1.72847E-01 -1.04644E-01
    8986.468     -7.087  -0.440  7.17534E-02  1.90063E-01 -1.18309E-01
    8986.596     -6.959  -0.400  7.53960E-02  2.08293E-01 -1.32897E-01
    8986.712     -6.844  -0.360  7.90655E-02  2.27073E-01 -1.48007E-01
    8986.816     -6.740  -0.320  8.26785E-02  2.45799E-01 -1.63121E-01
    8986.907     -6.649  -0.280  8.61407E-02  2.63800E-01 -1.77660E-01
    8986.986     -6.569  -0.240  8.93560E-02  2.80429E-01 -1.91073E-01
    8987.053     -6.502  -0.200  9.22353E-02  2.95138E-01 -2.02903E-01
    8987.108     -6.447  -0.160  9.47019E-02  3.07525E-01 -2.12823E-01
    8987.151     -6.405  -0.120  9.66942E-02  3.17328E-01 -2.20633E-01
    8987.181     -6.374  -0.080  9.81662E-02  3.24397E-01 -2.26231E-01
    8987.206     -6.350   0.000  9.94072E-02  3.30083E-01 -2.30676E-01
    8987.261     -6.295   0.120  1.02240E-01  3.42917E-01 -2.40677E-01
    8987.303     -6.252   0.160  1.04404E-01  3.52906E-01 -2.48503E-01
    8987.358     -6.197   0.200  1.07192E-01  3.65680E-01 -2.58488E-01
    8987.425     -6.130   0.240  1.10641E-01  3.81089E-01 -2.70448E-01
    8987.504     -6.051   0.280  1.14779E-01  3.98860E-01 -2.84081E-01
    8987.596     -5.960   0.320  1.19607E-01  4.18564E-01 -2.98957E-01
    8987.699     -5.856   0.360  1.25158E-01  4.39687E-01 -3.14529E-01
    8987.815     -5.740   0.400  1.31467E-01  4.61680E-01 -3.30213E-01
    8987.943     -5.612   0.440  1.38517E-01  4.83998E-01 -3.45481E-01
    8988.084     -5.472   0.480  1.46283E-01  5.06247E-01 -3.59965E-01
    8988.236     -5.320   0.520  1.54726E-01  5.28177E-01 -3.73450E-01
    8988.401     -5.155   0.560  1.63724E-01  5.49624E-01 -3.85901E-01
    8988.577     -4.978   0.600  1.73192E-01  5.70551E-01 -3.97359E-01
    8988.766     -4.789   0.640  1.83201E-01  5.91004E-01 -4.07803E-01
    8988.967     -4.588   0.680  1.93918E-01  6.11001E-01 -4.17083E-01
    8989.181     -4.375   0.720  2.05798E-01  6.30634E-01 -4.24836E-01
    8989.406     -4.149   0.760  2.19207E-01  6.49951E-01 -4.30744E-01
    8989.644     -3.911   0.800  2.34348E-01  6.68988E-01 -4.34640E-01
    8989.894     -3.662   0.840  2.51287E-01  6.87812E-01 -4.36526E-01
    8990.156     -3.399   0.880  2.70018E-01  7.06410E-01 -4.36392E-01
    8990.430     -3.125   0.920  2.90788E-01  7.24778E-01 -4.33990E-01
    8990.717     -2.839   0.960  3.14305E-01  7.42920E-01 -4.28615E-01
    8991.016     -2.540   1.000  3.42551E-01  7.60809E-01 -4.18258E-01
    8991.327     -2.229   1.040  3.79616E-01  7.78410E-01 -3.98794E-01
    8991.650     -1.906   1.080  4.32145E-01  7.95681E-01 -3.63536E-01
    8991.985     -1.571   1.120  5.08258E-01  8.12595E-01 -3.04338E-01
    8992.332     -1.223   1.160  6.14309E-01  8.29082E-01 -2.14773E-01
    8992.692     -0.863   1.200  7.47261E-01  8.45128E-01 -9.78673E-02
    8993.064     -0.492   1.240  8.82028E-01  8.60657E-01  2.13711E-02
    8993.448     -0.108   1.280  9.64596E-01  8.75637E-01  8.89590E-02
    8993.844      0.289   1.320  9.45255E-01  8.90032E-01  5.52229E-02
    8994.253      0.697   1.360  8.48469E-01  9.03808E-01 -5.53392E-02
    8994.673      1.118   1.400  7.45833E-01  9.16913E-01 -1.71080E-01
    8995.106      1.551   1.440  6.75753E-01  9.29357E-01 -2.53605E-01
    8995.551      1.996   1.480  6.41198E-01  9.41072E-01 -2.99874E-01
    8996.008      2.453   1.520  6.36414E-01  9.52073E-01 -3.15659E-01
    8996.478      2.922   1.560  6.57099E-01  9.62357E-01 -3.05258E-01
    8996.959      3.404   1.600  6.99014E-01  9.71880E-01 -2.72866E-01
    8997.453      3.897   1.640  7.58545E-01  9.80668E-01 -2.22123E-01
    8997.959      4.403   1.680  8.37062E-01  9.88725E-01 -1.51663E-01
    8998.477      4.922   1.720  9.35981E-01  9.96077E-01 -6.00951E-02
    8999.008      5.452   1.760  1.05010E+00  1.00269E+00  4.74125E-02
    8999.550      5.995   1.800  1.17492E+00  1.00864E+00  1.66282E-01
    9000.105      6.549   1.840  1.31004E+00  1.01392E+00  2.96129E-01
    9000.672      7.116   1.880  1.45232E+00  1.01855E+00  4.33769E-01
    9001.251      7.695   1.920  1.58373E+00  1.02256E+00  5.61170E-01
    9001.842      8.287   1.960  1.66185E+00  1.02601E+00  6.35841E-01
    9002.446      8.890   2.000  1.65598E+00  1.02888E+00  6.27104E-01
    9003.061      9.506   2.040  1.58875E+00  1.03123E+00  5.57518E-01
    9003.689     10.134   2.080  1.50015E+00  1.03311E+00  4.67042E-01
    9004.329     10.774   2.120  1.41029E+00  1.03453E+00  3.75761E-01
    9004.982     11.426   2.160  1.32457E+00  1.03553E+00  2.89039E-01
    9005.646     12.090   2.200  1.24605E+00  1.03614E+00  2.09912E-01
    9006.323     12.767   2.240  1.18064E+00  1.03639E+00  1.44247E-01
    9007.012     13.456   2.280  1.13115E+00  1.03632E+00  9.48266E-02
    9007.713     14.157   2.320  1.09667E+00  1.03597E+00  6.07005E-02
    9008.426     14.870   2.360  1.07982E+00  1.03533E+00  4.44874E-02
    9009.151     15.596   2.400  1.07151E+00  1.03450E+00  3.70157E-02
    9009.889     16.333   2.440  1.06084E+00  1.03343E+00  2.74125E-02
    9010.639     17.083   2.480  1.04878E+00  1.03221E+00  1.65653E-02
    9011.401     17.845   2.520  1.03892E+00  1.03082E+00  8.10571E-03
    9012.175     18.619   2.560  1.03287E+00  1.02931E+00  3.56102E-03
    9012.961     19.406   2.600  1.03036E+00  1.02771E+00  2.64727E-03
    9013.760     20.204   2.640  1.03007E+00  1.02601E+00  4.06830E-03
    9014.571     21.015   2.680  1.03040E+00  1.02425E+00  6.15277E-03
    9015.394     21.838   2.720  1.02957E+00  1.02246E+00  7.10686E-03
    9016.229     22.673   2.760  1.02608E+00  1.02062E+00  5.46009E-03
    9017.076     23.520   2.800  1.01877E+00  1.01878E+00 -3.48996E-06
    9017.936     24.380   2.840  1.00730E+00  1.01695E+00 -9.65227E-03
    9018.807     25.252   2.880  9.92528E-01  1.01513E+00 -2.26044E-02
    9019.691     26.136   2.920  9.75780E-01  1.01333E+00 -3.75472E-02
    9020.587     27.032   2.960  9.58650E-01  1.01158E+00 -5.29326E-02
    9021.496     27.940   3.000  9.42299E-01  1.00988E+00 -6.75838E-02
    9022.416     28.861   3.040  9.27126E-01  1.00825E+00 -8.11290E-02
    9023.349     29.793   3.080  9.13176E-01  1.00668E+00 -9.35031E-02
    9024.294     30.738   3.120  9.00668E-01  1.00518E+00 -1.04514E-01
    9025.251     31.695   3.160  8.89766E-01  1.00377E+00 -1.14001E-01
    9026.220     32.664   3.200  8.80748E-01  1.00246E+00 -1.21710E-01
    9027.201     33.646   3.240  8.74119E-01  1.00122E+00 -1.27096E-01
    9028.195     34.639   3.280  8.70246E-01  1.00008E+00 -1.29836E-01
    9029.201     35.645   3.320  8.69380E-01  9.99061E-01 -1.29681E-01
    9030.219     36.663   3.360  8.71656E-01  9.98131E-01 -1.26476E-01
    9031.249     37.694   3.400  8.76989E-01  9.97295E-01 -1.20306E-01
    9032.292     38.736   3.440  8.84870E-01  9.96597E-01 -1.11727E-01
    9033.346     39.791   3.480  8.94547E-01  9.95992E-01 -1.01446E-01
    9034.413     40.857   3.520  9.05326E-01  9.95481E-01 -9.01546E-02
    9035.492     41.936   3.560  9.16637E-01  9.95084E-01 -7.84472E-02
    9036.583     43.028   3.600  9.28151E-01  9.94805E-01 -6.66540E-02
    9037.686     44.131   3.640  9.39881E-01  9.94643E-01 -5.47616E-02
    9038.802     45.246   3.680  9.51859E-01  9.94572E-01 -4.27128E-02
    9039.930     46.374   3.720  9.64104E-01  9.94592E-01 -3.04884E-02
    9041.070     47.514   3.760  9.76655E-01  9.94725E-01 -1.80701E-02
    9042.222     48.666   3.800  9.89332E-01  9.94970E-01 -5.63792E-03
    9043.386     49.831   3.840  1.00155E+00  9.95281E-01  6.26691E-03
    9044.563     51.007   3.880  1.01256E+00  9.95700E-01  1.68648E-02
    9045.751     52.196   3.920  1.02170E+00  9.96205E-01  2.54980E-02
    9046.952     53.397   3.960  1.02855E+00  9.96816E-01  3.17383E-02
    9048.165     54.610   4.000  1.03299E+00  9.97486E-01  3.55025E-02
    9049.391     55.835   4.040  1.03530E+00  9.98234E-01  3.70631E-02
    9050.628     57.073   4.080  1.03603E+00  9.99059E-01  3.69683E-02
    9051.878     58.322   4.120  1.03598E+00  9.99936E-01  3.60442E-02
    9053.140     59.584   4.160  1.03622E+00  1.00088E+00  3.53385E-02
    9054.414     60.858   4.200  1.03777E+00  1.00188E+00  3.58938E-02
    9055.700     62.145   4.240  1.04136E+00  1.00294E+00  3.84237E-02
    9056.999     63.443   4.280  1.04721E+00  1.00402E+00  4.31891E-02
    9058.309     64.754   4.320  1.05511E+00  1.00517E+00  4.99466E-02
    9059.632     66.076   4.360  1.06438E+00  1.00633E+00  5.80558E-02
    9060.967     67.411   4.400  1.07417E+00  1.00752E+00  6.66516E-02
    9062.314     68.759   4.440  1.08350E+00  1.00872E+00  7.47806E-02
    9063.674     70.118   4.480  1.09147E+00  1.00995E+00  8.15281E-02
    9065.045     71.490   4.520  1.09734E+00  1.01118E+00  8.61630E-02
    9066.429     72.873   4.560  1.10067E+00  1.01241E+00  8.82638E-02
    9067.825     74.269   4.600  1.10132E+00  1.01364E+00  8.76860E-02
    9069.233     75.678   4.640  1.09931E+00  1.01483E+00  8.44809E-02
    9070.654     77.098   4.680  1.09494E+00  1.01602E+00  7.89205E-02
    9072.086     78.531   4.720  1.08865E+00  1.01720E+00  7.14508E-02
    9073.531     79.975   4.760  1.08096E+00  1.01835E+00  6.26161E-02
    9074.988     81.432   4.800  1.07256E+00  1.01946E+00  5.30991E-02
    9076.457     82.901   4.840  1.06413E+00  1.02055E+00  4.35884E-02
    9077.938     84.383   4.880  1.05614E+00  1.02157E+00  3.45739E-02
    9079.432     85.876   4.920  1.04876E+00  1.02255E+00  2.62093E-02
    9080.937     87.382   4.960  1.04179E+00  1.02348E+00  1.83116E-02
    9082.455     88.900   5.000  1.03481E+00  1.02437E+00  1.04448E-02
    9083.985     90.430   5.040  1.02721E+00  1.02518E+00  2.03302E-03
    9085.528     91.972   5.080  1.01854E+00  1.02594E+00 -7.39492E-03
    9087.082     93.527   5.120  1.00870E+00  1.02662E+00 -1.79247E-02
    9088.649     95.093   5.160  9.98018E-01  1.02723E+00 -2.92076E-02
    9090.228     96.672   5.200  9.87199E-01  1.02777E+00 -4.05745E-02
    9091.819     98.263   5.240  9.76891E-01  1.02822E+00 -5.13293E-02
    9093.422     99.866   5.280  9.67766E-01  1.02863E+00 -6.08668E-02
    9095.037    101.482   5.320  9.60144E-01  1.02894E+00 -6.88005E-02
    9096.665    103.109   5.360  9.54171E-01  1.02918E+00 -7.50043E-02
    9098.305    104.749   5.400  9.49707E-01  1.02935E+00 -7.96393E-02
    9099.957    106.401   5.440  9.46499E-01  1.02944E+00 -8.29379E-02
    9101.621    108.066   5.480  9.44509E-01  1.02943E+00 -8.49162E-02
    9103.297    109.742   5.520  9.43968E-01  1.02936E+00 -8.53885E-02
    9104.986    111.430   5.560  9.44970E-01  1.02923E+00 -8.42632E-02
    9106.687    113.131   5.600  9.47458E-01  1.02901E+00 -8.15503E-02
    9108.400    114.844   5.640  9.51574E-01  1.02873E+00 -7.71538E-02
    9110.125    116.569   5.680  9.57515E-01  1.02837E+00 -7.08569E-02
    9111.862    118.307   5.720  9.65389E-01  1.02796E+00 -6.25746E-02
    9113.612    120.056   5.760  9.74995E-01  1.02746E+00 -5.24639E-02
    9115.374    121.818   5.800  9.86066E-01  1.02693E+00 -4.08638E-02
    9117.148    123.592   5.840  9.98115E-01  1.02633E+00 -2.82186E-02
    9118.934    125.378   5.880  1.01060E+00  1.02570E+00 -1.50953E-02
    9120.732    127.176   5.920  1.02288E+00  1.02499E+00 -2.11444E-03
    9122.542    128.987   5.960  1.03447E+00  1.02428E+00  1.01863E-02
    9124.365    130.810   6.000  1.04516E+00  1.02347E+00  2.16974E-02
