# # comment:                                                     FEFF 9.9.1  
# # Source:
# # Structure
# # Reduced
# # space
# # abc:
# # angles:
# # sites:
# # POT  SCF 100  7.0000   0, screened core-hole, AFOLP (folp(0)= 1.150)
# # Abs   Z=29 Rmt= 1.298 Rnm= 1.370 K  shell
# # Pot 1 Z=29 Rmt= 1.265 Rnm= 1.334
# # Pot 2 Z=47 Rmt= 1.608 Rnm= 1.654
# # Pot 3 Z=15 Rmt= 0.944 Rnm= 1.160
# # Pot 4 Z= 8 Rmt= 0.916 Rnm= 1.048
# # Gam_ch=1.729E+00 H-L exch Vi= 0.000E+00 Vr= 0.000E+00
# # Mu=-6.247E+00eV kf=2.388E+00 Vint=-1.642E+01eV Rs_int= 1.519
# FMS rfms= 9.0000
# # PATH  Rmax=-1.000,  Keep_limit= 0.00, Heap_limit 0.00  Pwcrit= 2.50%
#  S02=0.950  Temp=   0.00  Debye_temp=   0.00  Global_sig2= 0.00000
#  Energy zero shift, vr, vi    0.00000E+00   0.00000E+00
#  Curved wave amplitude ratio filter   4.000%
#     file         sig2 tot  cw amp ratio   deg  nlegs   reff  inp sig2
#     0/   0 paths used
#  xsedge+ 50, used to normalize mu           2.4786E-04
#  -----------------------------------------------------------------------
#  omega    e    k    mu    mu0     chi     @#
    8983.306    -10.057  -1.000  4.61199E-02  5.31414E-02 -7.02149E-03
    8983.605     -9.758  -0.960  4.90973E-02  5.70106E-02 -7.91332E-03
    8983.891     -9.472  -0.920  5.23683E-02  6.13128E-02 -8.94451E-03
    8984.165     -9.198  -0.880  5.59717E-02  6.61120E-02 -1.01403E-02
    8984.428     -8.935  -0.840  5.99520E-02  7.14829E-02 -1.15309E-02
    8984.678     -8.685  -0.800  6.43601E-02  7.75123E-02 -1.31522E-02
    8984.915     -8.448  -0.760  6.92528E-02  8.42996E-02 -1.50468E-02
    8985.141     -8.222  -0.720  7.46936E-02  9.19574E-02 -1.72638E-02
    8985.354     -8.009  -0.680  8.07504E-02  1.00610E-01 -1.98592E-02
    8985.555     -7.808  -0.640  8.74934E-02  1.10387E-01 -2.28938E-02
    8985.744     -7.619  -0.600  9.49895E-02  1.21419E-01 -2.64296E-02
    8985.921     -7.442  -0.560  1.03293E-01  1.33815E-01 -3.05222E-02
    8986.086     -7.277  -0.520  1.12432E-01  1.47642E-01 -3.52095E-02
    8986.238     -7.125  -0.480  1.22390E-01  1.62884E-01 -4.04945E-02
    8986.378     -6.985  -0.440  1.33082E-01  1.79409E-01 -4.63263E-02
    8986.506     -6.857  -0.400  1.44343E-01  1.96926E-01 -5.25838E-02
    8986.622     -6.741  -0.360  1.55912E-01  2.14983E-01 -5.90710E-02
    8986.726     -6.637  -0.320  1.67455E-01  2.32988E-01 -6.55332E-02
    8986.817     -6.546  -0.280  1.78593E-01  2.50286E-01 -7.16926E-02
    8986.896     -6.467  -0.240  1.88954E-01  2.66249E-01 -7.72944E-02
    8986.964     -6.399  -0.200  1.98207E-01  2.80350E-01 -8.21437E-02
    8987.018     -6.345  -0.160  2.06085E-01  2.92208E-01 -8.61225E-02
    8987.061     -6.302  -0.120  2.12395E-01  3.01577E-01 -8.91824E-02
    8987.092     -6.271  -0.080  2.17000E-01  3.08325E-01 -9.13247E-02
    8987.116     -6.247   0.000  2.20764E-01  3.13745E-01 -9.29805E-02
    8987.171     -6.192   0.120  2.29177E-01  3.25954E-01 -9.67766E-02
    8987.213     -6.150   0.160  2.35829E-01  3.35448E-01 -9.96190E-02
    8987.268     -6.095   0.200  2.44484E-01  3.47548E-01 -1.03064E-01
    8987.335     -6.028   0.240  2.55222E-01  3.62081E-01 -1.06859E-01
    8987.415     -5.948   0.280  2.68154E-01  3.78763E-01 -1.10609E-01
    8987.506     -5.857   0.320  2.83325E-01  3.97135E-01 -1.13810E-01
    8987.610     -5.753   0.360  3.00838E-01  4.16633E-01 -1.15796E-01
    8987.726     -5.637   0.400  3.20808E-01  4.36700E-01 -1.15892E-01
    8987.854     -5.509   0.440  3.43268E-01  4.56808E-01 -1.13540E-01
    8987.994     -5.369   0.480  3.67912E-01  4.76511E-01 -1.08599E-01
    8988.146     -5.217   0.520  3.93933E-01  4.95571E-01 -1.01638E-01
    8988.311     -5.052   0.560  4.19774E-01  5.13830E-01 -9.40558E-02
    8988.488     -4.875   0.600  4.43535E-01  5.31320E-01 -8.77843E-02
    8988.676     -4.687   0.640  4.63401E-01  5.48038E-01 -8.46369E-02
    8988.878     -4.485   0.680  4.78262E-01  5.64104E-01 -8.58425E-02
    8989.091     -4.272   0.720  4.87612E-01  5.79611E-01 -9.19988E-02
    8989.317     -4.046   0.760  4.91564E-01  5.94670E-01 -1.03106E-01
    8989.554     -3.809   0.800  4.91350E-01  6.09341E-01 -1.17991E-01
    8989.804     -3.559   0.840  4.89940E-01  6.23716E-01 -1.33777E-01
    8990.066     -3.297   0.880  4.91490E-01  6.37851E-01 -1.46360E-01
    8990.341     -3.022   0.920  4.99766E-01  6.51806E-01 -1.52040E-01
    8990.627     -2.736   0.960  5.16145E-01  6.65593E-01 -1.49449E-01
    8990.926     -2.437   1.000  5.37877E-01  6.79253E-01 -1.41376E-01
    8991.237     -2.126   1.040  5.57766E-01  6.92815E-01 -1.35049E-01
    8991.560     -1.803   1.080  5.68997E-01  7.06241E-01 -1.37244E-01
    8991.895     -1.468   1.120  5.71870E-01  7.19569E-01 -1.47698E-01
    8992.243     -1.120   1.160  5.71736E-01  7.32769E-01 -1.61033E-01
    8992.602     -0.761   1.200  5.73520E-01  7.45847E-01 -1.72326E-01
    8992.974     -0.389   1.240  5.81204E-01  7.58766E-01 -1.77562E-01
    8993.358     -0.005   1.280  5.97238E-01  7.71546E-01 -1.74307E-01
    8993.754      0.391   1.320  6.20204E-01  7.84124E-01 -1.63921E-01
    8994.163      0.800   1.360  6.47055E-01  7.96498E-01 -1.49443E-01
    8994.583      1.220   1.400  6.76243E-01  8.08662E-01 -1.32418E-01
    8995.016      1.653   1.440  7.12085E-01  8.20567E-01 -1.08482E-01
    8995.461      2.098   1.480  7.62696E-01  8.32209E-01 -6.95133E-02
    8995.919      2.556   1.520  8.30476E-01  8.43581E-01 -1.31050E-02
    8996.388      3.025   1.560  9.08513E-01  8.54634E-01  5.38797E-02
    8996.869      3.506   1.600  9.81112E-01  8.65341E-01  1.15771E-01
    8997.363      4.000   1.640  1.03039E+00  8.75716E-01  1.54674E-01
    8997.869      4.506   1.680  1.05111E+00  8.85734E-01  1.65379E-01
    8998.387      5.024   1.720  1.05855E+00  8.95388E-01  1.63160E-01
    8998.918      5.555   1.760  1.07825E+00  9.04632E-01  1.73614E-01
    8999.460      6.097   1.800  1.12825E+00  9.13484E-01  2.14763E-01
    9000.015      6.652   1.840  1.19489E+00  9.21941E-01  2.72947E-01
    9000.582      7.219   1.880  1.24213E+00  9.29959E-01  3.12170E-01
    9001.161      7.798   1.920  1.25221E+00  9.37577E-01  3.14631E-01
    9001.752      8.389   1.960  1.22463E+00  9.44774E-01  2.79858E-01
    9002.356      8.993   2.000  1.17286E+00  9.51532E-01  2.21324E-01
    9002.972      9.609   2.040  1.12045E+00  9.57892E-01  1.62557E-01
    9003.599     10.236   2.080  1.08782E+00  9.63814E-01  1.24003E-01
    9004.240     10.877   2.120  1.08046E+00  9.69342E-01  1.11118E-01
    9004.892     11.529   2.160  1.09018E+00  9.74439E-01  1.15738E-01
    9005.556     12.193   2.200  1.10807E+00  9.79150E-01  1.28923E-01
    9006.233     12.870   2.240  1.13117E+00  9.83481E-01  1.47691E-01
    9006.922     13.559   2.280  1.15726E+00  9.87415E-01  1.69849E-01
    9007.623     14.260   2.320  1.17947E+00  9.90978E-01  1.88495E-01
    9008.336     14.973   2.360  1.18765E+00  9.94199E-01  1.93446E-01
    9009.061     15.698   2.400  1.17607E+00  9.97063E-01  1.79008E-01
    9009.799     16.436   2.440  1.15049E+00  9.99598E-01  1.50888E-01
    9010.549     17.186   2.480  1.12291E+00  1.00183E+00  1.21075E-01
    9011.311     17.948   2.520  1.10048E+00  1.00375E+00  9.67363E-02
    9012.085     18.722   2.560  1.08152E+00  1.00538E+00  7.61453E-02
    9012.871     19.508   2.600  1.06112E+00  1.00675E+00  5.43735E-02
    9013.670     20.307   2.640  1.03759E+00  1.00785E+00  2.97348E-02
    9014.481     21.118   2.680  1.01421E+00  1.00873E+00  5.47213E-03
    9015.304     21.941   2.720  9.94725E-01  1.00938E+00 -1.46541E-02
    9016.139     22.776   2.760  9.76978E-01  1.00984E+00 -3.28590E-02
    9016.986     23.623   2.800  9.57532E-01  1.01008E+00 -5.25434E-02
    9017.846     24.483   2.840  9.37626E-01  1.01014E+00 -7.25179E-02
    9018.717     25.354   2.880  9.18112E-01  1.01007E+00 -9.19561E-02
    9019.601     26.238   2.920  8.99949E-01  1.00981E+00 -1.09865E-01
    9020.497     27.134   2.960  8.83688E-01  1.00945E+00 -1.25764E-01
    9021.406     28.043   3.000  8.69945E-01  1.00895E+00 -1.39003E-01
    9022.326     28.963   3.040  8.59183E-01  1.00835E+00 -1.49165E-01
    9023.259     29.896   3.080  8.51461E-01  1.00766E+00 -1.56197E-01
    9024.204     30.841   3.120  8.46808E-01  1.00687E+00 -1.60058E-01
    9025.161     31.798   3.160  8.45346E-01  1.00602E+00 -1.60669E-01
    9026.130     32.767   3.200  8.47103E-01  1.00511E+00 -1.58011E-01
    9027.112     33.749   3.240  8.52164E-01  1.00415E+00 -1.51984E-01
    9028.105     34.742   3.280  8.60898E-01  1.00316E+00 -1.42264E-01
    9029.111     35.748   3.320  8.72794E-01  1.00212E+00 -1.29323E-01
    9030.129     36.766   3.360  8.87375E-01  1.00108E+00 -1.13706E-01
    9031.159     37.796   3.400  9.03764E-01  1.00002E+00 -9.62549E-02
    9032.202     38.839   3.440  9.20861E-01  9.98952E-01 -7.80911E-02
    9033.256     39.893   3.480  9.37625E-01  9.97884E-01 -6.02585E-02
    9034.323     40.960   3.520  9.53356E-01  9.96819E-01 -4.34628E-02
    9035.402     42.039   3.560  9.67806E-01  9.95782E-01 -2.79759E-02
    9036.493     43.130   3.600  9.81064E-01  9.94754E-01 -1.36908E-02
    9037.597     44.234   3.640  9.93542E-01  9.93761E-01 -2.19430E-04
    9038.712     45.349   3.680  1.00534E+00  9.92803E-01  1.25371E-02
    9039.840     46.477   3.720  1.01614E+00  9.91882E-01  2.42569E-02
    9040.980     47.617   3.760  1.02547E+00  9.91002E-01  3.44692E-02
    9042.132     48.769   3.800  1.03309E+00  9.90161E-01  4.29254E-02
    9043.296     49.933   3.840  1.03917E+00  9.89363E-01  4.98049E-02
    9044.473     51.110   3.880  1.04443E+00  9.88630E-01  5.57991E-02
    9045.662     52.299   3.920  1.04964E+00  9.87919E-01  6.17215E-02
    9046.863     53.500   3.960  1.05529E+00  9.87277E-01  6.80179E-02
    9048.076     54.713   4.000  1.06122E+00  9.86702E-01  7.45141E-02
    9049.301     55.938   4.040  1.06690E+00  9.86174E-01  8.07255E-02
    9050.538     57.175   4.080  1.07160E+00  9.85694E-01  8.59060E-02
    9051.788     58.425   4.120  1.07458E+00  9.85282E-01  8.92950E-02
    9053.050     59.687   4.160  1.07531E+00  9.84918E-01  9.03936E-02
    9054.324     60.961   4.200  1.07364E+00  9.84623E-01  8.90159E-02
    9055.610     62.247   4.240  1.06954E+00  9.84374E-01  8.51707E-02
    9056.909     63.546   4.280  1.06321E+00  9.84172E-01  7.90376E-02
    9058.219     64.856   4.320  1.05499E+00  9.84039E-01  7.09540E-02
    9059.542     66.179   4.360  1.04522E+00  9.83974E-01  6.12419E-02
    9060.877     67.514   4.400  1.03418E+00  9.83933E-01  5.02464E-02
    9062.224     68.861   4.440  1.02228E+00  9.83957E-01  3.83237E-02
    9063.584     70.221   4.480  1.00984E+00  9.84025E-01  2.58164E-02
    9064.955     71.592   4.520  9.97190E-01  9.84135E-01  1.30548E-02
    9066.339     72.976   4.560  9.84667E-01  9.84308E-01  3.58733E-04
    9067.735     74.372   4.600  9.72583E-01  9.84501E-01 -1.19174E-02
    9069.143     75.780   4.640  9.61513E-01  9.84732E-01 -2.32189E-02
    9070.564     77.201   4.680  9.52260E-01  9.85024E-01 -3.27638E-02
    9071.996     78.633   4.720  9.45559E-01  9.85332E-01 -3.97725E-02
    9073.441     80.078   4.760  9.41837E-01  9.85674E-01 -4.38370E-02
    9074.898     81.535   4.800  9.40919E-01  9.86050E-01 -4.51305E-02
    9076.367     83.004   4.840  9.42076E-01  9.86436E-01 -4.43604E-02
    9077.848     84.485   4.880  9.44569E-01  9.86852E-01 -4.22832E-02
    9079.342     85.979   4.920  9.47978E-01  9.87274E-01 -3.92956E-02
    9080.848     87.485   4.960  9.52364E-01  9.87702E-01 -3.53384E-02
    9082.366     89.003   5.000  9.58024E-01  9.88156E-01 -3.01316E-02
    9083.896     90.533   5.040  9.65005E-01  9.88614E-01 -2.36092E-02
    9085.438     92.075   5.080  9.72873E-01  9.89073E-01 -1.61998E-02
    9086.992     93.629   5.120  9.80775E-01  9.89531E-01 -8.75639E-03
    9088.559     95.196   5.160  9.87705E-01  9.89989E-01 -2.28362E-03
    9090.138     96.775   5.200  9.92818E-01  9.90444E-01  2.37410E-03
    9091.729     98.366   5.240  9.95615E-01  9.90894E-01  4.72162E-03
    9093.332     99.969   5.280  9.96039E-01  9.91315E-01  4.72353E-03
    9094.948    101.585   5.320  9.94452E-01  9.91729E-01  2.72280E-03
    9096.575    103.212   5.360  9.91329E-01  9.92135E-01 -8.06284E-04
    9098.215    104.852   5.400  9.87103E-01  9.92508E-01 -5.40483E-03
    9099.867    106.504   5.440  9.82238E-01  9.92847E-01 -1.06086E-02
    9101.531    108.168   5.480  9.77315E-01  9.93173E-01 -1.58578E-02
    9103.208    109.845   5.520  9.72887E-01  9.93464E-01 -2.05770E-02
    9104.896    111.533   5.560  9.69337E-01  9.93716E-01 -2.43793E-02
    9106.597    113.234   5.600  9.66738E-01  9.93932E-01 -2.71935E-02
    9108.310    114.947   5.640  9.64940E-01  9.94132E-01 -2.91920E-02
    9110.035    116.672   5.680  9.63661E-01  9.94272E-01 -3.06118E-02
    9111.773    118.410   5.720  9.62850E-01  9.94395E-01 -3.15455E-02
    9113.522    120.159   5.760  9.62678E-01  9.94478E-01 -3.18001E-02
    9115.284    121.921   5.800  9.63588E-01  9.94497E-01 -3.09095E-02
    9117.058    123.695   5.840  9.66172E-01  9.94500E-01 -2.83274E-02
    9118.844    125.481   5.880  9.70753E-01  9.94439E-01 -2.36863E-02
    9120.642    127.279   5.920  9.77351E-01  9.94362E-01 -1.70107E-02
    9122.453    129.090   5.960  9.85481E-01  9.94218E-01 -8.73642E-03
    9124.275    130.912   6.000  9.94687E-01  9.94033E-01  6.54113E-04
