# # comment:                                                     FEFF 9.9.1  
# # Source:
# # Structure
# # Reduced
# # space
# # abc:
# # angles:
# # sites:
# # POT  SCF 100  7.0000   0, screened core-hole, AFOLP (folp(0)= 1.150)
# # Abs   Z=29 Rmt= 1.289 Rnm= 1.332 K  shell
# # Pot 1 Z=12 Rmt= 1.353 Rnm= 1.417
# # Pot 2 Z=25 Rmt= 1.389 Rnm= 1.459
# # Pot 3 Z=29 Rmt= 1.289 Rnm= 1.332
# # Pot 4 Z= 8 Rmt= 1.052 Rnm= 1.100
# # Gam_ch=1.729E+00 H-L exch Vi= 0.000E+00 Vr= 0.000E+00
# # Mu=-1.063E+01eV kf=2.087E+00 Vint=-2.074E+01eV Rs_int= 1.737
# FMS rfms= 9.0000
# # PATH  Rmax=-1.000,  Keep_limit= 0.00, Heap_limit 0.00  Pwcrit= 2.50%
#  S02=0.950  Temp=   0.00  Debye_temp=   0.00  Global_sig2= 0.00000
#  Energy zero shift, vr, vi    0.00000E+00   0.00000E+00
#  Curved wave amplitude ratio filter   4.000%
#     file         sig2 tot  cw amp ratio   deg  nlegs   reff  inp sig2
#     0/   0 paths used
#  xsedge+ 50, used to normalize mu           2.4919E-04
#  -----------------------------------------------------------------------
#  omega    e    k    mu    mu0     chi     @#
    8985.856    -14.439  -1.000  3.65878E-02  4.90458E-02 -1.24580E-02
    8986.154    -14.140  -0.960  3.83210E-02  5.25298E-02 -1.42088E-02
    8986.441    -13.854  -0.920  4.01528E-02  5.63981E-02 -1.62453E-02
    8986.715    -13.580  -0.880  4.20888E-02  6.07071E-02 -1.86184E-02
    8986.977    -13.317  -0.840  4.41348E-02  6.55230E-02 -2.13882E-02
    8987.227    -13.068  -0.800  4.62967E-02  7.09219E-02 -2.46252E-02
    8987.465    -12.830  -0.760  4.85803E-02  7.69917E-02 -2.84114E-02
    8987.691    -12.604  -0.720  5.09910E-02  8.38315E-02 -3.28404E-02
    8987.904    -12.391  -0.680  5.35335E-02  9.15504E-02 -3.80170E-02
    8988.105    -12.190  -0.640  5.62109E-02  1.00264E-01 -4.40531E-02
    8988.294    -12.001  -0.600  5.90242E-02  1.10085E-01 -5.10611E-02
    8988.471    -11.824  -0.560  6.19708E-02  1.21111E-01 -5.91405E-02
    8988.635    -11.659  -0.520  6.50420E-02  1.33399E-01 -6.83572E-02
    8988.788    -11.507  -0.480  6.82214E-02  1.46937E-01 -7.87152E-02
    8988.928    -11.367  -0.440  7.14813E-02  1.61604E-01 -9.01230E-02
    8989.056    -11.239  -0.400  7.47808E-02  1.77147E-01 -1.02366E-01
    8989.172    -11.123  -0.360  7.80653E-02  1.93162E-01 -1.15097E-01
    8989.275    -11.019  -0.320  8.12679E-02  2.09129E-01 -1.27861E-01
    8989.367    -10.928  -0.280  8.43145E-02  2.24468E-01 -1.40154E-01
    8989.446    -10.849  -0.240  8.71299E-02  2.38623E-01 -1.51493E-01
    8989.513    -10.782  -0.200  8.96436E-02  2.51129E-01 -1.61486E-01
    8989.568    -10.727  -0.160  9.17936E-02  2.61647E-01 -1.69853E-01
    8989.611    -10.684  -0.120  9.35272E-02  2.69959E-01 -1.76432E-01
    8989.641    -10.654  -0.080  9.48031E-02  2.75946E-01 -1.81143E-01
    8989.666    -10.629   0.000  9.58636E-02  2.80757E-01 -1.84893E-01
    8989.720    -10.574   0.120  9.83234E-02  2.91585E-01 -1.93262E-01
    8989.763    -10.532   0.160  1.00243E-01  3.00007E-01 -1.99764E-01
    8989.818    -10.477   0.200  1.02743E-01  3.10764E-01 -2.08021E-01
    8989.885    -10.410   0.240  1.05841E-01  3.23684E-01 -2.17842E-01
    8989.964    -10.330   0.280  1.09620E-01  3.38524E-01 -2.28904E-01
    8990.056    -10.239   0.320  1.14102E-01  3.54859E-01 -2.40758E-01
    8990.159    -10.135   0.360  1.19423E-01  3.72254E-01 -2.52831E-01
    8990.275    -10.020   0.400  1.25643E-01  3.90181E-01 -2.64537E-01
    8990.403     -9.892   0.440  1.32937E-01  4.08178E-01 -2.75241E-01
    8990.543     -9.751   0.480  1.41434E-01  4.25852E-01 -2.84418E-01
    8990.696     -9.599   0.520  1.51440E-01  4.43037E-01 -2.91597E-01
    8990.860     -9.434   0.560  1.63150E-01  4.59570E-01 -2.96420E-01
    8991.037     -9.258   0.600  1.76944E-01  4.75444E-01 -2.98501E-01
    8991.226     -9.069   0.640  1.93348E-01  4.90735E-01 -2.97387E-01
    8991.427     -8.867   0.680  2.13021E-01  5.05513E-01 -2.92491E-01
    8991.641     -8.654   0.720  2.36853E-01  5.19855E-01 -2.83002E-01
    8991.866     -8.428   0.760  2.66261E-01  5.33861E-01 -2.67601E-01
    8992.104     -8.191   0.800  3.03362E-01  5.47625E-01 -2.44263E-01
    8992.354     -7.941   0.840  3.50102E-01  5.61185E-01 -2.11083E-01
    8992.616     -7.679   0.880  4.05474E-01  5.74632E-01 -1.69158E-01
    8992.890     -7.404   0.920  4.60779E-01  5.87981E-01 -1.27203E-01
    8993.177     -7.118   0.960  5.00809E-01  6.01299E-01 -1.00489E-01
    8993.476     -6.819   1.000  5.18884E-01  6.14580E-01 -9.56964E-02
    8993.787     -6.508   1.040  5.27715E-01  6.27854E-01 -1.00139E-01
    8994.110     -6.185   1.080  5.43514E-01  6.41122E-01 -9.76085E-02
    8994.445     -5.850   1.120  5.65410E-01  6.54398E-01 -8.89887E-02
    8994.792     -5.502   1.160  5.75596E-01  6.67653E-01 -9.20570E-02
    8995.152     -5.143   1.200  5.63482E-01  6.80893E-01 -1.17410E-01
    8995.524     -4.771   1.240  5.44496E-01  6.94099E-01 -1.49603E-01
    8995.908     -4.387   1.280  5.43625E-01  7.07252E-01 -1.63628E-01
    8996.304     -3.991   1.320  5.72935E-01  7.20350E-01 -1.47414E-01
    8996.713     -3.582   1.360  6.27597E-01  7.33366E-01 -1.05770E-01
    8997.133     -3.162   1.400  6.89950E-01  7.46277E-01 -5.63268E-02
    8997.566     -2.729   1.440  7.38774E-01  7.59052E-01 -2.02787E-02
    8998.011     -2.284   1.480  7.62380E-01  7.71664E-01 -9.28478E-03
    8998.468     -1.827   1.520  7.81218E-01  7.84105E-01 -2.88690E-03
    8998.938     -1.357   1.560  8.28387E-01  7.96346E-01  3.20415E-02
    8999.419     -0.876   1.600  9.22580E-01  8.08377E-01  1.14203E-01
    8999.913     -0.382   1.640  1.08134E+00  8.20128E-01  2.61211E-01
    9000.419      0.124   1.680  1.32514E+00  8.31649E-01  4.93487E-01
    9000.937      0.642   1.720  1.63784E+00  8.42853E-01  7.94990E-01
    9001.467      1.173   1.760  1.89701E+00  8.53749E-01  1.04326E+00
    9002.010      1.715   1.800  1.91995E+00  8.64331E-01  1.05562E+00
    9002.565      2.270   1.840  1.72512E+00  8.74552E-01  8.50566E-01
    9003.132      2.837   1.880  1.48311E+00  8.84425E-01  5.98683E-01
    9003.711      3.416   1.920  1.27667E+00  8.93921E-01  3.82754E-01
    9004.302      4.007   1.960  1.12037E+00  9.03038E-01  2.17336E-01
    9004.906      4.611   2.000  1.01319E+00  9.11752E-01  1.01434E-01
    9005.521      5.227   2.040  9.60298E-01  9.20057E-01  4.02412E-02
    9006.149      5.854   2.080  9.61410E-01  9.27973E-01  3.34371E-02
    9006.789      6.494   2.120  9.83128E-01  9.35477E-01  4.76507E-02
    9007.441      7.147   2.160  1.00046E+00  9.42549E-01  5.79156E-02
    9008.106      7.811   2.200  1.00961E+00  9.49207E-01  6.04007E-02
    9008.783      8.488   2.240  1.01296E+00  9.55452E-01  5.75087E-02
    9009.471      9.177   2.280  1.01222E+00  9.61288E-01  5.09347E-02
    9010.172      9.878   2.320  1.00578E+00  9.66738E-01  3.90375E-02
    9010.886     10.591   2.360  9.92089E-01  9.71761E-01  2.03287E-02
    9011.611     11.316   2.400  9.70501E-01  9.76382E-01 -5.88074E-03
    9012.349     12.054   2.440  9.37978E-01  9.80628E-01 -4.26495E-02
    9013.099     12.804   2.480  8.90142E-01  9.84501E-01 -9.43587E-02
    9013.861     13.566   2.520  8.40149E-01  9.88007E-01 -1.47858E-01
    9014.635     14.340   2.560  7.99080E-01  9.91153E-01 -1.92073E-01
    9015.421     15.126   2.600  7.70587E-01  9.93944E-01 -2.23357E-01
    9016.220     15.925   2.640  7.52635E-01  9.96428E-01 -2.43793E-01
    9017.030     16.736   2.680  7.41291E-01  9.98571E-01 -2.57280E-01
    9017.853     17.559   2.720  7.34685E-01  1.00044E+00 -2.65755E-01
    9018.689     18.394   2.760  7.31812E-01  1.00200E+00 -2.70191E-01
    9019.536     19.241   2.800  7.32298E-01  1.00329E+00 -2.70989E-01
    9020.395     20.101   2.840  7.36621E-01  1.00432E+00 -2.67699E-01
    9021.267     20.972   2.880  7.45032E-01  1.00513E+00 -2.60099E-01
    9022.151     21.856   2.920  7.57905E-01  1.00569E+00 -2.47781E-01
    9023.047     22.752   2.960  7.75968E-01  1.00605E+00 -2.30085E-01
    9023.955     23.661   3.000  7.99480E-01  1.00620E+00 -2.06721E-01
    9024.876     24.581   3.040  8.27598E-01  1.00620E+00 -1.78599E-01
    9025.809     25.514   3.080  8.58850E-01  1.00601E+00 -1.47157E-01
    9026.754     26.459   3.120  8.91452E-01  1.00566E+00 -1.14205E-01
    9027.711     27.416   3.160  9.23483E-01  1.00518E+00 -8.16943E-02
    9028.680     28.385   3.200  9.54376E-01  1.00457E+00 -5.01979E-02
    9029.661     29.367   3.240  9.84787E-01  1.00385E+00 -1.90652E-02
    9030.655     30.360   3.280  1.01602E+00  1.00304E+00  1.29808E-02
    9031.661     31.366   3.320  1.04936E+00  1.00215E+00  4.72117E-02
    9032.679     32.384   3.360  1.08577E+00  1.00117E+00  8.45932E-02
    9033.709     33.414   3.400  1.12558E+00  1.00013E+00  1.25455E-01
    9034.751     34.457   3.440  1.16855E+00  9.99033E-01  1.69515E-01
    9035.806     35.511   3.480  1.21242E+00  9.97918E-01  2.14500E-01
    9036.873     36.578   3.520  1.25156E+00  9.96745E-01  2.54812E-01
    9037.952     37.657   3.560  1.27763E+00  9.95563E-01  2.82063E-01
    9039.043     38.748   3.600  1.28285E+00  9.94374E-01  2.88480E-01
    9040.146     39.852   3.640  1.26461E+00  9.93182E-01  2.71429E-01
    9041.262     40.967   3.680  1.22665E+00  9.91989E-01  2.34657E-01
    9042.390     42.095   3.720  1.17655E+00  9.90799E-01  1.85750E-01
    9043.530     43.235   3.760  1.12147E+00  9.89619E-01  1.31854E-01
    9044.682     44.387   3.800  1.06652E+00  9.88490E-01  7.80322E-02
    9045.846     45.551   3.840  1.01541E+00  9.87374E-01  2.80324E-02
    9047.023     46.728   3.880  9.71554E-01  9.86296E-01 -1.47418E-02
    9048.211     47.917   3.920  9.37920E-01  9.85256E-01 -4.73360E-02
    9049.412     49.118   3.960  9.16282E-01  9.84256E-01 -6.79734E-02
    9050.625     50.331   4.000  9.06663E-01  9.83299E-01 -7.66356E-02
    9051.851     51.556   4.040  9.06738E-01  9.82408E-01 -7.56705E-02
    9053.088     52.793   4.080  9.12768E-01  9.81563E-01 -6.87952E-02
    9054.338     54.043   4.120  9.21174E-01  9.80766E-01 -5.95914E-02
    9055.600     55.305   4.160  9.30031E-01  9.80038E-01 -5.00070E-02
    9056.874     56.579   4.200  9.39133E-01  9.79380E-01 -4.02473E-02
    9058.160     57.865   4.240  9.48875E-01  9.78773E-01 -2.98976E-02
    9059.458     59.164   4.280  9.58735E-01  9.78215E-01 -1.94794E-02
    9060.769     60.474   4.320  9.67051E-01  9.77750E-01 -1.06998E-02
    9062.092     61.797   4.360  9.72204E-01  9.77337E-01 -5.13301E-03
    9063.427     63.132   4.400  9.73911E-01  9.76973E-01 -3.06117E-03
    9064.774     64.479   4.440  9.72770E-01  9.76680E-01 -3.90949E-03
    9066.134     65.839   4.480  9.69507E-01  9.76459E-01 -6.95218E-03
    9067.505     67.210   4.520  9.64817E-01  9.76289E-01 -1.14714E-02
    9068.889     68.594   4.560  9.59424E-01  9.76188E-01 -1.67639E-02
    9070.285     69.990   4.600  9.53646E-01  9.76137E-01 -2.24912E-02
    9071.693     71.398   4.640  9.47287E-01  9.76154E-01 -2.88669E-02
    9073.113     72.819   4.680  9.39963E-01  9.76218E-01 -3.62552E-02
    9074.546     74.251   4.720  9.32148E-01  9.76349E-01 -4.42011E-02
    9075.991     75.696   4.760  9.25669E-01  9.76503E-01 -5.08338E-02
    9077.448     77.153   4.800  9.23386E-01  9.76720E-01 -5.33348E-02
    9078.917     78.622   4.840  9.28037E-01  9.76983E-01 -4.89459E-02
    9080.398     80.103   4.880  9.41346E-01  9.77306E-01 -3.59603E-02
    9081.892     81.597   4.920  9.62959E-01  9.77647E-01 -1.46885E-02
    9083.397     83.103   4.960  9.89880E-01  9.78023E-01  1.18563E-02
    9084.915     84.620   5.000  1.01625E+00  9.78412E-01  3.78406E-02
    9086.445     86.151   5.040  1.03474E+00  9.78859E-01  5.58842E-02
    9087.988     87.693   5.080  1.03918E+00  9.79318E-01  5.98642E-02
    9089.542     89.247   5.120  1.02770E+00  9.79806E-01  4.78983E-02
    9091.109     90.814   5.160  1.00378E+00  9.80301E-01  2.34766E-02
    9092.688     92.393   5.200  9.74382E-01  9.80802E-01 -6.41946E-03
    9094.279     93.984   5.240  9.46525E-01  9.81328E-01 -3.48028E-02
    9095.882     95.587   5.280  9.24465E-01  9.81856E-01 -5.73906E-02
    9097.497     97.203   5.320  9.09269E-01  9.82362E-01 -7.30932E-02
    9099.125     98.830   5.360  9.00149E-01  9.82888E-01 -8.27391E-02
    9100.765    100.470   5.400  8.96042E-01  9.83411E-01 -8.73694E-02
    9102.417    102.122   5.440  8.97018E-01  9.83907E-01 -8.68893E-02
    9104.081    103.786   5.480  9.04418E-01  9.84394E-01 -7.99763E-02
    9105.757    105.463   5.520  9.19742E-01  9.84851E-01 -6.51090E-02
    9107.446    107.151   5.560  9.43446E-01  9.85300E-01 -4.18546E-02
    9109.147    108.852   5.600  9.74159E-01  9.85739E-01 -1.15795E-02
    9110.860    110.565   5.640  1.00871E+00  9.86119E-01  2.25863E-02
    9112.585    112.290   5.680  1.04342E+00  9.86487E-01  5.69296E-02
    9114.322    114.027   5.720  1.07539E+00  9.86842E-01  8.85461E-02
    9116.072    115.777   5.760  1.10205E+00  9.87135E-01  1.14912E-01
    9117.833    117.539   5.800  1.11990E+00  9.87386E-01  1.32513E-01
    9119.607    119.313   5.840  1.12555E+00  9.87598E-01  1.37948E-01
    9121.394    121.099   5.880  1.11863E+00  9.87793E-01  1.30842E-01
    9123.192    122.897   5.920  1.10225E+00  9.87922E-01  1.14324E-01
    9125.002    124.708   5.960  1.08093E+00  9.88001E-01  9.29263E-02
    9126.825    126.530   6.000  1.05834E+00  9.88014E-01  7.03287E-02
