# # comment:                                                     FEFF 9.9.1  
# # Source:
# # Structure
# # Reduced
# # space
# # abc:
# # angles:
# # sites:
# # POT  SCF 100  7.0000   0, screened core-hole, AFOLP (folp(0)= 1.150)
# # Abs   Z=29 Rmt= 1.232 Rnm= 1.319 K  shell
# # Pot 1 Z=12 Rmt= 1.384 Rnm= 1.461
# # Pot 2 Z=29 Rmt= 1.230 Rnm= 1.313
# # Pot 3 Z= 8 Rmt= 1.027 Rnm= 1.104
# # Gam_ch=1.729E+00 H-L exch Vi= 0.000E+00 Vr= 0.000E+00
# # Mu=-7.711E+00eV kf=2.159E+00 Vint=-1.615E+01eV Rs_int= 1.680
# FMS rfms= 9.0000
# # PATH  Rmax=-1.000,  Keep_limit= 0.00, Heap_limit 0.00  Pwcrit= 2.50%
#  S02=0.950  Temp=   0.00  Debye_temp=   0.00  Global_sig2= 0.00000
#  Energy zero shift, vr, vi    0.00000E+00   0.00000E+00
#  Curved wave amplitude ratio filter   4.000%
#     file         sig2 tot  cw amp ratio   deg  nlegs   reff  inp sig2
#     0/   0 paths used
#  xsedge+ 50, used to normalize mu           2.4435E-04
#  -----------------------------------------------------------------------
#  omega    e    k    mu    mu0     chi     @#
    8984.060    -11.521  -1.000  3.87774E-02  5.66377E-02 -1.78603E-02
    8984.358    -11.223  -0.960  4.06975E-02  6.08031E-02 -2.01056E-02
    8984.645    -10.936  -0.920  4.27395E-02  6.54342E-02 -2.26947E-02
    8984.919    -10.662  -0.880  4.49124E-02  7.05996E-02 -2.56872E-02
    8985.181    -10.400  -0.840  4.72259E-02  7.63791E-02 -2.91532E-02
    8985.431    -10.150  -0.800  4.96903E-02  8.28651E-02 -3.31748E-02
    8985.669     -9.912  -0.760  5.23165E-02  9.01637E-02 -3.78473E-02
    8985.895     -9.686  -0.720  5.51155E-02  9.83949E-02 -4.32794E-02
    8986.108     -9.473  -0.680  5.80984E-02  1.07691E-01 -4.95922E-02
    8986.309     -9.272  -0.640  6.12748E-02  1.18190E-01 -5.69151E-02
    8986.498     -9.083  -0.600  6.46520E-02  1.30030E-01 -6.53777E-02
    8986.675     -8.906  -0.560  6.82320E-02  1.43327E-01 -7.50947E-02
    8986.839     -8.741  -0.520  7.20078E-02  1.58150E-01 -8.61425E-02
    8986.992     -8.589  -0.480  7.59586E-02  1.74485E-01 -9.85264E-02
    8987.132     -8.449  -0.440  8.00444E-02  1.92188E-01 -1.12143E-01
    8987.260     -8.321  -0.400  8.42016E-02  2.10950E-01 -1.26748E-01
    8987.376     -8.205  -0.360  8.83432E-02  2.30288E-01 -1.41945E-01
    8987.480     -8.101  -0.320  9.23649E-02  2.49572E-01 -1.57207E-01
    8987.571     -8.010  -0.280  9.61571E-02  2.68105E-01 -1.71947E-01
    8987.650     -7.931  -0.240  9.96177E-02  2.85213E-01 -1.85595E-01
    8987.717     -7.864  -0.200  1.02663E-01  3.00333E-01 -1.97670E-01
    8987.772     -7.809  -0.160  1.05228E-01  3.13053E-01 -2.07826E-01
    8987.815     -7.766  -0.120  1.07266E-01  3.23109E-01 -2.15844E-01
    8987.845     -7.736  -0.080  1.08744E-01  3.30354E-01 -2.21610E-01
    8987.870     -7.711   0.000  1.09943E-01  3.36174E-01 -2.26231E-01
    8987.925     -7.656   0.120  1.12849E-01  3.49305E-01 -2.36456E-01
    8987.967     -7.614   0.160  1.15060E-01  3.59509E-01 -2.44449E-01
    8988.022     -7.559   0.200  1.17901E-01  3.72535E-01 -2.54634E-01
    8988.089     -7.492   0.240  1.21422E-01  3.88228E-01 -2.66806E-01
    8988.168     -7.413   0.280  1.25588E-01  4.06219E-01 -2.80631E-01
    8988.260     -7.321   0.320  1.30493E-01  4.26114E-01 -2.95621E-01
    8988.363     -7.217   0.360  1.36207E-01  4.47289E-01 -3.11082E-01
    8988.479     -7.102   0.400  1.42899E-01  4.69163E-01 -3.26263E-01
    8988.607     -6.974   0.440  1.50820E-01  4.91186E-01 -3.40365E-01
    8988.747     -6.833   0.480  1.60310E-01  5.12871E-01 -3.52560E-01
    8988.900     -6.681   0.520  1.71867E-01  5.33967E-01 -3.62100E-01
    8989.064     -6.516   0.560  1.86140E-01  5.54347E-01 -3.68207E-01
    8989.241     -6.340   0.600  2.03923E-01  5.73955E-01 -3.70032E-01
    8989.430     -6.151   0.640  2.26252E-01  5.92828E-01 -3.66576E-01
    8989.631     -5.950   0.680  2.54327E-01  6.11061E-01 -3.56734E-01
    8989.845     -5.736   0.720  2.89271E-01  6.28724E-01 -3.39453E-01
    8990.070     -5.511   0.760  3.31560E-01  6.45923E-01 -3.14363E-01
    8990.308     -5.273   0.800  3.79846E-01  6.62716E-01 -2.82871E-01
    8990.558     -5.023   0.840  4.29916E-01  6.79167E-01 -2.49250E-01
    8990.820     -4.761   0.880  4.75815E-01  6.95344E-01 -2.19529E-01
    8991.094     -4.486   0.920  5.14291E-01  7.11242E-01 -1.96950E-01
    8991.381     -4.200   0.960  5.47060E-01  7.26882E-01 -1.79822E-01
    8991.680     -3.901   1.000  5.76202E-01  7.42297E-01 -1.66095E-01
    8991.991     -3.590   1.040  5.98420E-01  7.57447E-01 -1.59027E-01
    8992.314     -3.267   1.080  6.05377E-01  7.72348E-01 -1.66972E-01
    8992.649     -2.932   1.120  5.93834E-01  7.86988E-01 -1.93153E-01
    8992.996     -2.585   1.160  5.74860E-01  8.01308E-01 -2.26448E-01
    8993.356     -2.225   1.200  5.64912E-01  8.15309E-01 -2.50397E-01
    8993.728     -1.853   1.240  5.70981E-01  8.28967E-01 -2.57986E-01
    8994.112     -1.469   1.280  5.88545E-01  8.42260E-01 -2.53715E-01
    8994.508     -1.073   1.320  6.10074E-01  8.55138E-01 -2.45064E-01
    8994.917     -0.664   1.360  6.31943E-01  8.67593E-01 -2.35650E-01
    8995.337     -0.244   1.400  6.55216E-01  8.79601E-01 -2.24385E-01
    8995.770      0.189   1.440  6.84245E-01  8.91115E-01 -2.06870E-01
    8996.215      0.634   1.480  7.22673E-01  9.02147E-01 -1.79474E-01
    8996.672      1.091   1.520  7.71117E-01  9.12672E-01 -1.41556E-01
    8997.142      1.561   1.560  8.31831E-01  9.22667E-01 -9.08357E-02
    8997.623      2.042   1.600  9.04649E-01  9.32128E-01 -2.74795E-02
    8998.117      2.536   1.640  9.83849E-01  9.41035E-01  4.28145E-02
    8998.623      3.042   1.680  1.07326E+00  9.49405E-01  1.23853E-01
    8999.141      3.560   1.720  1.18029E+00  9.57223E-01  2.23064E-01
    8999.671      4.091   1.760  1.29387E+00  9.64510E-01  3.29357E-01
    9000.214      4.633   1.800  1.39203E+00  9.71228E-01  4.20801E-01
    9000.769      5.188   1.840  1.47312E+00  9.77444E-01  4.95672E-01
    9001.336      5.755   1.880  1.53690E+00  9.83125E-01  5.53774E-01
    9001.915      6.334   1.920  1.55824E+00  9.88297E-01  5.69947E-01
    9002.506      6.925   1.960  1.52014E+00  9.92970E-01  5.27166E-01
    9003.110      7.529   2.000  1.44329E+00  9.97170E-01  4.46117E-01
    9003.725      8.144   2.040  1.35899E+00  1.00091E+00  3.58085E-01
    9004.353      8.772   2.080  1.27226E+00  1.00420E+00  2.68060E-01
    9004.993      9.412   2.120  1.18436E+00  1.00709E+00  1.77265E-01
    9005.646     10.065   2.160  1.10384E+00  1.00957E+00  9.42628E-02
    9006.310     10.729   2.200  1.04028E+00  1.01168E+00  2.85995E-02
    9006.987     11.406   2.240  9.98910E-01  1.01344E+00 -1.45327E-02
    9007.675     12.095   2.280  9.78487E-01  1.01487E+00 -3.63873E-02
    9008.377     12.796   2.320  9.75125E-01  1.01598E+00 -4.08589E-02
    9009.090     13.509   2.360  9.84195E-01  1.01683E+00 -3.26299E-02
    9009.815     14.234   2.400  9.99703E-01  1.01741E+00 -1.77060E-02
    9010.553     14.972   2.440  1.01714E+00  1.01773E+00 -5.89005E-04
    9011.303     15.722   2.480  1.03890E+00  1.01785E+00  2.10515E-02
    9012.065     16.484   2.520  1.07078E+00  1.01777E+00  5.30085E-02
    9012.839     17.258   2.560  1.11175E+00  1.01750E+00  9.42539E-02
    9013.625     18.044   2.600  1.14080E+00  1.01708E+00  1.23723E-01
    9014.424     18.843   2.640  1.14756E+00  1.01650E+00  1.31060E-01
    9015.235     19.654   2.680  1.13536E+00  1.01583E+00  1.19531E-01
    9016.057     20.477   2.720  1.10942E+00  1.01504E+00  9.43814E-02
    9016.893     21.312   2.760  1.07621E+00  1.01416E+00  6.20561E-02
    9017.740     22.159   2.800  1.04046E+00  1.01319E+00  2.72624E-02
    9018.599     23.019   2.840  1.00542E+00  1.01218E+00 -6.76412E-03
    9019.471     23.890   2.880  9.73262E-01  1.01110E+00 -3.78401E-02
    9020.355     24.774   2.920  9.44761E-01  1.01000E+00 -6.52430E-02
    9021.251     25.670   2.960  9.20442E-01  1.00889E+00 -8.84526E-02
    9022.160     26.579   3.000  9.00362E-01  1.00776E+00 -1.07395E-01
    9023.080     27.499   3.040  8.84498E-01  1.00662E+00 -1.22120E-01
    9024.013     28.432   3.080  8.73131E-01  1.00550E+00 -1.32371E-01
    9024.958     29.377   3.120  8.66200E-01  1.00439E+00 -1.38193E-01
    9025.915     30.334   3.160  8.63026E-01  1.00330E+00 -1.40269E-01
    9026.884     31.303   3.200  8.62881E-01  1.00225E+00 -1.39373E-01
    9027.865     32.284   3.240  8.65003E-01  1.00123E+00 -1.36227E-01
    9028.859     33.278   3.280  8.68689E-01  1.00027E+00 -1.31580E-01
    9029.865     34.284   3.320  8.73407E-01  9.99352E-01 -1.25945E-01
    9030.883     35.302   3.360  8.78880E-01  9.98481E-01 -1.19601E-01
    9031.913     36.332   3.400  8.84852E-01  9.97680E-01 -1.12827E-01
    9032.956     37.375   3.440  8.91124E-01  9.96927E-01 -1.05804E-01
    9034.010     38.429   3.480  8.97883E-01  9.96247E-01 -9.83633E-02
    9035.077     39.496   3.520  9.05587E-01  9.95618E-01 -9.00314E-02
    9036.156     40.575   3.560  9.14739E-01  9.95064E-01 -8.03259E-02
    9037.247     41.666   3.600  9.25704E-01  9.94587E-01 -6.88832E-02
    9038.350     42.770   3.640  9.38364E-01  9.94186E-01 -5.58224E-02
    9039.466     43.885   3.680  9.52143E-01  9.93861E-01 -4.17182E-02
    9040.594     45.013   3.720  9.66241E-01  9.93591E-01 -2.73506E-02
    9041.734     46.153   3.760  9.80050E-01  9.93396E-01 -1.33460E-02
    9042.886     47.305   3.800  9.93130E-01  9.93277E-01 -1.46852E-04
    9044.050     48.469   3.840  1.00544E+00  9.93212E-01  1.22299E-02
    9045.227     49.646   3.880  1.01746E+00  9.93241E-01  2.42211E-02
    9046.415     50.834   3.920  1.02964E+00  9.93302E-01  3.63344E-02
    9047.616     52.035   3.960  1.04205E+00  9.93457E-01  4.85949E-02
    9048.829     53.248   4.000  1.05408E+00  9.93662E-01  6.04144E-02
    9050.055     54.474   4.040  1.06469E+00  9.93916E-01  7.07767E-02
    9051.292     55.711   4.080  1.07299E+00  9.94242E-01  7.87502E-02
    9052.542     56.961   4.120  1.07865E+00  9.94635E-01  8.40115E-02
    9053.804     58.223   4.160  1.08196E+00  9.95052E-01  8.69052E-02
    9055.078     59.497   4.200  1.08354E+00  9.95533E-01  8.80040E-02
    9056.364     60.783   4.240  1.08382E+00  9.96055E-01  8.77665E-02
    9057.662     62.082   4.280  1.08295E+00  9.96617E-01  8.63360E-02
    9058.973     63.392   4.320  1.08075E+00  9.97196E-01  8.35536E-02
    9060.296     64.715   4.360  1.07700E+00  9.97832E-01  7.91655E-02
    9061.631     66.050   4.400  1.07150E+00  9.98481E-01  7.30207E-02
    9062.978     67.397   4.440  1.06438E+00  9.99165E-01  6.52145E-02
    9064.338     68.757   4.480  1.05604E+00  9.99878E-01  5.61626E-02
    9065.709     70.128   4.520  1.04714E+00  1.00058E+00  4.65618E-02
    9067.093     71.512   4.560  1.03850E+00  1.00130E+00  3.71953E-02
    9068.489     72.908   4.600  1.03080E+00  1.00205E+00  2.87491E-02
    9069.897     74.316   4.640  1.02443E+00  1.00278E+00  2.16478E-02
    9071.317     75.737   4.680  1.01954E+00  1.00353E+00  1.60151E-02
    9072.750     77.169   4.720  1.01588E+00  1.00425E+00  1.16284E-02
    9074.195     78.614   4.760  1.01295E+00  1.00497E+00  7.97911E-03
    9075.652     80.071   4.800  1.01010E+00  1.00569E+00  4.41720E-03
    9077.121     81.540   4.840  1.00677E+00  1.00637E+00  4.01831E-04
    9078.602     83.021   4.880  1.00275E+00  1.00704E+00 -4.29266E-03
    9080.096     84.515   4.920  9.97990E-01  1.00768E+00 -9.68886E-03
    9081.601     86.020   4.960  9.92522E-01  1.00830E+00 -1.57825E-02
    9083.119     87.538   5.000  9.86354E-01  1.00889E+00 -2.25390E-02
    9084.649     89.068   5.040  9.79659E-01  1.00944E+00 -2.97835E-02
    9086.192     90.611   5.080  9.72767E-01  1.00995E+00 -3.71841E-02
    9087.746     92.165   5.120  9.66016E-01  1.01042E+00 -4.44025E-02
    9089.313     93.732   5.160  9.59806E-01  1.01084E+00 -5.10383E-02
    9090.892     95.311   5.200  9.54749E-01  1.01123E+00 -5.64796E-02
    9092.483     96.902   5.240  9.51570E-01  1.01157E+00 -5.99996E-02
    9094.086     98.505   5.280  9.50880E-01  1.01187E+00 -6.09868E-02
    9095.701    100.120   5.320  9.53061E-01  1.01212E+00 -5.90572E-02
    9097.329    101.748   5.360  9.58382E-01  1.01230E+00 -5.39183E-02
    9098.969    103.388   5.400  9.66958E-01  1.01244E+00 -4.54785E-02
    9100.621    105.040   5.440  9.78449E-01  1.01253E+00 -3.40774E-02
    9102.285    106.704   5.480  9.91779E-01  1.01255E+00 -2.07681E-02
    9103.961    108.380   5.520  1.00531E+00  1.01254E+00 -7.23021E-03
    9105.650    110.069   5.560  1.01719E+00  1.01247E+00  4.71272E-03
    9107.351    111.770   5.600  1.02606E+00  1.01233E+00  1.37255E-02
    9109.064    113.483   5.640  1.03126E+00  1.01217E+00  1.90853E-02
    9110.789    115.208   5.680  1.03242E+00  1.01194E+00  2.04764E-02
    9112.526    116.945   5.720  1.02953E+00  1.01167E+00  1.78595E-02
    9114.276    118.695   5.760  1.02300E+00  1.01135E+00  1.16454E-02
    9116.038    120.457   5.800  1.01394E+00  1.01099E+00  2.95250E-03
    9117.811    122.231   5.840  1.00420E+00  1.01057E+00 -6.36906E-03
    9119.598    124.017   5.880  9.95848E-01  1.01013E+00 -1.42842E-02
    9121.396    125.815   5.920  9.90278E-01  1.00964E+00 -1.93586E-02
    9123.206    127.625   5.960  9.88049E-01  1.00913E+00 -2.10809E-02
    9125.029    129.448   6.000  9.89035E-01  1.00856E+00 -1.95257E-02
