# # comment:                                                     FEFF 9.9.1  
# # Source:
# # Structure
# # Reduced
# # space
# # abc:
# # angles:102.353243
# # sites:
# # POT  SCF 100  7.0000   0, screened core-hole, AFOLP (folp(0)= 1.150)
# # Abs   Z=29 Rmt= 1.152 Rnm= 1.243 K  shell
# # Pot 1 Z= 3 Rmt= 1.143 Rnm= 1.202
# # Pot 2 Z=57 Rmt= 1.760 Rnm= 1.833
# # Pot 3 Z=29 Rmt= 1.153 Rnm= 1.244
# # Pot 4 Z= 8 Rmt= 1.050 Rnm= 1.098
# # Gam_ch=1.729E+00 H-L exch Vi= 0.000E+00 Vr= 0.000E+00
# # Mu=-8.634E+00eV kf=2.004E+00 Vint=-1.963E+01eV Rs_int= 1.809
# FMS rfms= 9.0000
# # PATH  Rmax=-1.000,  Keep_limit= 0.00, Heap_limit 0.00  Pwcrit= 2.50%
#  S02=0.950  Temp=   0.00  Debye_temp=   0.00  Global_sig2= 0.00000
#  Energy zero shift, vr, vi    0.00000E+00   0.00000E+00
#  Curved wave amplitude ratio filter   4.000%
#     file         sig2 tot  cw amp ratio   deg  nlegs   reff  inp sig2
#     0/   0 paths used
#  xsedge+ 50, used to normalize mu           2.4654E-04
#  -----------------------------------------------------------------------
#  omega    e    k    mu    mu0     chi     @#
    8985.472    -12.444  -1.000  3.79941E-02  5.63656E-02 -1.83715E-02
    8985.771    -12.145  -0.960  3.99323E-02  6.05667E-02 -2.06344E-02
    8986.057    -11.858  -0.920  4.20193E-02  6.52459E-02 -2.32266E-02
    8986.331    -11.584  -0.880  4.42738E-02  7.04747E-02 -2.62009E-02
    8986.594    -11.322  -0.840  4.67178E-02  7.63366E-02 -2.96188E-02
    8986.844    -11.072  -0.800  4.93772E-02  8.29283E-02 -3.35510E-02
    8987.081    -10.834  -0.760  5.22822E-02  9.03609E-02 -3.80787E-02
    8987.307    -10.609  -0.720  5.54672E-02  9.87604E-02 -4.32932E-02
    8987.520    -10.395  -0.680  5.89708E-02  1.08266E-01 -4.92947E-02
    8987.721    -10.194  -0.640  6.28343E-02  1.19023E-01 -5.61888E-02
    8987.910    -10.005  -0.600  6.70978E-02  1.31178E-01 -6.40799E-02
    8988.087     -9.828  -0.560  7.17940E-02  1.44853E-01 -7.30591E-02
    8988.252     -9.664  -0.520  7.69380E-02  1.60124E-01 -8.31856E-02
    8988.404     -9.511  -0.480  8.25130E-02  1.76975E-01 -9.44620E-02
    8988.544     -9.371  -0.440  8.84542E-02  1.95259E-01 -1.06804E-01
    8988.672     -9.243  -0.400  9.46370E-02  2.14653E-01 -1.20016E-01
    8988.788     -9.127  -0.360  1.00877E-01  2.34651E-01 -1.33774E-01
    8988.892     -9.024  -0.320  1.06949E-01  2.54596E-01 -1.47648E-01
    8988.983     -8.932  -0.280  1.12623E-01  2.73758E-01 -1.61135E-01
    8989.062     -8.853  -0.240  1.17705E-01  2.91437E-01 -1.73733E-01
    8989.130     -8.786  -0.200  1.22059E-01  3.07050E-01 -1.84991E-01
    8989.184     -8.731  -0.160  1.25617E-01  3.20173E-01 -1.94556E-01
    8989.227     -8.689  -0.120  1.28358E-01  3.30538E-01 -2.02180E-01
    8989.258     -8.658  -0.080  1.30289E-01  3.37999E-01 -2.07710E-01
    8989.282     -8.634   0.000  1.31799E-01  3.43990E-01 -2.12191E-01
    8989.337     -8.579   0.120  1.35205E-01  3.57474E-01 -2.22269E-01
    8989.379     -8.536   0.160  1.37799E-01  3.67960E-01 -2.30161E-01
    8989.434     -8.481   0.200  1.41005E-01  3.81306E-01 -2.40301E-01
    8989.501     -8.414   0.240  1.44763E-01  3.97332E-01 -2.52569E-01
    8989.581     -8.335   0.280  1.48960E-01  4.15690E-01 -2.66730E-01
    8989.672     -8.244   0.320  1.53497E-01  4.35859E-01 -2.82362E-01
    8989.776     -8.140   0.360  1.58337E-01  4.57198E-01 -2.98862E-01
    8989.892     -8.024   0.400  1.63561E-01  4.79093E-01 -3.15532E-01
    8990.020     -7.896   0.440  1.69276E-01  5.00905E-01 -3.31629E-01
    8990.160     -7.756   0.480  1.75638E-01  5.22172E-01 -3.46535E-01
    8990.312     -7.603   0.520  1.82662E-01  5.42581E-01 -3.59919E-01
    8990.477     -7.439   0.560  1.90271E-01  5.61998E-01 -3.71726E-01
    8990.654     -7.262   0.600  1.98261E-01  5.80410E-01 -3.82148E-01
    8990.843     -7.073   0.640  2.06622E-01  5.97845E-01 -3.91222E-01
    8991.044     -6.872   0.680  2.15730E-01  6.14432E-01 -3.98702E-01
    8991.257     -6.659   0.720  2.26293E-01  6.30260E-01 -4.03968E-01
    8991.483     -6.433   0.760  2.39228E-01  6.45456E-01 -4.06229E-01
    8991.720     -6.195   0.800  2.55225E-01  6.60136E-01 -4.04910E-01
    8991.970     -5.945   0.840  2.73862E-01  6.74361E-01 -4.00500E-01
    8992.232     -5.683   0.880  2.92879E-01  6.88220E-01 -3.95341E-01
    8992.507     -5.409   0.920  3.09384E-01  7.01744E-01 -3.92360E-01
    8992.793     -5.122   0.960  3.22807E-01  7.15013E-01 -3.92206E-01
    8993.092     -4.824   1.000  3.35652E-01  7.28034E-01 -3.92381E-01
    8993.403     -4.513   1.040  3.51077E-01  7.40842E-01 -3.89765E-01
    8993.726     -4.190   1.080  3.70782E-01  7.53429E-01 -3.82647E-01
    8994.061     -3.854   1.120  3.96065E-01  7.65815E-01 -3.69750E-01
    8994.409     -3.507   1.160  4.29770E-01  7.77996E-01 -3.48225E-01
    8994.768     -3.147   1.200  4.76798E-01  7.89983E-01 -3.13185E-01
    8995.140     -2.775   1.240  5.42963E-01  8.01722E-01 -2.58758E-01
    8995.524     -2.391   1.280  6.34371E-01  8.13237E-01 -1.78866E-01
    8995.920     -1.995   1.320  7.57364E-01  8.24511E-01 -6.71478E-02
    8996.329     -1.587   1.360  9.17551E-01  8.35524E-01  8.20266E-02
    8996.750     -1.166   1.400  1.10508E+00  8.46274E-01  2.58808E-01
    8997.182     -0.733   1.440  1.25671E+00  8.56719E-01  3.99990E-01
    8997.627     -0.288   1.480  1.28022E+00  8.66873E-01  4.13342E-01
    8998.085      0.169   1.520  1.18373E+00  8.76697E-01  3.07032E-01
    8998.554      0.638   1.560  1.06069E+00  8.86184E-01  1.74507E-01
    8999.036      1.120   1.600  9.73492E-01  8.95333E-01  7.81594E-02
    8999.529      1.614   1.640  9.48685E-01  9.04121E-01  4.45645E-02
    9000.035      2.120   1.680  9.96203E-01  9.12543E-01  8.36605E-02
    9000.553      2.638   1.720  1.10765E+00  9.20599E-01  1.87052E-01
    9001.084      3.168   1.760  1.24032E+00  9.28268E-01  3.12049E-01
    9001.626      3.711   1.800  1.31804E+00  9.35570E-01  3.82469E-01
    9002.181      4.265   1.840  1.30072E+00  9.42462E-01  3.58261E-01
    9002.748      4.832   1.880  1.23012E+00  9.48966E-01  2.81153E-01
    9003.327      5.411   1.920  1.16058E+00  9.55103E-01  2.05475E-01
    9003.918      6.003   1.960  1.10744E+00  9.60835E-01  1.46600E-01
    9004.522      6.606   2.000  1.07323E+00  9.66187E-01  1.07040E-01
    9005.138      7.222   2.040  1.07582E+00  9.71181E-01  1.04635E-01
    9005.765      7.850   2.080  1.10490E+00  9.75801E-01  1.29099E-01
    9006.406      8.490   2.120  1.14621E+00  9.80050E-01  1.66159E-01
    9007.058      9.142   2.160  1.18793E+00  9.83933E-01  2.03998E-01
    9007.722      9.807   2.200  1.21530E+00  9.87498E-01  2.27805E-01
    9008.399     10.483   2.240  1.21316E+00  9.90709E-01  2.22453E-01
    9009.088     11.172   2.280  1.17538E+00  9.93614E-01  1.81768E-01
    9009.789     11.873   2.320  1.11541E+00  9.96219E-01  1.19189E-01
    9010.502     12.586   2.360  1.05681E+00  9.98511E-01  5.83038E-02
    9011.227     13.312   2.400  1.01930E+00  1.00054E+00  1.87680E-02
    9011.965     14.049   2.440  1.01874E+00  1.00228E+00  1.64542E-02
    9012.715     14.799   2.480  1.03378E+00  1.00378E+00  3.00038E-02
    9013.477     15.561   2.520  1.05194E+00  1.00505E+00  4.68963E-02
    9014.251     16.335   2.560  1.06820E+00  1.00608E+00  6.21181E-02
    9015.037     17.122   2.600  1.08035E+00  1.00690E+00  7.34464E-02
    9015.836     17.920   2.640  1.08715E+00  1.00753E+00  7.96229E-02
    9016.647     18.731   2.680  1.08831E+00  1.00797E+00  8.03337E-02
    9017.470     19.554   2.720  1.08460E+00  1.00825E+00  7.63489E-02
    9018.305     20.389   2.760  1.07723E+00  1.00837E+00  6.88543E-02
    9019.152     21.237   2.800  1.06683E+00  1.00836E+00  5.84742E-02
    9020.012     22.096   2.840  1.05353E+00  1.00822E+00  4.53193E-02
    9020.883     22.968   2.880  1.03707E+00  1.00795E+00  2.91168E-02
    9021.767     23.852   2.920  1.01724E+00  1.00757E+00  9.67274E-03
    9022.664     24.748   2.960  9.94544E-01  1.00710E+00 -1.25582E-02
    9023.572     25.656   3.000  9.70751E-01  1.00655E+00 -3.58004E-02
    9024.492     26.577   3.040  9.48354E-01  1.00594E+00 -5.75906E-02
    9025.425     27.509   3.080  9.29018E-01  1.00526E+00 -7.62470E-02
    9026.370     28.454   3.120  9.13460E-01  1.00454E+00 -9.10786E-02
    9027.327     29.411   3.160  9.01437E-01  1.00377E+00 -1.02332E-01
    9028.296     30.381   3.200  8.92388E-01  1.00298E+00 -1.10595E-01
    9029.278     31.362   3.240  8.86016E-01  1.00214E+00 -1.16127E-01
    9030.271     32.356   3.280  8.82420E-01  1.00131E+00 -1.18893E-01
    9031.277     33.362   3.320  8.81625E-01  1.00046E+00 -1.18831E-01
    9032.295     34.380   3.360  8.83378E-01  9.99597E-01 -1.16219E-01
    9033.325     35.410   3.400  8.86980E-01  9.98760E-01 -1.11781E-01
    9034.368     36.452   3.440  8.91260E-01  9.97907E-01 -1.06647E-01
    9035.422     37.507   3.480  8.95245E-01  9.97102E-01 -1.01857E-01
    9036.489     38.574   3.520  8.98547E-01  9.96285E-01 -9.77387E-02
    9037.568     39.653   3.560  9.01617E-01  9.95521E-01 -9.39042E-02
    9038.659     40.744   3.600  9.05307E-01  9.94770E-01 -8.94632E-02
    9039.763     41.847   3.640  9.10648E-01  9.94056E-01 -8.34075E-02
    9040.878     42.963   3.680  9.18180E-01  9.93379E-01 -7.51995E-02
    9042.006     44.090   3.720  9.27626E-01  9.92741E-01 -6.51153E-02
    9043.146     45.230   3.760  9.37903E-01  9.92142E-01 -5.42393E-02
    9044.298     46.383   3.800  9.47780E-01  9.91586E-01 -4.38059E-02
    9045.462     47.547   3.840  9.56180E-01  9.91094E-01 -3.49141E-02
    9046.639     48.723   3.880  9.62450E-01  9.90623E-01 -2.81729E-02
    9047.828     49.912   3.920  9.66953E-01  9.90215E-01 -2.32620E-02
    9049.029     51.113   3.960  9.70723E-01  9.89853E-01 -1.91296E-02
    9050.242     52.326   4.000  9.75150E-01  9.89536E-01 -1.43859E-02
    9051.467     53.551   4.040  9.81238E-01  9.89284E-01 -8.04534E-03
    9052.704     54.789   4.080  9.88994E-01  9.89077E-01 -8.26513E-05
    9053.954     56.039   4.120  9.97447E-01  9.88914E-01  8.53365E-03
    9055.216     57.300   4.160  1.00518E+00  9.88794E-01  1.63840E-02
    9056.490     58.574   4.200  1.01132E+00  9.88741E-01  2.25808E-02
    9057.776     59.861   4.240  1.01591E+00  9.88732E-01  2.71764E-02
    9059.075     61.159   4.280  1.01962E+00  9.88764E-01  3.08548E-02
    9060.385     62.470   4.320  1.02333E+00  9.88838E-01  3.44959E-02
    9061.708     63.793   4.360  1.02773E+00  9.88954E-01  3.87768E-02
    9063.043     65.128   4.400  1.03293E+00  9.89132E-01  4.37970E-02
    9064.390     66.475   4.440  1.03836E+00  9.89328E-01  4.90346E-02
    9065.750     67.834   4.480  1.04337E+00  9.89561E-01  5.38115E-02
    9067.121     69.206   4.520  1.04765E+00  9.89832E-01  5.78210E-02
    9068.505     70.590   4.560  1.05160E+00  9.90142E-01  6.14620E-02
    9069.901     71.986   4.600  1.05609E+00  9.90488E-01  6.56063E-02
    9071.309     73.394   4.640  1.06182E+00  9.90867E-01  7.09550E-02
    9072.730     74.814   4.680  1.06877E+00  9.91258E-01  7.75087E-02
    9074.162     76.247   4.720  1.07621E+00  9.91679E-01  8.45344E-02
    9075.607     77.691   4.760  1.08272E+00  9.92107E-01  9.06173E-02
    9077.064     79.148   4.800  1.08666E+00  9.92541E-01  9.41196E-02
    9078.533     80.617   4.840  1.08671E+00  9.93003E-01  9.37096E-02
    9080.014     82.099   4.880  1.08223E+00  9.93470E-01  8.87583E-02
    9081.508     83.592   4.920  1.07345E+00  9.93963E-01  7.94916E-02
    9083.014     85.098   4.960  1.06122E+00  9.94436E-01  6.67854E-02
    9084.532     86.616   5.000  1.04672E+00  9.94928E-01  5.17895E-02
    9086.062     88.146   5.040  1.03107E+00  9.95397E-01  3.56780E-02
    9087.604     89.688   5.080  1.01524E+00  9.95864E-01  1.93742E-02
    9089.158     91.243   5.120  9.99973E-01  9.96350E-01  3.62360E-03
    9090.725     92.809   5.160  9.86058E-01  9.96807E-01 -1.07493E-02
    9092.304     94.388   5.200  9.74638E-01  9.97235E-01 -2.25972E-02
    9093.895     95.979   5.240  9.66894E-01  9.97654E-01 -3.07602E-02
    9095.498     97.583   5.280  9.63381E-01  9.98066E-01 -3.46844E-02
    9097.114     99.198   5.320  9.63732E-01  9.98446E-01 -3.47146E-02
    9098.741    100.826   5.360  9.66923E-01  9.98814E-01 -3.18918E-02
    9100.381    102.465   5.400  9.71567E-01  9.99147E-01 -2.75804E-02
    9102.033    104.117   5.440  9.76005E-01  9.99444E-01 -2.34386E-02
    9103.697    105.782   5.480  9.78470E-01  9.99704E-01 -2.12340E-02
    9105.374    107.458   5.520  9.77709E-01  9.99950E-01 -2.22414E-02
    9107.062    109.147   5.560  9.73659E-01  1.00016E+00 -2.65003E-02
    9108.763    110.847   5.600  9.67367E-01  1.00033E+00 -3.29630E-02
    9110.476    112.560   5.640  9.60146E-01  1.00046E+00 -4.03164E-02
    9112.201    114.286   5.680  9.52898E-01  1.00056E+00 -4.76578E-02
    9113.939    116.023   5.720  9.46134E-01  1.00063E+00 -5.44990E-02
    9115.688    117.772   5.760  9.40187E-01  1.00065E+00 -6.04595E-02
    9117.450    119.534   5.800  9.35463E-01  1.00062E+00 -6.51542E-02
    9119.224    121.308   5.840  9.32282E-01  1.00055E+00 -6.82668E-02
    9121.010    123.094   5.880  9.30953E-01  1.00044E+00 -6.94878E-02
    9122.808    124.893   5.920  9.31452E-01  1.00029E+00 -6.88423E-02
    9124.619    126.703   5.960  9.34195E-01  1.00013E+00 -6.59369E-02
    9126.441    128.526   6.000  9.39628E-01  9.99877E-01 -6.02486E-02
