# # comment:                                                     FEFF 9.9.1  
# # Source:
# # Structure
# # Reduced
# # space
# # abc:
# # angles:
# # sites:
# # POT  SCF 100  7.0000   0, screened core-hole, AFOLP (folp(0)= 1.150)
# # Abs   Z=29 Rmt= 1.204 Rnm= 1.289 K  shell
# # Pot 1 Z=56 Rmt= 1.967 Rnm= 2.017
# # Pot 2 Z=39 Rmt= 1.626 Rnm= 1.696
# # Pot 3 Z=29 Rmt= 1.175 Rnm= 1.271
# # Pot 4 Z= 8 Rmt= 1.058 Rnm= 1.108
# # Gam_ch=1.729E+00 H-L exch Vi= 0.000E+00 Vr= 0.000E+00
# # Mu=-7.871E+00eV kf=2.040E+00 Vint=-1.756E+01eV Rs_int= 1.777
# FMS rfms= 9.0000
# # PATH  Rmax=-1.000,  Keep_limit= 0.00, Heap_limit 0.00  Pwcrit= 2.50%
#  S02=0.950  Temp=   0.00  Debye_temp=   0.00  Global_sig2= 0.00000
#  Energy zero shift, vr, vi    0.00000E+00   0.00000E+00
#  Curved wave amplitude ratio filter   4.000%
#     file         sig2 tot  cw amp ratio   deg  nlegs   reff  inp sig2
#     0/   0 paths used
#  xsedge+ 50, used to normalize mu           2.4394E-04
#  -----------------------------------------------------------------------
#  omega    e    k    mu    mu0     chi     @#
    8985.015    -11.681  -1.000  4.56492E-02  6.01962E-02 -1.45469E-02
    8985.314    -11.382  -0.960  4.84477E-02  6.47475E-02 -1.62997E-02
    8985.600    -11.096  -0.920  5.15141E-02  6.98193E-02 -1.83052E-02
    8985.874    -10.822  -0.880  5.48849E-02  7.54896E-02 -2.06046E-02
    8986.136    -10.560  -0.840  5.86028E-02  8.18489E-02 -2.32461E-02
    8986.386    -10.310  -0.800  6.27167E-02  8.90025E-02 -2.62858E-02
    8986.624    -10.072  -0.760  6.72829E-02  9.70713E-02 -2.97885E-02
    8986.850     -9.846  -0.720  7.23644E-02  1.06192E-01 -3.38277E-02
    8987.063     -9.633  -0.680  7.80308E-02  1.16516E-01 -3.84848E-02
    8987.264     -9.432  -0.640  8.43547E-02  1.28201E-01 -4.38466E-02
    8987.453     -9.243  -0.600  9.14071E-02  1.41406E-01 -4.99990E-02
    8987.630     -9.066  -0.560  9.92471E-02  1.56264E-01 -5.70172E-02
    8987.795     -8.901  -0.520  1.07907E-01  1.72857E-01 -6.49492E-02
    8987.947     -8.749  -0.480  1.17374E-01  1.91168E-01 -7.37939E-02
    8988.087     -8.609  -0.440  1.27561E-01  2.11036E-01 -8.34748E-02
    8988.215     -8.481  -0.400  1.38293E-01  2.32112E-01 -9.38186E-02
    8988.331     -8.365  -0.360  1.49299E-01  2.53846E-01 -1.04547E-01
    8988.435     -8.261  -0.320  1.60228E-01  2.75526E-01 -1.15297E-01
    8988.526     -8.170  -0.280  1.70695E-01  2.96357E-01 -1.25661E-01
    8988.605     -8.091  -0.240  1.80331E-01  3.15579E-01 -1.35248E-01
    8988.672     -8.024  -0.200  1.88830E-01  3.32558E-01 -1.43728E-01
    8988.727     -7.969  -0.160  1.95970E-01  3.46832E-01 -1.50863E-01
    8988.770     -7.926  -0.120  2.01610E-01  3.58108E-01 -1.56498E-01
    8988.800     -7.896  -0.080  2.05672E-01  3.66227E-01 -1.60555E-01
    8988.825     -7.871   0.000  2.08933E-01  3.72746E-01 -1.63813E-01
    8988.880     -7.816   0.120  2.16257E-01  3.87443E-01 -1.71186E-01
    8988.922     -7.774   0.160  2.21934E-01  3.98835E-01 -1.76901E-01
    8988.977     -7.719   0.200  2.29178E-01  4.13378E-01 -1.84200E-01
    8989.044     -7.652   0.240  2.37923E-01  4.30860E-01 -1.92936E-01
    8989.123     -7.573   0.280  2.47967E-01  4.50868E-01 -2.02901E-01
    8989.215     -7.481   0.320  2.59091E-01  4.72865E-01 -2.13774E-01
    8989.319     -7.377   0.360  2.71078E-01  4.96187E-01 -2.25109E-01
    8989.434     -7.262   0.400  2.83715E-01  5.20126E-01 -2.36410E-01
    8989.562     -7.134   0.440  2.96895E-01  5.44017E-01 -2.47121E-01
    8989.703     -6.993   0.480  3.10629E-01  5.67341E-01 -2.56711E-01
    8989.855     -6.841   0.520  3.25089E-01  5.89779E-01 -2.64691E-01
    8990.020     -6.676   0.560  3.40480E-01  6.11165E-01 -2.70684E-01
    8990.196     -6.500   0.600  3.57096E-01  6.31438E-01 -2.74342E-01
    8990.385     -6.311   0.640  3.75477E-01  6.50688E-01 -2.75212E-01
    8990.587     -6.109   0.680  3.96449E-01  6.68990E-01 -2.72541E-01
    8990.800     -5.896   0.720  4.20999E-01  6.86473E-01 -2.65475E-01
    8991.025     -5.671   0.760  4.49216E-01  7.03208E-01 -2.53991E-01
    8991.263     -5.433   0.800  4.78743E-01  7.19333E-01 -2.40590E-01
    8991.513     -5.183   0.840  5.03623E-01  7.34912E-01 -2.31290E-01
    8991.775     -4.921   0.880  5.16258E-01  7.50013E-01 -2.33755E-01
    8992.050     -4.646   0.920  5.12492E-01  7.64688E-01 -2.52195E-01
    8992.336     -4.360   0.960  4.95868E-01  7.78973E-01 -2.83105E-01
    8992.635     -4.061   1.000  4.75360E-01  7.92873E-01 -3.17514E-01
    8992.946     -3.750   1.040  4.59019E-01  8.06423E-01 -3.47405E-01
    8993.269     -3.427   1.080  4.50459E-01  8.19629E-01 -3.69171E-01
    8993.604     -3.092   1.120  4.50413E-01  8.32470E-01 -3.82057E-01
    8993.952     -2.744   1.160  4.59253E-01  8.44937E-01 -3.85684E-01
    8994.311     -2.385   1.200  4.77265E-01  8.57020E-01 -3.79755E-01
    8994.683     -2.013   1.240  5.03385E-01  8.68727E-01 -3.65342E-01
    8995.067     -1.629   1.280  5.35072E-01  8.80038E-01 -3.44966E-01
    8995.463     -1.233   1.320  5.71918E-01  8.90915E-01 -3.18998E-01
    8995.872     -0.824   1.360  6.17889E-01  9.01360E-01 -2.83471E-01
    8996.292     -0.404   1.400  6.78388E-01  9.11370E-01 -2.32982E-01
    8996.725      0.029   1.440  7.56887E-01  9.20906E-01 -1.64019E-01
    8997.170      0.474   1.480  8.58385E-01  9.29987E-01 -7.16013E-02
    8997.627      0.931   1.520  9.89710E-01  9.38592E-01  5.11182E-02
    8998.097      1.401   1.560  1.13725E+00  9.46704E-01  1.90547E-01
    8998.578      1.882   1.600  1.25045E+00  9.54342E-01  2.96109E-01
    8999.072      2.376   1.640  1.29186E+00  9.61490E-01  3.30368E-01
    8999.578      2.882   1.680  1.31940E+00  9.68149E-01  3.51252E-01
    9000.096      3.400   1.720  1.41260E+00  9.74324E-01  4.38280E-01
    9000.627      3.931   1.760  1.55841E+00  9.80020E-01  5.78391E-01
    9001.169      4.473   1.800  1.65324E+00  9.85264E-01  6.67981E-01
    9001.724      5.028   1.840  1.60835E+00  9.90040E-01  6.18312E-01
    9002.291      5.595   1.880  1.47802E+00  9.94356E-01  4.83669E-01
    9002.870      6.174   1.920  1.36032E+00  9.98262E-01  3.62056E-01
    9003.461      6.765   1.960  1.27598E+00  1.00174E+00  2.74238E-01
    9004.065      7.369   2.000  1.21277E+00  1.00483E+00  2.07938E-01
    9004.680      7.984   2.040  1.17456E+00  1.00752E+00  1.67036E-01
    9005.308      8.612   2.080  1.16753E+00  1.00987E+00  1.57653E-01
    9005.948      9.252   2.120  1.17276E+00  1.01186E+00  1.60897E-01
    9006.601      9.905   2.160  1.15496E+00  1.01352E+00  1.41439E-01
    9007.265     10.569   2.200  1.10370E+00  1.01487E+00  8.88270E-02
    9007.942     11.246   2.240  1.04340E+00  1.01595E+00  2.74489E-02
    9008.631     11.935   2.280  9.98443E-01  1.01675E+00 -1.83117E-02
    9009.332     12.636   2.320  9.77856E-01  1.01730E+00 -3.94484E-02
    9010.045     13.349   2.360  9.83344E-01  1.01763E+00 -3.42887E-02
    9010.770     14.074   2.400  1.01352E+00  1.01775E+00 -4.23464E-03
    9011.508     14.812   2.440  1.06177E+00  1.01769E+00  4.40846E-02
    9012.258     15.562   2.480  1.10538E+00  1.01744E+00  8.79370E-02
    9013.020     16.324   2.520  1.12735E+00  1.01704E+00  1.10304E-01
    9013.794     17.098   2.560  1.13423E+00  1.01652E+00  1.17708E-01
    9014.580     17.884   2.600  1.12962E+00  1.01587E+00  1.13747E-01
    9015.379     18.683   2.640  1.11644E+00  1.01513E+00  1.01315E-01
    9016.190     19.494   2.680  1.09664E+00  1.01429E+00  8.23484E-02
    9017.013     20.317   2.720  1.07217E+00  1.01336E+00  5.88088E-02
    9017.848     21.152   2.760  1.04494E+00  1.01240E+00  3.25397E-02
    9018.695     21.999   2.800  1.01698E+00  1.01136E+00  5.61868E-03
    9019.555     22.859   2.840  9.90269E-01  1.01031E+00 -2.00434E-02
    9020.426     23.730   2.880  9.65754E-01  1.00923E+00 -4.34732E-02
    9021.310     24.614   2.920  9.42810E-01  1.00813E+00 -6.53233E-02
    9022.206     25.510   2.960  9.21130E-01  1.00704E+00 -8.59061E-02
    9023.115     26.419   3.000  9.01561E-01  1.00594E+00 -1.04379E-01
    9024.035     27.339   3.040  8.85458E-01  1.00487E+00 -1.19413E-01
    9024.968     28.272   3.080  8.73700E-01  1.00381E+00 -1.30112E-01
    9025.913     29.217   3.120  8.66586E-01  1.00279E+00 -1.36199E-01
    9026.870     30.174   3.160  8.63153E-01  1.00180E+00 -1.38643E-01
    9027.839     31.143   3.200  8.61868E-01  1.00085E+00 -1.38979E-01
    9028.820     32.124   3.240  8.61290E-01  9.99938E-01 -1.38648E-01
    9029.814     33.118   3.280  8.60606E-01  9.99075E-01 -1.38470E-01
    9030.820     34.124   3.320  8.60117E-01  9.98280E-01 -1.38163E-01
    9031.838     35.142   3.360  8.60972E-01  9.97533E-01 -1.36561E-01
    9032.868     36.172   3.400  8.64677E-01  9.96858E-01 -1.32181E-01
    9033.911     37.215   3.440  8.71808E-01  9.96256E-01 -1.24448E-01
    9034.965     38.269   3.480  8.82407E-01  9.95704E-01 -1.13297E-01
    9036.032     39.336   3.520  8.96208E-01  9.95206E-01 -9.89984E-02
    9037.111     40.415   3.560  9.12699E-01  9.94804E-01 -8.21051E-02
    9038.202     41.506   3.600  9.31012E-01  9.94456E-01 -6.34441E-02
    9039.306     42.610   3.640  9.50093E-01  9.94184E-01 -4.40908E-02
    9040.421     43.725   3.680  9.68650E-01  9.93989E-01 -2.53393E-02
    9041.549     44.853   3.720  9.85297E-01  9.93869E-01 -8.57264E-03
    9042.689     45.993   3.760  9.99215E-01  9.93803E-01  5.41154E-03
    9043.841     47.145   3.800  1.01037E+00  9.93811E-01  1.65542E-02
    9045.005     48.309   3.840  1.01903E+00  9.93893E-01  2.51404E-02
    9046.182     49.486   3.880  1.02575E+00  9.94026E-01  3.17238E-02
    9047.371     50.675   3.920  1.03100E+00  9.94231E-01  3.67699E-02
    9048.571     51.875   3.960  1.03507E+00  9.94484E-01  4.05845E-02
    9049.785     53.089   4.000  1.03832E+00  9.94807E-01  4.35153E-02
    9051.010     54.314   4.040  1.04118E+00  9.95177E-01  4.60005E-02
    9052.247     55.551   4.080  1.04388E+00  9.95593E-01  4.82879E-02
    9053.497     56.801   4.120  1.04632E+00  9.96074E-01  5.02498E-02
    9054.759     58.063   4.160  1.04823E+00  9.96575E-01  5.16567E-02
    9056.033     59.337   4.200  1.04930E+00  9.97140E-01  5.21569E-02
    9057.319     60.623   4.240  1.04936E+00  9.97745E-01  5.16135E-02
    9058.618     61.922   4.280  1.04897E+00  9.98387E-01  5.05842E-02
    9059.928     63.232   4.320  1.04929E+00  9.99042E-01  5.02443E-02
    9061.251     64.555   4.360  1.05133E+00  9.99731E-01  5.15953E-02
    9062.586     65.890   4.400  1.05539E+00  1.00045E+00  5.49353E-02
    9063.933     67.237   4.440  1.06130E+00  1.00118E+00  6.01216E-02
    9065.293     68.597   4.480  1.06873E+00  1.00191E+00  6.68149E-02
    9066.664     69.968   4.520  1.07718E+00  1.00267E+00  7.45051E-02
    9068.048     71.352   4.560  1.08569E+00  1.00344E+00  8.22480E-02
    9069.444     72.748   4.600  1.09262E+00  1.00420E+00  8.84175E-02
    9070.852     74.156   4.640  1.09601E+00  1.00496E+00  9.10510E-02
    9072.273     75.577   4.680  1.09438E+00  1.00569E+00  8.86884E-02
    9073.705     77.009   4.720  1.08740E+00  1.00645E+00  8.09502E-02
    9075.150     78.454   4.760  1.07556E+00  1.00717E+00  6.83888E-02
    9076.607     79.911   4.800  1.05994E+00  1.00788E+00  5.20556E-02
    9078.076     81.380   4.840  1.04179E+00  1.00856E+00  3.32292E-02
    9079.557     82.861   4.880  1.02268E+00  1.00923E+00  1.34552E-02
    9081.051     84.355   4.920  1.00441E+00  1.00984E+00 -5.42704E-03
    9082.556     85.860   4.960  9.88718E-01  1.01043E+00 -2.17116E-02
    9084.074     87.378   5.000  9.76768E-01  1.01101E+00 -3.42403E-02
    9085.604     88.908   5.040  9.68904E-01  1.01152E+00 -4.26187E-02
    9087.147     90.451   5.080  9.64856E-01  1.01200E+00 -4.71394E-02
    9088.701     92.005   5.120  9.63858E-01  1.01245E+00 -4.85922E-02
    9090.268     93.572   5.160  9.64873E-01  1.01284E+00 -4.79665E-02
    9091.847     95.151   5.200  9.67107E-01  1.01318E+00 -4.60754E-02
    9093.438     96.742   5.240  9.69966E-01  1.01348E+00 -4.35158E-02
    9095.041     98.345   5.280  9.73024E-01  1.01373E+00 -4.07098E-02
    9096.656     99.960   5.320  9.75517E-01  1.01392E+00 -3.84001E-02
    9098.284    101.588   5.360  9.76661E-01  1.01406E+00 -3.73946E-02
    9099.924    103.228   5.400  9.75860E-01  1.01415E+00 -3.82877E-02
    9101.576    104.880   5.440  9.73066E-01  1.01419E+00 -4.11265E-02
    9103.240    106.544   5.480  9.68876E-01  1.01417E+00 -4.52918E-02
    9104.917    108.221   5.520  9.64422E-01  1.01410E+00 -4.96749E-02
    9106.605    109.909   5.560  9.60965E-01  1.01398E+00 -5.30148E-02
    9108.306    111.610   5.600  9.59457E-01  1.01380E+00 -5.43391E-02
    9110.019    113.323   5.640  9.60422E-01  1.01359E+00 -5.31686E-02
    9111.744    115.048   5.680  9.63599E-01  1.01332E+00 -4.97195E-02
    9113.481    116.785   5.720  9.68306E-01  1.01300E+00 -4.46947E-02
    9115.231    118.535   5.760  9.73809E-01  1.01264E+00 -3.88310E-02
    9116.993    120.297   5.800  9.79547E-01  1.01222E+00 -3.26690E-02
    9118.767    122.071   5.840  9.85264E-01  1.01178E+00 -2.65124E-02
    9120.553    123.857   5.880  9.90811E-01  1.01130E+00 -2.04887E-02
    9122.351    125.655   5.920  9.96165E-01  1.01076E+00 -1.45997E-02
    9124.162    127.466   5.960  1.00148E+00  1.01022E+00 -8.74097E-03
    9125.984    129.288   6.000  1.00698E+00  1.00962E+00 -2.63866E-03
