# # comment:                                                     FEFF 9.9.1  
# # Source:
# # Structure
# # Reduced
# # space
# # abc:
# # angles:109.471221
# # sites:
# # POT  SCF 100  7.0000   0, screened core-hole, AFOLP (folp(0)= 1.150)
# # Abs   Z=29 Rmt= 1.253 Rnm= 1.313 K  shell
# # Pot 1 Z=20 Rmt= 1.651 Rnm= 1.718
# # Pot 2 Z=29 Rmt= 1.253 Rnm= 1.313
# # Pot 3 Z=32 Rmt= 1.123 Rnm= 1.313
# # Pot 4 Z= 8 Rmt= 1.013 Rnm= 1.092
# # Gam_ch=1.729E+00 H-L exch Vi= 0.000E+00 Vr= 0.000E+00
# # Mu=-9.675E+00eV kf=2.182E+00 Vint=-1.810E+01eV Rs_int= 1.662
# FMS rfms= 9.0000
# # PATH  Rmax=-1.000,  Keep_limit= 0.00, Heap_limit 0.00  Pwcrit= 2.50%
#  S02=0.950  Temp=   0.00  Debye_temp=   0.00  Global_sig2= 0.00000
#  Energy zero shift, vr, vi    0.00000E+00   0.00000E+00
#  Curved wave amplitude ratio filter   4.000%
#     file         sig2 tot  cw amp ratio   deg  nlegs   reff  inp sig2
#     0/   0 paths used
#  xsedge+ 50, used to normalize mu           2.4829E-04
#  -----------------------------------------------------------------------
#  omega    e    k    mu    mu0     chi     @#
    8984.631    -13.485  -1.000  2.83349E-02  4.64425E-02 -1.81076E-02
    8984.930    -13.186  -0.960  2.94461E-02  4.96485E-02 -2.02024E-02
    8985.216    -12.899  -0.920  3.06101E-02  5.31995E-02 -2.25894E-02
    8985.491    -12.625  -0.880  3.18302E-02  5.71455E-02 -2.53153E-02
    8985.753    -12.363  -0.840  3.31102E-02  6.15447E-02 -2.84344E-02
    8986.003    -12.113  -0.800  3.44542E-02  6.64644E-02 -3.20102E-02
    8986.240    -11.875  -0.760  3.58664E-02  7.19818E-02 -3.61153E-02
    8986.466    -11.650  -0.720  3.73515E-02  7.81839E-02 -4.08324E-02
    8986.679    -11.436  -0.680  3.89140E-02  8.51667E-02 -4.62527E-02
    8986.881    -11.235  -0.640  4.05581E-02  9.30311E-02 -5.24730E-02
    8987.070    -11.046  -0.600  4.22869E-02  1.01876E-01 -5.95891E-02
    8987.246    -10.869  -0.560  4.41015E-02  1.11786E-01 -6.76841E-02
    8987.411    -10.705  -0.520  4.59993E-02  1.22809E-01 -7.68100E-02
    8987.563    -10.552  -0.480  4.79720E-02  1.34935E-01 -8.69627E-02
    8987.704    -10.412  -0.440  5.00033E-02  1.48056E-01 -9.80523E-02
    8987.832    -10.284  -0.400  5.20669E-02  1.61946E-01 -1.09879E-01
    8987.947    -10.168  -0.360  5.41261E-02  1.76250E-01 -1.22124E-01
    8988.051    -10.065  -0.320  5.61354E-02  1.90507E-01 -1.34372E-01
    8988.142     -9.973  -0.280  5.80447E-02  2.04206E-01 -1.46161E-01
    8988.222     -9.894  -0.240  5.98045E-02  2.16852E-01 -1.57047E-01
    8988.289     -9.827  -0.200  6.13706E-02  2.28032E-01 -1.66661E-01
    8988.344     -9.772  -0.160  6.27059E-02  2.37440E-01 -1.74734E-01
    8988.386     -9.730  -0.120  6.37815E-02  2.44881E-01 -1.81100E-01
    8988.417     -9.699  -0.080  6.45751E-02  2.50244E-01 -1.85669E-01
    8988.441     -9.675   0.000  6.52425E-02  2.54555E-01 -1.89313E-01
    8988.496     -9.620   0.120  6.67256E-02  2.64265E-01 -1.97540E-01
    8988.539     -9.577   0.160  6.78783E-02  2.71836E-01 -2.03958E-01
    8988.594     -9.522   0.200  6.93662E-02  2.81511E-01 -2.12145E-01
    8988.661     -9.455   0.240  7.11586E-02  2.93148E-01 -2.21989E-01
    8988.740     -9.376   0.280  7.33385E-02  3.06566E-01 -2.33227E-01
    8988.831     -9.284   0.320  7.58512E-02  3.21401E-01 -2.45550E-01
    8988.935     -9.181   0.360  7.87684E-02  3.37250E-01 -2.58481E-01
    8989.051     -9.065   0.400  8.21105E-02  3.53700E-01 -2.71589E-01
    8989.179     -8.937   0.440  8.59709E-02  3.70339E-01 -2.84368E-01
    8989.319     -8.797   0.480  9.04252E-02  3.86862E-01 -2.96437E-01
    8989.471     -8.644   0.520  9.56260E-02  4.03058E-01 -3.07432E-01
    8989.636     -8.480   0.560  1.01773E-01  4.18861E-01 -3.17088E-01
    8989.813     -8.303   0.600  1.09031E-01  4.34244E-01 -3.25212E-01
    8990.002     -8.114   0.640  1.17576E-01  4.49252E-01 -3.31677E-01
    8990.203     -7.913   0.680  1.27482E-01  4.63941E-01 -3.36459E-01
    8990.416     -7.700   0.720  1.38778E-01  4.78397E-01 -3.39619E-01
    8990.642     -7.474   0.760  1.51447E-01  4.92661E-01 -3.41215E-01
    8990.880     -7.236   0.800  1.65480E-01  5.06851E-01 -3.41372E-01
    8991.129     -6.986   0.840  1.80611E-01  5.20991E-01 -3.40380E-01
    8991.392     -6.724   0.880  1.95957E-01  5.35118E-01 -3.39161E-01
    8991.666     -6.450   0.920  2.10182E-01  5.49296E-01 -3.39113E-01
    8991.952     -6.163   0.960  2.22133E-01  5.63498E-01 -3.41365E-01
    8992.251     -5.865   1.000  2.31714E-01  5.77774E-01 -3.46060E-01
    8992.562     -5.554   1.040  2.39586E-01  5.92101E-01 -3.52515E-01
    8992.885     -5.231   1.080  2.46605E-01  6.06492E-01 -3.59887E-01
    8993.220     -4.895   1.120  2.52957E-01  6.20936E-01 -3.67979E-01
    8993.568     -4.548   1.160  2.57940E-01  6.35415E-01 -3.77476E-01
    8993.927     -4.188   1.200  2.61883E-01  6.49909E-01 -3.88026E-01
    8994.299     -3.816   1.240  2.67746E-01  6.64414E-01 -3.96668E-01
    8994.683     -3.432   1.280  2.79280E-01  6.78865E-01 -3.99584E-01
    8995.080     -3.036   1.320  2.99379E-01  6.93274E-01 -3.93895E-01
    8995.488     -2.628   1.360  3.29734E-01  7.07610E-01 -3.77877E-01
    8995.909     -2.207   1.400  3.71395E-01  7.21824E-01 -3.50429E-01
    8996.341     -1.774   1.440  4.26804E-01  7.35883E-01 -3.09079E-01
    8996.787     -1.329   1.480  4.97144E-01  7.49795E-01 -2.52651E-01
    8997.244     -0.872   1.520  5.74863E-01  7.63487E-01 -1.88624E-01
    8997.713     -0.403   1.560  6.54256E-01  7.76947E-01 -1.22692E-01
    8998.195      0.079   1.600  7.50555E-01  7.90163E-01 -3.96079E-02
    8998.688      0.573   1.640  8.79379E-01  8.03081E-01  7.62979E-02
    8999.194      1.079   1.680  1.02864E+00  8.15692E-01  2.12944E-01
    8999.713      1.597   1.720  1.16070E+00  8.27965E-01  3.32740E-01
    9000.243      2.127   1.760  1.25091E+00  8.39866E-01  4.11039E-01
    9000.785      2.670   1.800  1.30738E+00  8.51410E-01  4.55967E-01
    9001.340      3.224   1.840  1.35004E+00  8.62547E-01  4.87498E-01
    9001.907      3.791   1.880  1.41158E+00  8.73269E-01  5.38313E-01
    9002.486      4.370   1.920  1.48342E+00  8.83569E-01  5.99848E-01
    9003.078      4.962   1.960  1.50166E+00  8.93423E-01  6.08236E-01
    9003.681      5.565   2.000  1.45400E+00  9.02826E-01  5.51178E-01
    9004.297      6.181   2.040  1.37616E+00  9.11776E-01  4.64384E-01
    9004.925      6.809   2.080  1.29322E+00  9.20270E-01  3.72945E-01
    9005.565      7.449   2.120  1.21670E+00  9.28308E-01  2.88397E-01
    9006.217      8.101   2.160  1.15431E+00  9.35869E-01  2.18444E-01
    9006.881      8.766   2.200  1.11050E+00  9.42996E-01  1.67507E-01
    9007.558      9.442   2.240  1.08699E+00  9.49649E-01  1.37338E-01
    9008.247     10.131   2.280  1.08232E+00  9.55832E-01  1.26489E-01
    9008.948     10.832   2.320  1.08730E+00  9.61588E-01  1.25713E-01
    9009.661     11.545   2.360  1.09102E+00  9.66922E-01  1.24100E-01
    9010.387     12.271   2.400  1.08944E+00  9.71819E-01  1.17619E-01
    9011.124     13.008   2.440  1.08582E+00  9.76284E-01  1.09534E-01
    9011.874     13.758   2.480  1.08238E+00  9.80365E-01  1.02018E-01
    9012.636     14.520   2.520  1.07448E+00  9.84049E-01  9.04307E-02
    9013.410     15.294   2.560  1.05464E+00  9.87363E-01  6.72748E-02
    9014.197     16.081   2.600  1.02355E+00  9.90335E-01  3.32128E-02
    9014.995     16.879   2.640  9.95158E-01  9.92953E-01  2.20556E-03
    9015.806     17.690   2.680  9.74355E-01  9.95243E-01 -2.08881E-02
    9016.629     18.513   2.720  9.58395E-01  9.97215E-01 -3.88201E-02
    9017.464     19.348   2.760  9.42829E-01  9.98897E-01 -5.60678E-02
    9018.311     20.196   2.800  9.23963E-01  1.00030E+00 -7.63343E-02
    9019.171     21.055   2.840  9.01090E-01  1.00145E+00 -1.00355E-01
    9020.043     21.927   2.880  8.76728E-01  1.00235E+00 -1.25621E-01
    9020.927     22.811   2.920  8.54336E-01  1.00302E+00 -1.48681E-01
    9021.823     23.707   2.960  8.36536E-01  1.00348E+00 -1.66942E-01
    9022.731     24.615   3.000  8.23910E-01  1.00376E+00 -1.79853E-01
    9023.651     25.536   3.040  8.15403E-01  1.00386E+00 -1.88453E-01
    9024.584     26.468   3.080  8.09845E-01  1.00379E+00 -1.93941E-01
    9025.529     27.413   3.120  8.06601E-01  1.00358E+00 -1.96979E-01
    9026.486     28.370   3.160  8.05470E-01  1.00322E+00 -1.97755E-01
    9027.455     29.340   3.200  8.07105E-01  1.00277E+00 -1.95665E-01
    9028.437     30.321   3.240  8.12487E-01  1.00218E+00 -1.89692E-01
    9029.430     31.315   3.280  8.22006E-01  1.00152E+00 -1.79516E-01
    9030.436     32.321   3.320  8.35708E-01  1.00078E+00 -1.65076E-01
    9031.454     33.339   3.360  8.53464E-01  9.99972E-01 -1.46508E-01
    9032.485     34.369   3.400  8.74677E-01  9.99109E-01 -1.24431E-01
    9033.527     35.411   3.440  8.97954E-01  9.98181E-01 -1.00227E-01
    9034.582     36.466   3.480  9.21578E-01  9.97237E-01 -7.56583E-02
    9035.648     37.533   3.520  9.43840E-01  9.96278E-01 -5.24390E-02
    9036.727     38.612   3.560  9.63578E-01  9.95289E-01 -3.17115E-02
    9037.819     39.703   3.600  9.80758E-01  9.94274E-01 -1.35162E-02
    9038.922     40.806   3.640  9.96137E-01  9.93278E-01  2.85922E-03
    9040.037     41.922   3.680  1.01021E+00  9.92285E-01  1.79230E-02
    9041.165     43.049   3.720  1.02312E+00  9.91297E-01  3.18256E-02
    9042.305     44.189   3.760  1.03501E+00  9.90340E-01  4.46707E-02
    9043.457     45.342   3.800  1.04610E+00  9.89415E-01  5.66887E-02
    9044.622     46.506   3.840  1.05625E+00  9.88503E-01  6.77471E-02
    9045.798     47.682   3.880  1.06467E+00  9.87628E-01  7.70399E-02
    9046.987     48.871   3.920  1.06982E+00  9.86814E-01  8.30068E-02
    9048.188     50.072   3.960  1.07007E+00  9.86022E-01  8.40499E-02
    9049.401     51.285   4.000  1.06530E+00  9.85291E-01  8.00135E-02
    9050.626     52.510   4.040  1.05738E+00  9.84604E-01  7.27719E-02
    9051.864     53.748   4.080  1.04966E+00  9.83961E-01  6.56952E-02
    9053.113     54.998   4.120  1.04567E+00  9.83364E-01  6.23016E-02
    9054.375     56.259   4.160  1.04778E+00  9.82835E-01  6.49439E-02
    9055.649     57.533   4.200  1.05608E+00  9.82375E-01  7.37075E-02
    9056.935     58.820   4.240  1.06866E+00  9.81942E-01  8.67183E-02
    9058.234     60.118   4.280  1.08281E+00  9.81598E-01  1.01213E-01
    9059.545     61.429   4.320  1.09574E+00  9.81282E-01  1.14460E-01
    9060.867     62.752   4.360  1.10519E+00  9.81055E-01  1.24132E-01
    9062.202     64.087   4.400  1.10928E+00  9.80855E-01  1.28424E-01
    9063.550     65.434   4.440  1.10686E+00  9.80725E-01  1.26133E-01
    9064.909     66.793   4.480  1.09754E+00  9.80663E-01  1.16873E-01
    9066.281     68.165   4.520  1.08211E+00  9.80647E-01  1.01465E-01
    9067.664     69.549   4.560  1.06242E+00  9.80675E-01  8.17472E-02
    9069.060     70.945   4.600  1.04053E+00  9.80749E-01  5.97853E-02
    9070.469     72.353   4.640  1.01818E+00  9.80887E-01  3.72938E-02
    9071.889     73.773   4.680  9.96521E-01  9.81069E-01  1.54514E-02
    9073.321     75.206   4.720  9.76249E-01  9.81293E-01 -5.04406E-03
    9074.766     76.650   4.760  9.57715E-01  9.81556E-01 -2.38417E-02
    9076.223     78.107   4.800  9.41034E-01  9.81859E-01 -4.08251E-02
    9077.692     79.577   4.840  9.26296E-01  9.82199E-01 -5.59037E-02
    9079.174     81.058   4.880  9.13714E-01  9.82574E-01 -6.88600E-02
    9080.667     82.551   4.920  9.03453E-01  9.82963E-01 -7.95098E-02
    9082.173     84.057   4.960  8.95527E-01  9.83384E-01 -8.78573E-02
    9083.691     85.575   5.000  8.89752E-01  9.83838E-01 -9.40865E-02
    9085.221     87.105   5.040  8.85824E-01  9.84301E-01 -9.84767E-02
    9086.763     88.647   5.080  8.83653E-01  9.84793E-01 -1.01139E-01
    9088.318     90.202   5.120  8.83345E-01  9.85289E-01 -1.01944E-01
    9089.884     91.768   5.160  8.85345E-01  9.85787E-01 -1.00442E-01
    9091.463     93.347   5.200  8.90284E-01  9.86286E-01 -9.60020E-02
    9093.054     94.938   5.240  8.98601E-01  9.86784E-01 -8.81829E-02
    9094.657     96.542   5.280  9.10350E-01  9.87280E-01 -7.69302E-02
    9096.273     98.157   5.320  9.24915E-01  9.87774E-01 -6.28593E-02
    9097.900     99.785   5.360  9.41113E-01  9.88263E-01 -4.71509E-02
    9099.540    101.424   5.400  9.57481E-01  9.88724E-01 -3.12439E-02
    9101.192    103.077   5.440  9.72886E-01  9.89177E-01 -1.62911E-02
    9102.856    104.741   5.480  9.86861E-01  9.89622E-01 -2.76061E-03
    9104.533    106.417   5.520  9.99741E-01  9.90034E-01  9.70752E-03
    9106.221    108.106   5.560  1.01203E+00  9.90411E-01  2.16167E-02
    9107.922    109.806   5.600  1.02316E+00  9.90774E-01  3.23839E-02
    9109.635    111.519   5.640  1.03095E+00  9.91077E-01  3.98706E-02
    9111.360    113.245   5.680  1.03285E+00  9.91367E-01  4.14792E-02
    9113.098    114.982   5.720  1.02758E+00  9.91644E-01  3.59360E-02
    9114.847    116.731   5.760  1.01601E+00  9.91857E-01  2.41550E-02
    9116.609    118.493   5.800  1.00081E+00  9.92029E-01  8.78362E-03
    9118.383    120.267   5.840  9.85270E-01  9.92159E-01 -6.88957E-03
    9120.169    122.053   5.880  9.72282E-01  9.92249E-01 -1.99665E-02
    9121.967    123.852   5.920  9.63768E-01  9.92296E-01 -2.85275E-02
    9123.778    125.662   5.960  9.60609E-01  9.92296E-01 -3.16870E-02
    9125.601    127.485   6.000  9.62956E-01  9.92201E-01 -2.92454E-02
