# # comment:                                                     FEFF 9.9.1  
# # Source:
# # Structure
# # Reduced
# # space
# # abc:
# # angles:
# # sites:
# # POT  SCF 100  7.0000   0, screened core-hole, AFOLP (folp(0)= 1.150)
# # Abs   Z=29 Rmt= 1.270 Rnm= 1.355 K  shell
# # Pot 1 Z=29 Rmt= 1.213 Rnm= 1.315
# # Pot 2 Z=47 Rmt= 1.652 Rnm= 1.704
# # Pot 3 Z=33 Rmt= 1.089 Rnm= 1.295
# # Pot 4 Z= 8 Rmt= 0.944 Rnm= 1.081
# # Gam_ch=1.729E+00 H-L exch Vi= 0.000E+00 Vr= 0.000E+00
# # Mu=-5.592E+00eV kf=2.270E+00 Vint=-1.539E+01eV Rs_int= 1.598
# FMS rfms= 9.0000
# # PATH  Rmax=-1.000,  Keep_limit= 0.00, Heap_limit 0.00  Pwcrit= 2.50%
#  S02=0.950  Temp=   0.00  Debye_temp=   0.00  Global_sig2= 0.00000
#  Energy zero shift, vr, vi    0.00000E+00   0.00000E+00
#  Curved wave amplitude ratio filter   4.000%
#     file         sig2 tot  cw amp ratio   deg  nlegs   reff  inp sig2
#     0/   0 paths used
#  xsedge+ 50, used to normalize mu           2.4571E-04
#  -----------------------------------------------------------------------
#  omega    e    k    mu    mu0     chi     @#
    8983.317     -9.402  -1.000  4.66120E-02  5.69653E-02 -1.03533E-02
    8983.616     -9.104  -0.960  4.94909E-02  6.12093E-02 -1.17183E-02
    8983.902     -8.817  -0.920  5.26311E-02  6.59346E-02 -1.33035E-02
    8984.176     -8.543  -0.880  5.60633E-02  7.12131E-02 -1.51498E-02
    8984.438     -8.281  -0.840  5.98221E-02  7.71282E-02 -1.73061E-02
    8984.688     -8.031  -0.800  6.39458E-02  8.37769E-02 -1.98311E-02
    8984.926     -7.793  -0.760  6.84765E-02  9.12706E-02 -2.27941E-02
    8985.152     -7.568  -0.720  7.34593E-02  9.97353E-02 -2.62760E-02
    8985.365     -7.354  -0.680  7.89411E-02  1.09310E-01 -3.03685E-02
    8985.566     -7.153  -0.640  8.49683E-02  1.20140E-01 -3.51721E-02
    8985.755     -6.964  -0.600  9.15831E-02  1.32372E-01 -4.07890E-02
    8985.932     -6.787  -0.560  9.88173E-02  1.46128E-01 -4.73108E-02
    8986.097     -6.623  -0.520  1.06684E-01  1.61483E-01 -5.47988E-02
    8986.249     -6.470  -0.480  1.15165E-01  1.78421E-01 -6.32552E-02
    8986.389     -6.330  -0.440  1.24203E-01  1.96793E-01 -7.25904E-02
    8986.517     -6.202  -0.400  1.33682E-01  2.16278E-01 -8.25962E-02
    8986.633     -6.086  -0.360  1.43428E-01  2.36368E-01 -9.29399E-02
    8986.737     -5.983  -0.320  1.53211E-01  2.56404E-01 -1.03194E-01
    8986.828     -5.891  -0.280  1.62756E-01  2.75656E-01 -1.12900E-01
    8986.907     -5.812  -0.240  1.71771E-01  2.93422E-01 -1.21651E-01
    8986.974     -5.745  -0.200  1.79966E-01  3.09115E-01 -1.29149E-01
    8987.029     -5.690  -0.160  1.87075E-01  3.22310E-01 -1.35235E-01
    8987.072     -5.647  -0.120  1.92870E-01  3.32735E-01 -1.39864E-01
    8987.102     -5.617  -0.080  1.97170E-01  3.40241E-01 -1.43071E-01
    8987.127     -5.592   0.000  2.00764E-01  3.46270E-01 -1.45506E-01
    8987.182     -5.538   0.120  2.08882E-01  3.59841E-01 -1.50959E-01
    8987.224     -5.495   0.160  2.15355E-01  3.70396E-01 -1.55040E-01
    8987.279     -5.440   0.200  2.23929E-01  3.83843E-01 -1.59914E-01
    8987.346     -5.373   0.240  2.34855E-01  4.00008E-01 -1.65153E-01
    8987.426     -5.294   0.280  2.48372E-01  4.18530E-01 -1.70158E-01
    8987.517     -5.202   0.320  2.64774E-01  4.38917E-01 -1.74143E-01
    8987.621     -5.099   0.360  2.84378E-01  4.60538E-01 -1.76159E-01
    8987.736     -4.983   0.400  3.07409E-01  4.82742E-01 -1.75333E-01
    8987.864     -4.855   0.440  3.33926E-01  5.04938E-01 -1.71012E-01
    8988.005     -4.715   0.480  3.63473E-01  5.26649E-01 -1.63176E-01
    8988.157     -4.562   0.520  3.94790E-01  5.47583E-01 -1.52793E-01
    8988.322     -4.398   0.560  4.25626E-01  5.67565E-01 -1.41938E-01
    8988.498     -4.221   0.600  4.53183E-01  5.86600E-01 -1.33417E-01
    8988.687     -4.032   0.640  4.74888E-01  6.04714E-01 -1.29826E-01
    8988.889     -3.831   0.680  4.88955E-01  6.22012E-01 -1.33056E-01
    8989.102     -3.617   0.720  4.94064E-01  6.38597E-01 -1.44533E-01
    8989.327     -3.392   0.760  4.90149E-01  6.54570E-01 -1.64421E-01
    8989.565     -3.154   0.800  4.80448E-01  6.70022E-01 -1.89573E-01
    8989.815     -2.904   0.840  4.71092E-01  6.85030E-01 -2.13938E-01
    8990.077     -2.642   0.880  4.67833E-01  6.99676E-01 -2.31843E-01
    8990.352     -2.368   0.920  4.73340E-01  7.13986E-01 -2.40647E-01
    8990.638     -2.081   0.960  4.87033E-01  7.27996E-01 -2.40963E-01
    8990.937     -1.782   1.000  5.06280E-01  7.41726E-01 -2.35445E-01
    8991.248     -1.472   1.040  5.27946E-01  7.55209E-01 -2.27263E-01
    8991.571     -1.148   1.080  5.50004E-01  7.68430E-01 -2.18425E-01
    8991.906     -0.813   1.120  5.71940E-01  7.81385E-01 -2.09445E-01
    8992.254     -0.466   1.160  5.93281E-01  7.94088E-01 -2.00807E-01
    8992.613     -0.106   1.200  6.15086E-01  8.06503E-01 -1.91417E-01
    8992.985      0.266   1.240  6.41785E-01  8.18618E-01 -1.76833E-01
    8993.369      0.650   1.280  6.77480E-01  8.30432E-01 -1.52952E-01
    8993.765      1.046   1.320  7.22308E-01  8.41926E-01 -1.19618E-01
    8994.174      1.454   1.360  7.71597E-01  8.53058E-01 -8.14600E-02
    8994.594      1.875   1.400  8.19186E-01  8.63845E-01 -4.46585E-02
    8995.027      2.308   1.440  8.68979E-01  8.74264E-01 -5.28567E-03
    8995.472      2.753   1.480  9.27542E-01  8.84274E-01  4.32681E-02
    8995.929      3.210   1.520  9.82880E-01  8.93911E-01  8.89693E-02
    8996.399      3.680   1.560  1.02660E+00  9.03112E-01  1.23485E-01
    8996.880      4.161   1.600  1.07259E+00  9.11895E-01  1.60690E-01
    8997.374      4.655   1.640  1.13462E+00  9.20239E-01  2.14383E-01
    8997.880      5.161   1.680  1.20756E+00  9.28166E-01  2.79398E-01
    8998.398      5.679   1.720  1.27104E+00  9.35654E-01  3.35389E-01
    8998.929      6.209   1.760  1.31022E+00  9.42685E-01  3.67539E-01
    8999.471      6.752   1.800  1.31902E+00  9.49301E-01  3.69715E-01
    9000.026      7.307   1.840  1.30085E+00  9.55486E-01  3.45361E-01
    9000.593      7.874   1.880  1.27629E+00  9.61224E-01  3.15067E-01
    9001.172      8.453   1.920  1.26186E+00  9.66559E-01  2.95299E-01
    9001.763      9.044   1.960  1.25959E+00  9.71476E-01  2.88110E-01
    9002.367      9.647   2.000  1.25870E+00  9.76002E-01  2.82695E-01
    9002.982     10.263   2.040  1.24006E+00  9.80124E-01  2.59937E-01
    9003.610     10.891   2.080  1.20242E+00  9.83889E-01  2.18531E-01
    9004.250     11.531   2.120  1.15864E+00  9.87284E-01  1.71353E-01
    9004.903     12.183   2.160  1.11436E+00  9.90337E-01  1.24024E-01
    9005.567     12.848   2.200  1.06917E+00  9.93057E-01  7.61138E-02
    9006.244     13.525   2.240  1.02769E+00  9.95453E-01  3.22406E-02
    9006.933     14.213   2.280  1.00017E+00  9.97551E-01  2.61579E-03
    9007.634     14.914   2.320  9.93190E-01  9.99384E-01 -6.19458E-03
    9008.347     15.628   2.360  1.00612E+00  1.00094E+00  5.17870E-03
    9009.072     16.353   2.400  1.03335E+00  1.00227E+00  3.10805E-02
    9009.810     17.091   2.440  1.06661E+00  1.00336E+00  6.32573E-02
    9010.560     17.840   2.480  1.09408E+00  1.00423E+00  8.98463E-02
    9011.322     18.602   2.520  1.10747E+00  1.00490E+00  1.02562E-01
    9012.096     19.377   2.560  1.11154E+00  1.00540E+00  1.06141E-01
    9012.882     20.163   2.600  1.11223E+00  1.00573E+00  1.06503E-01
    9013.681     20.962   2.640  1.10214E+00  1.00590E+00  9.62365E-02
    9014.492     21.772   2.680  1.06984E+00  1.00594E+00  6.38943E-02
    9015.315     22.595   2.720  1.03027E+00  1.00588E+00  2.43849E-02
    9016.150     23.430   2.760  9.94629E-01  1.00568E+00 -1.10526E-02
    9016.997     24.278   2.800  9.64947E-01  1.00541E+00 -4.04667E-02
    9017.857     25.137   2.840  9.41368E-01  1.00504E+00 -6.36744E-02
    9018.728     26.009   2.880  9.22861E-01  1.00463E+00 -8.17727E-02
    9019.612     26.893   2.920  9.07903E-01  1.00413E+00 -9.62306E-02
    9020.508     27.789   2.960  8.95856E-01  1.00361E+00 -1.07752E-01
    9021.417     28.697   3.000  8.86459E-01  1.00302E+00 -1.16561E-01
    9022.337     29.618   3.040  8.79512E-01  1.00242E+00 -1.22905E-01
    9023.270     30.551   3.080  8.74717E-01  1.00180E+00 -1.27087E-01
    9024.215     31.495   3.120  8.71853E-01  1.00118E+00 -1.29330E-01
    9025.172     32.453   3.160  8.70660E-01  1.00054E+00 -1.29877E-01
    9026.141     33.422   3.200  8.71310E-01  9.99892E-01 -1.28582E-01
    9027.122     34.403   3.240  8.73926E-01  9.99270E-01 -1.25344E-01
    9028.116     35.397   3.280  8.78321E-01  9.98654E-01 -1.20333E-01
    9029.122     36.403   3.320  8.84226E-01  9.98068E-01 -1.13842E-01
    9030.140     37.421   3.360  8.91234E-01  9.97494E-01 -1.06259E-01
    9031.170     38.451   3.400  8.98994E-01  9.96973E-01 -9.79790E-02
    9032.213     39.493   3.440  9.06978E-01  9.96446E-01 -8.94674E-02
    9033.267     40.548   3.480  9.15025E-01  9.95977E-01 -8.09516E-02
    9034.334     41.615   3.520  9.23039E-01  9.95547E-01 -7.25086E-02
    9035.413     42.694   3.560  9.30983E-01  9.95157E-01 -6.41745E-02
    9036.504     43.785   3.600  9.38866E-01  9.94807E-01 -5.59415E-02
    9037.608     44.888   3.640  9.46806E-01  9.94501E-01 -4.76953E-02
    9038.723     46.004   3.680  9.55054E-01  9.94257E-01 -3.92033E-02
    9039.851     47.132   3.720  9.63889E-01  9.94033E-01 -3.01446E-02
    9040.991     48.272   3.760  9.73889E-01  9.93872E-01 -1.99835E-02
    9042.143     49.424   3.800  9.85399E-01  9.93733E-01 -8.33493E-03
    9043.307     50.588   3.840  9.98472E-01  9.93659E-01  4.81254E-03
    9044.484     51.765   3.880  1.01275E+00  9.93648E-01  1.91014E-02
    9045.673     52.953   3.920  1.02765E+00  9.93659E-01  3.39950E-02
    9046.873     54.154   3.960  1.04248E+00  9.93711E-01  4.87732E-02
    9048.087     55.367   4.000  1.05651E+00  9.93823E-01  6.26893E-02
    9049.312     56.593   4.040  1.06898E+00  9.93956E-01  7.50268E-02
    9050.549     57.830   4.080  1.07926E+00  9.94149E-01  8.51132E-02
    9051.799     59.080   4.120  1.08679E+00  9.94360E-01  9.24315E-02
    9053.061     60.342   4.160  1.09153E+00  9.94629E-01  9.68990E-02
    9054.335     61.616   4.200  1.09367E+00  9.94913E-01  9.87530E-02
    9055.621     62.902   4.240  1.09372E+00  9.95231E-01  9.84907E-02
    9056.920     64.200   4.280  1.09227E+00  9.95562E-01  9.67068E-02
    9058.230     65.511   4.320  1.08971E+00  9.95949E-01  9.37618E-02
    9059.553     66.834   4.360  1.08598E+00  9.96345E-01  8.96393E-02
    9060.888     68.169   4.400  1.08087E+00  9.96749E-01  8.41206E-02
    9062.235     69.516   4.440  1.07432E+00  9.97182E-01  7.71343E-02
    9063.595     70.875   4.480  1.06644E+00  9.97622E-01  6.88148E-02
    9064.966     72.247   4.520  1.05759E+00  9.98088E-01  5.95062E-02
    9066.350     73.631   4.560  1.04815E+00  9.98556E-01  4.95915E-02
    9067.746     75.027   4.600  1.03834E+00  9.99005E-01  3.93372E-02
    9069.154     76.435   4.640  1.02835E+00  9.99474E-01  2.88793E-02
    9070.575     77.855   4.680  1.01830E+00  9.99943E-01  1.83571E-02
    9072.007     79.288   4.720  1.00840E+00  1.00041E+00  7.99228E-03
    9073.452     80.733   4.760  9.99000E-01  1.00087E+00 -1.87445E-03
    9074.909     82.190   4.800  9.90435E-01  1.00131E+00 -1.08759E-02
    9076.378     83.659   4.840  9.82946E-01  1.00174E+00 -1.87938E-02
    9077.859     85.140   4.880  9.76594E-01  1.00216E+00 -2.55704E-02
    9079.353     86.634   4.920  9.71356E-01  1.00258E+00 -3.12234E-02
    9080.859     88.139   4.960  9.67190E-01  1.00296E+00 -3.57723E-02
    9082.376     89.657   5.000  9.64052E-01  1.00331E+00 -3.92595E-02
    9083.906     91.187   5.040  9.61762E-01  1.00365E+00 -4.18861E-02
    9085.449     92.730   5.080  9.59918E-01  1.00395E+00 -4.40319E-02
    9087.003     94.284   5.120  9.58105E-01  1.00422E+00 -4.61099E-02
    9088.570     95.851   5.160  9.56056E-01  1.00447E+00 -4.84109E-02
    9090.149     97.430   5.200  9.53813E-01  1.00468E+00 -5.08693E-02
    9091.740     99.021   5.240  9.51793E-01  1.00486E+00 -5.30666E-02
    9093.343    100.624   5.280  9.50645E-01  1.00500E+00 -5.43518E-02
    9094.958    102.239   5.320  9.50943E-01  1.00512E+00 -5.41775E-02
    9096.586    103.867   5.360  9.52871E-01  1.00518E+00 -5.23116E-02
    9098.226    105.507   5.400  9.56364E-01  1.00523E+00 -4.88627E-02
    9099.878    107.159   5.440  9.61137E-01  1.00523E+00 -4.40933E-02
    9101.542    108.823   5.480  9.66868E-01  1.00517E+00 -3.83028E-02
    9103.219    110.499   5.520  9.73284E-01  1.00510E+00 -3.18114E-02
    9104.907    112.188   5.560  9.79949E-01  1.00498E+00 -2.50316E-02
    9106.608    113.889   5.600  9.86389E-01  1.00483E+00 -1.84381E-02
    9108.321    115.602   5.640  9.92147E-01  1.00464E+00 -1.24897E-02
    9110.046    117.327   5.680  9.96909E-01  1.00443E+00 -7.52113E-03
    9111.783    119.064   5.720  1.00041E+00  1.00416E+00 -3.74769E-03
    9113.533    120.814   5.760  1.00251E+00  1.00385E+00 -1.33790E-03
    9115.295    122.575   5.800  1.00305E+00  1.00353E+00 -4.81516E-04
    9117.069    124.349   5.840  1.00194E+00  1.00318E+00 -1.23866E-03
    9118.855    126.135   5.880  9.99490E-01  1.00279E+00 -3.30449E-03
    9120.653    127.934   5.920  9.96460E-01  1.00240E+00 -5.94156E-03
    9122.464    129.744   5.960  9.93817E-01  1.00195E+00 -8.13545E-03
    9124.286    131.567   6.000  9.92714E-01  1.00147E+00 -8.76095E-03
