# # comment:                                                     FEFF 9.9.1  
# # Source:
# # Structure
# # Reduced
# # space
# # abc:
# # angles:
# # sites:
# # POT  SCF 100  7.0000   0, screened core-hole, AFOLP (folp(0)= 1.150)
# # Abs   Z=29 Rmt= 1.152 Rnm= 1.244 K  shell
# # Pot 1 Z= 3 Rmt= 1.148 Rnm= 1.208
# # Pot 2 Z=57 Rmt= 1.757 Rnm= 1.832
# # Pot 3 Z=29 Rmt= 1.165 Rnm= 1.252
# # Pot 4 Z= 8 Rmt= 1.052 Rnm= 1.099
# # Gam_ch=1.729E+00 H-L exch Vi= 0.000E+00 Vr= 0.000E+00
# # Mu=-8.732E+00eV kf=2.026E+00 Vint=-1.954E+01eV Rs_int= 1.790
# FMS rfms= 9.0000
# # PATH  Rmax=-1.000,  Keep_limit= 0.00, Heap_limit 0.00  Pwcrit= 2.50%
#  S02=0.950  Temp=   0.00  Debye_temp=   0.00  Global_sig2= 0.00000
#  Energy zero shift, vr, vi    0.00000E+00   0.00000E+00
#  Curved wave amplitude ratio filter   4.000%
#     file         sig2 tot  cw amp ratio   deg  nlegs   reff  inp sig2
#     0/   0 paths used
#  xsedge+ 50, used to normalize mu           2.4650E-04
#  -----------------------------------------------------------------------
#  omega    e    k    mu    mu0     chi     @#
    8985.453    -12.542  -1.000  3.79887E-02  5.59705E-02 -1.79818E-02
    8985.752    -12.243  -0.960  3.99558E-02  6.01300E-02 -2.01742E-02
    8986.038    -11.956  -0.920  4.20782E-02  6.47618E-02 -2.26836E-02
    8986.312    -11.682  -0.880  4.43757E-02  6.99365E-02 -2.55608E-02
    8986.575    -11.420  -0.840  4.68716E-02  7.57363E-02 -2.88647E-02
    8986.825    -11.170  -0.800  4.95930E-02  8.22566E-02 -3.26637E-02
    8987.062    -10.932  -0.760  5.25715E-02  8.96072E-02 -3.70357E-02
    8987.288    -10.707  -0.720  5.58432E-02  9.79121E-02 -4.20689E-02
    8987.501    -10.493  -0.680  5.94483E-02  1.07308E-01 -4.78597E-02
    8987.702    -10.292  -0.640  6.34297E-02  1.17940E-01 -5.45102E-02
    8987.891    -10.103  -0.600  6.78297E-02  1.29950E-01 -6.21204E-02
    8988.068     -9.927  -0.560  7.26837E-02  1.43460E-01 -7.07768E-02
    8988.233     -9.762  -0.520  7.80113E-02  1.58544E-01 -8.05330E-02
    8988.385     -9.610  -0.480  8.38030E-02  1.75187E-01 -9.13844E-02
    8988.525     -9.469  -0.440  9.00043E-02  1.93243E-01 -1.03238E-01
    8988.653     -9.341  -0.400  9.65037E-02  2.12393E-01 -1.15890E-01
    8988.769     -9.225  -0.360  1.03128E-01  2.32140E-01 -1.29011E-01
    8988.873     -9.122  -0.320  1.09657E-01  2.51833E-01 -1.42175E-01
    8988.964     -9.030  -0.280  1.15849E-01  2.70752E-01 -1.54903E-01
    8989.043     -8.951  -0.240  1.21483E-01  2.88209E-01 -1.66726E-01
    8989.111     -8.884  -0.200  1.26384E-01  3.03626E-01 -1.77242E-01
    8989.165     -8.829  -0.160  1.30441E-01  3.16584E-01 -1.86144E-01
    8989.208     -8.787  -0.120  1.33600E-01  3.26820E-01 -1.93220E-01
    8989.239     -8.756  -0.080  1.35848E-01  3.34189E-01 -1.98341E-01
    8989.263     -8.732   0.000  1.37629E-01  3.40106E-01 -2.02477E-01
    8989.318     -8.677   0.120  1.41554E-01  3.53448E-01 -2.11894E-01
    8989.360     -8.634   0.160  1.44524E-01  3.63794E-01 -2.19270E-01
    8989.415     -8.579   0.200  1.48214E-01  3.76984E-01 -2.28771E-01
    8989.482     -8.512   0.240  1.52503E-01  3.92820E-01 -2.40317E-01
    8989.562     -8.433   0.280  1.57202E-01  4.10963E-01 -2.53761E-01
    8989.653     -8.342   0.320  1.62078E-01  4.30900E-01 -2.68822E-01
    8989.757     -8.238   0.360  1.66973E-01  4.52019E-01 -2.85047E-01
    8989.872     -8.122   0.400  1.71797E-01  4.73678E-01 -3.01880E-01
    8990.001     -7.994   0.440  1.76635E-01  4.95287E-01 -3.18652E-01
    8990.141     -7.854   0.480  1.81753E-01  5.16372E-01 -3.34619E-01
    8990.293     -7.701   0.520  1.87421E-01  5.36625E-01 -3.49204E-01
    8990.458     -7.537   0.560  1.93887E-01  5.55933E-01 -3.62046E-01
    8990.634     -7.360   0.600  2.01162E-01  5.74245E-01 -3.73083E-01
    8990.823     -7.171   0.640  2.09245E-01  5.91646E-01 -3.82401E-01
    8991.025     -6.970   0.680  2.18417E-01  6.08206E-01 -3.89789E-01
    8991.238     -6.757   0.720  2.29379E-01  6.24031E-01 -3.94651E-01
    8991.464     -6.531   0.760  2.43063E-01  6.39262E-01 -3.96199E-01
    8991.701     -6.293   0.800  2.60062E-01  6.53974E-01 -3.93912E-01
    8991.951     -6.043   0.840  2.79839E-01  6.68269E-01 -3.88430E-01
    8992.213     -5.781   0.880  2.99927E-01  6.82192E-01 -3.82265E-01
    8992.488     -5.507   0.920  3.17031E-01  6.95832E-01 -3.78801E-01
    8992.774     -5.220   0.960  3.30298E-01  7.09208E-01 -3.78910E-01
    8993.073     -4.922   1.000  3.42507E-01  7.22367E-01 -3.79860E-01
    8993.384     -4.611   1.040  3.56924E-01  7.35303E-01 -3.78378E-01
    8993.707     -4.288   1.080  3.75214E-01  7.48043E-01 -3.72829E-01
    8994.042     -3.952   1.120  3.98772E-01  7.60569E-01 -3.61797E-01
    8994.390     -3.605   1.160  4.30756E-01  7.72916E-01 -3.42160E-01
    8994.749     -3.245   1.200  4.76126E-01  7.85053E-01 -3.08926E-01
    8995.121     -2.873   1.240  5.40376E-01  7.96988E-01 -2.56612E-01
    8995.505     -2.489   1.280  6.28571E-01  8.08682E-01 -1.80111E-01
    8995.901     -2.093   1.320  7.45734E-01  8.20137E-01 -7.44031E-02
    8996.310     -1.685   1.360  8.96562E-01  8.31333E-01  6.52288E-02
    8996.730     -1.264   1.400  1.07086E+00  8.42247E-01  2.28614E-01
    8997.163     -0.831   1.440  1.20592E+00  8.52876E-01  3.53042E-01
    8997.608     -0.386   1.480  1.21490E+00  8.63197E-01  3.51707E-01
    8998.065      0.071   1.520  1.11435E+00  8.73206E-01  2.41143E-01
    8998.535      0.540   1.560  9.96800E-01  8.82880E-01  1.13920E-01
    8999.016      1.022   1.600  9.19634E-01  8.92216E-01  2.74188E-02
    8999.510      1.516   1.640  9.04195E-01  9.01167E-01  3.02750E-03
    9000.016      2.022   1.680  9.56938E-01  9.09773E-01  4.71649E-02
    9000.534      2.540   1.720  1.06812E+00  9.17991E-01  1.50128E-01
    9001.065      3.070   1.760  1.19512E+00  9.25819E-01  2.69302E-01
    9001.607      3.613   1.800  1.27110E+00  9.33277E-01  3.37827E-01
    9002.162      4.167   1.840  1.27129E+00  9.40324E-01  3.30969E-01
    9002.729      4.734   1.880  1.23371E+00  9.46980E-01  2.86728E-01
    9003.308      5.313   1.920  1.19046E+00  9.53247E-01  2.37211E-01
    9003.899      5.905   1.960  1.14552E+00  9.59126E-01  1.86393E-01
    9004.503      6.508   2.000  1.10772E+00  9.64600E-01  1.43116E-01
    9005.119      7.124   2.040  1.09985E+00  9.69714E-01  1.30137E-01
    9005.746      7.752   2.080  1.11798E+00  9.74428E-01  1.43551E-01
    9006.386      8.392   2.120  1.14754E+00  9.78792E-01  1.68750E-01
    9007.039      9.044   2.160  1.17639E+00  9.82787E-01  1.93601E-01
    9007.703      9.709   2.200  1.19233E+00  9.86441E-01  2.05887E-01
    9008.380     10.385   2.240  1.18932E+00  9.89759E-01  1.99561E-01
    9009.069     11.074   2.280  1.16563E+00  9.92747E-01  1.72887E-01
    9009.770     11.775   2.320  1.12368E+00  9.95431E-01  1.28247E-01
    9010.483     12.488   2.360  1.07589E+00  9.97799E-01  7.80871E-02
    9011.208     13.214   2.400  1.04184E+00  9.99878E-01  4.19650E-02
    9011.946     13.951   2.440  1.03783E+00  1.00170E+00  3.61377E-02
    9012.696     14.701   2.480  1.05497E+00  1.00326E+00  5.17103E-02
    9013.458     15.463   2.520  1.07379E+00  1.00458E+00  6.92158E-02
    9014.232     16.237   2.560  1.08900E+00  1.00566E+00  8.33429E-02
    9015.018     17.024   2.600  1.09912E+00  1.00653E+00  9.25908E-02
    9015.817     17.822   2.640  1.10383E+00  1.00721E+00  9.66185E-02
    9016.628     18.633   2.680  1.10348E+00  1.00769E+00  9.57886E-02
    9017.451     19.456   2.720  1.09867E+00  1.00799E+00  9.06798E-02
    9018.286     20.291   2.760  1.08975E+00  1.00814E+00  8.16083E-02
    9019.133     21.139   2.800  1.07662E+00  1.00816E+00  6.84577E-02
    9019.993     21.998   2.840  1.05920E+00  1.00803E+00  5.11716E-02
    9020.864     22.870   2.880  1.03811E+00  1.00778E+00  3.03328E-02
    9021.748     23.754   2.920  1.01452E+00  1.00743E+00  7.08923E-03
    9022.644     24.650   2.960  9.89708E-01  1.00699E+00 -1.72837E-02
    9023.553     25.558   3.000  9.65487E-01  1.00647E+00 -4.09844E-02
    9024.473     26.479   3.040  9.43739E-01  1.00587E+00 -6.21320E-02
    9025.406     27.411   3.080  9.25371E-01  1.00520E+00 -7.98241E-02
    9026.351     28.356   3.120  9.10623E-01  1.00447E+00 -9.38502E-02
    9027.308     29.313   3.160  8.99170E-01  1.00373E+00 -1.04559E-01
    9028.277     30.283   3.200  8.90430E-01  1.00293E+00 -1.12495E-01
    9029.259     31.264   3.240  8.84276E-01  1.00211E+00 -1.17832E-01
    9030.252     32.258   3.280  8.80776E-01  1.00128E+00 -1.20504E-01
    9031.258     33.263   3.320  8.79854E-01  1.00043E+00 -1.20572E-01
    9032.276     34.281   3.360  8.81272E-01  9.99569E-01 -1.18298E-01
    9033.306     35.312   3.400  8.84447E-01  9.98735E-01 -1.14288E-01
    9034.349     36.354   3.440  8.88429E-01  9.97904E-01 -1.09474E-01
    9035.403     37.409   3.480  8.92457E-01  9.97079E-01 -1.04622E-01
    9036.470     38.476   3.520  8.96234E-01  9.96282E-01 -1.00048E-01
    9037.549     39.555   3.560  8.99983E-01  9.95496E-01 -9.55127E-02
    9038.640     40.646   3.600  9.04151E-01  9.94743E-01 -9.05922E-02
    9039.744     41.749   3.640  9.09264E-01  9.94028E-01 -8.47639E-02
    9040.859     42.865   3.680  9.15520E-01  9.93351E-01 -7.78314E-02
    9041.987     43.992   3.720  9.22509E-01  9.92714E-01 -7.02046E-02
    9043.127     45.132   3.760  9.29554E-01  9.92117E-01 -6.25631E-02
    9044.279     46.284   3.800  9.36228E-01  9.91584E-01 -5.53559E-02
    9045.443     47.449   3.840  9.42358E-01  9.91073E-01 -4.87147E-02
    9046.620     48.625   3.880  9.48212E-01  9.90625E-01 -4.24131E-02
    9047.809     49.814   3.920  9.54377E-01  9.90219E-01 -3.58421E-02
    9049.010     51.015   3.960  9.61576E-01  9.89858E-01 -2.82819E-02
    9050.223     52.228   4.000  9.70329E-01  9.89540E-01 -1.92114E-02
    9051.448     53.453   4.040  9.80598E-01  9.89288E-01 -8.68992E-03
    9052.685     54.691   4.080  9.91669E-01  9.89059E-01  2.61003E-03
    9053.935     55.940   4.120  1.00240E+00  9.88918E-01  1.34828E-02
    9055.197     57.202   4.160  1.01154E+00  9.88801E-01  2.27401E-02
    9056.471     58.476   4.200  1.01858E+00  9.88748E-01  2.98269E-02
    9057.757     59.763   4.240  1.02367E+00  9.88740E-01  3.49267E-02
    9059.056     61.061   4.280  1.02741E+00  9.88773E-01  3.86332E-02
    9060.366     62.372   4.320  1.03056E+00  9.88847E-01  4.17094E-02
    9061.689     63.695   4.360  1.03378E+00  9.88965E-01  4.48160E-02
    9063.024     65.030   4.400  1.03729E+00  9.89144E-01  4.81420E-02
    9064.371     66.377   4.440  1.04077E+00  9.89343E-01  5.14296E-02
    9065.731     67.736   4.480  1.04394E+00  9.89602E-01  5.43387E-02
    9067.102     69.108   4.520  1.04676E+00  9.89877E-01  5.68871E-02
    9068.486     70.492   4.560  1.04982E+00  9.90187E-01  5.96294E-02
    9069.882     71.888   4.600  1.05388E+00  9.90532E-01  6.33445E-02
    9071.290     73.296   4.640  1.05942E+00  9.90891E-01  6.85256E-02
    9072.711     74.716   4.680  1.06635E+00  9.91303E-01  7.50428E-02
    9074.143     76.149   4.720  1.07386E+00  9.91705E-01  8.21550E-02
    9075.588     77.593   4.760  1.08077E+00  9.92157E-01  8.86115E-02
    9077.045     79.050   4.800  1.08560E+00  9.92597E-01  9.30019E-02
    9078.514     80.519   4.840  1.08713E+00  9.93085E-01  9.40454E-02
    9079.995     82.001   4.880  1.08435E+00  9.93555E-01  9.07910E-02
    9081.489     83.494   4.920  1.07693E+00  9.94028E-01  8.29053E-02
    9082.995     85.000   4.960  1.06544E+00  9.94524E-01  7.09114E-02
    9084.513     86.518   5.000  1.05105E+00  9.95020E-01  5.60263E-02
    9086.043     88.048   5.040  1.03523E+00  9.95494E-01  3.97365E-02
    9087.585     89.590   5.080  1.01926E+00  9.95985E-01  2.32715E-02
    9089.139     91.145   5.120  1.00405E+00  9.96451E-01  7.59543E-03
    9090.706     92.711   5.160  9.90502E-01  9.96911E-01 -6.40809E-03
    9092.285     94.290   5.200  9.79571E-01  9.97364E-01 -1.77931E-02
    9093.876     95.881   5.240  9.71944E-01  9.97787E-01 -2.58438E-02
    9095.479     97.485   5.280  9.67696E-01  9.98200E-01 -3.05048E-02
    9097.095     99.100   5.320  9.66149E-01  9.98582E-01 -3.24338E-02
    9098.722    100.728   5.360  9.66255E-01  9.98953E-01 -3.26986E-02
    9100.362    102.367   5.400  9.66913E-01  9.99291E-01 -3.23779E-02
    9102.014    104.019   5.440  9.67159E-01  9.99613E-01 -3.24540E-02
    9103.678    105.684   5.480  9.66152E-01  9.99877E-01 -3.37255E-02
    9105.355    107.360   5.520  9.63613E-01  1.00013E+00 -3.65136E-02
    9107.043    109.049   5.560  9.59942E-01  1.00034E+00 -4.03965E-02
    9108.744    110.749   5.600  9.55968E-01  1.00051E+00 -4.45447E-02
    9110.457    112.462   5.640  9.52387E-01  1.00067E+00 -4.82842E-02
    9112.182    114.188   5.680  9.49339E-01  1.00077E+00 -5.14264E-02
    9113.919    115.925   5.720  9.46634E-01  1.00082E+00 -5.41842E-02
    9115.669    117.674   5.760  9.43990E-01  1.00083E+00 -5.68422E-02
    9117.431    119.436   5.800  9.41424E-01  1.00083E+00 -5.94054E-02
    9119.205    121.210   5.840  9.39346E-01  1.00076E+00 -6.14178E-02
    9120.991    122.996   5.880  9.38609E-01  1.00066E+00 -6.20482E-02
    9122.789    124.795   5.920  9.39957E-01  1.00051E+00 -6.05547E-02
    9124.600    126.605   5.960  9.43674E-01  1.00035E+00 -5.66763E-02
    9126.422    128.428   6.000  9.49555E-01  1.00009E+00 -5.05394E-02
