# # comment:                                                     FEFF 9.9.1  
# # Source:
# # Structure
# # Reduced
# # space
# # abc:
# # angles:
# # sites:
# # POT  SCF 100  7.0000   0, screened core-hole, AFOLP (folp(0)= 1.150)
# # Abs   Z=29 Rmt= 1.224 Rnm= 1.292 K  shell
# # Pot 1 Z=56 Rmt= 1.944 Rnm= 1.992
# # Pot 2 Z=60 Rmt= 1.697 Rnm= 1.771
# # Pot 3 Z=29 Rmt= 1.226 Rnm= 1.294
# # Pot 4 Z= 8 Rmt= 1.055 Rnm= 1.110
# # Gam_ch=1.729E+00 H-L exch Vi= 0.000E+00 Vr= 0.000E+00
# # Mu=-8.081E+00eV kf=2.038E+00 Vint=-1.727E+01eV Rs_int= 1.779
# FMS rfms= 9.0000
# # PATH  Rmax=-1.000,  Keep_limit= 0.00, Heap_limit 0.00  Pwcrit= 2.50%
#  S02=0.950  Temp=   0.00  Debye_temp=   0.00  Global_sig2= 0.00000
#  Energy zero shift, vr, vi    0.00000E+00   0.00000E+00
#  Curved wave amplitude ratio filter   4.000%
#     file         sig2 tot  cw amp ratio   deg  nlegs   reff  inp sig2
#     0/   0 paths used
#  xsedge+ 50, used to normalize mu           2.4388E-04
#  -----------------------------------------------------------------------
#  omega    e    k    mu    mu0     chi     @#
    8984.879    -11.891  -1.000  3.78090E-02  5.79997E-02 -2.01907E-02
    8985.177    -11.592  -0.960  3.97107E-02  6.23251E-02 -2.26144E-02
    8985.464    -11.306  -0.920  4.17592E-02  6.71402E-02 -2.53810E-02
    8985.738    -11.031  -0.880  4.39731E-02  7.25178E-02 -2.85447E-02
    8986.000    -10.769  -0.840  4.63743E-02  7.85426E-02 -3.21683E-02
    8986.250    -10.519  -0.800  4.89883E-02  8.53128E-02 -3.63245E-02
    8986.488    -10.281  -0.760  5.18447E-02  9.29413E-02 -4.10966E-02
    8986.714    -10.056  -0.720  5.49773E-02  1.01556E-01 -4.65784E-02
    8986.927     -9.843  -0.680  5.84234E-02  1.11296E-01 -5.28731E-02
    8987.128     -9.641  -0.640  6.22226E-02  1.22312E-01 -6.00897E-02
    8987.317     -9.452  -0.600  6.64137E-02  1.34749E-01 -6.83354E-02
    8987.494     -9.276  -0.560  7.10291E-02  1.48732E-01 -7.77027E-02
    8987.659     -9.111  -0.520  7.60861E-02  1.64335E-01 -8.82490E-02
    8987.811     -8.959  -0.480  8.15748E-02  1.81544E-01 -9.99689E-02
    8987.951     -8.818  -0.440  8.74444E-02  2.00206E-01 -1.12762E-01
    8988.079     -8.690  -0.400  9.35921E-02  2.19996E-01 -1.26404E-01
    8988.195     -8.575  -0.360  9.98599E-02  2.40399E-01 -1.40539E-01
    8988.299     -8.471  -0.320  1.06047E-01  2.60748E-01 -1.54701E-01
    8988.390     -8.379  -0.280  1.11936E-01  2.80302E-01 -1.68366E-01
    8988.469     -8.300  -0.240  1.17325E-01  2.98349E-01 -1.81025E-01
    8988.536     -8.233  -0.200  1.22049E-01  3.14294E-01 -1.92245E-01
    8988.591     -8.178  -0.160  1.25998E-01  3.27702E-01 -2.01705E-01
    8988.634     -8.136  -0.120  1.29103E-01  3.38298E-01 -2.09196E-01
    8988.664     -8.105  -0.080  1.31328E-01  3.45930E-01 -2.14602E-01
    8988.689     -8.081   0.000  1.33096E-01  3.52060E-01 -2.18964E-01
    8988.744     -8.026   0.120  1.37164E-01  3.65861E-01 -2.28697E-01
    8988.786     -7.983   0.160  1.40331E-01  3.76606E-01 -2.36275E-01
    8988.841     -7.928   0.200  1.44334E-01  3.90293E-01 -2.45959E-01
    8988.908     -7.861   0.240  1.49129E-01  4.06749E-01 -2.57620E-01
    8988.987     -7.782   0.280  1.54585E-01  4.25615E-01 -2.71030E-01
    8989.079     -7.691   0.320  1.60581E-01  4.46395E-01 -2.85814E-01
    8989.183     -7.587   0.360  1.66907E-01  4.68478E-01 -3.01572E-01
    8989.298     -7.471   0.400  1.73370E-01  4.91191E-01 -3.17821E-01
    8989.426     -7.343   0.440  1.79724E-01  5.13940E-01 -3.34216E-01
    8989.567     -7.203   0.480  1.85699E-01  5.36223E-01 -3.50524E-01
    8989.719     -7.051   0.520  1.91118E-01  5.57787E-01 -3.66668E-01
    8989.884     -6.886   0.560  1.95852E-01  5.78413E-01 -3.82561E-01
    8990.060     -6.709   0.600  2.00175E-01  5.98128E-01 -3.97953E-01
    8990.249     -6.520   0.640  2.04530E-01  6.16953E-01 -4.12423E-01
    8990.450     -6.319   0.680  2.09533E-01  6.34952E-01 -4.25419E-01
    8990.664     -6.106   0.720  2.15818E-01  6.52267E-01 -4.36450E-01
    8990.889     -5.880   0.760  2.23920E-01  6.68996E-01 -4.45076E-01
    8991.127     -5.642   0.800  2.34244E-01  6.85187E-01 -4.50943E-01
    8991.377     -5.392   0.840  2.46901E-01  7.00954E-01 -4.54053E-01
    8991.639     -5.130   0.880  2.61750E-01  7.16316E-01 -4.54566E-01
    8991.914     -4.856   0.920  2.78680E-01  7.31358E-01 -4.52678E-01
    8992.200     -4.569   0.960  2.97551E-01  7.46069E-01 -4.48517E-01
    8992.499     -4.271   1.000  3.18044E-01  7.60466E-01 -4.42422E-01
    8992.810     -3.960   1.040  3.39251E-01  7.74603E-01 -4.35352E-01
    8993.133     -3.637   1.080  3.59653E-01  7.88416E-01 -4.28764E-01
    8993.468     -3.302   1.120  3.78718E-01  8.01922E-01 -4.23204E-01
    8993.815     -2.954   1.160  3.98066E-01  8.15130E-01 -4.17065E-01
    8994.175     -2.594   1.200  4.21781E-01  8.27983E-01 -4.06203E-01
    8994.547     -2.223   1.240  4.54904E-01  8.40486E-01 -3.85582E-01
    8994.931     -1.838   1.280  5.00560E-01  8.52636E-01 -3.52075E-01
    8995.327     -1.442   1.320  5.58028E-01  8.64370E-01 -3.06343E-01
    8995.736     -1.034   1.360  6.24802E-01  8.75709E-01 -2.50908E-01
    8996.156     -0.613   1.400  7.04202E-01  8.86628E-01 -1.82425E-01
    8996.589     -0.180   1.440  8.06868E-01  8.97081E-01 -9.02125E-02
    8997.034      0.265   1.480  9.36427E-01  9.07088E-01  2.93393E-02
    8997.491      0.722   1.520  1.07860E+00  9.16625E-01  1.61970E-01
    8997.961      1.191   1.560  1.20153E+00  9.25672E-01  2.75857E-01
    8998.442      1.673   1.600  1.28853E+00  9.34225E-01  3.54308E-01
    8998.936      2.167   1.640  1.37489E+00  9.42285E-01  4.32607E-01
    8999.442      2.673   1.680  1.49259E+00  9.49856E-01  5.42732E-01
    8999.960      3.191   1.720  1.60429E+00  9.56937E-01  6.47356E-01
    9000.491      3.721   1.760  1.62362E+00  9.63532E-01  6.60084E-01
    9001.033      4.264   1.800  1.53958E+00  9.69626E-01  5.69952E-01
    9001.588      4.818   1.840  1.44332E+00  9.75244E-01  4.68078E-01
    9002.155      5.385   1.880  1.38222E+00  9.80392E-01  4.01829E-01
    9002.734      5.964   1.920  1.33435E+00  9.85097E-01  3.49253E-01
    9003.325      6.556   1.960  1.28004E+00  9.89348E-01  2.90691E-01
    9003.929      7.159   2.000  1.22939E+00  9.93173E-01  2.36220E-01
    9004.544      7.775   2.040  1.20256E+00  9.96601E-01  2.05959E-01
    9005.172      8.403   2.080  1.20249E+00  9.99621E-01  2.02870E-01
    9005.812      9.043   2.120  1.21258E+00  1.00226E+00  2.10315E-01
    9006.465      9.695   2.160  1.21647E+00  1.00456E+00  2.11910E-01
    9007.129     10.360   2.200  1.19389E+00  1.00654E+00  1.87347E-01
    9007.806     11.036   2.240  1.13976E+00  1.00817E+00  1.31589E-01
    9008.495     11.725   2.280  1.08484E+00  1.00953E+00  7.53080E-02
    9009.196     12.426   2.320  1.05618E+00  1.01061E+00  4.55700E-02
    9009.909     13.139   2.360  1.05529E+00  1.01143E+00  4.38667E-02
    9010.634     13.865   2.400  1.06709E+00  1.01202E+00  5.50719E-02
    9011.372     14.602   2.440  1.07933E+00  1.01239E+00  6.69423E-02
    9012.122     15.352   2.480  1.08789E+00  1.01257E+00  7.53289E-02
    9012.884     16.114   2.520  1.08876E+00  1.01257E+00  7.61827E-02
    9013.658     16.888   2.560  1.08034E+00  1.01241E+00  6.79206E-02
    9014.444     17.675   2.600  1.06269E+00  1.01210E+00  5.05888E-02
    9015.243     18.473   2.640  1.03871E+00  1.01168E+00  2.70292E-02
    9016.054     19.284   2.680  1.01186E+00  1.01114E+00  7.16354E-04
    9016.877     20.107   2.720  9.85533E-01  1.01052E+00 -2.49823E-02
    9017.712     20.942   2.760  9.61803E-01  1.00980E+00 -4.79999E-02
    9018.559     21.790   2.800  9.41047E-01  1.00902E+00 -6.79682E-02
    9019.419     22.649   2.840  9.22546E-01  1.00818E+00 -8.56332E-02
    9020.290     23.521   2.880  9.04717E-01  1.00732E+00 -1.02605E-01
    9021.174     24.405   2.920  8.86457E-01  1.00641E+00 -1.19951E-01
    9022.070     25.301   2.960  8.68298E-01  1.00550E+00 -1.37204E-01
    9022.979     26.209   3.000  8.51769E-01  1.00457E+00 -1.52802E-01
    9023.899     27.130   3.040  8.38546E-01  1.00364E+00 -1.65092E-01
    9024.832     28.062   3.080  8.30062E-01  1.00273E+00 -1.72669E-01
    9025.777     29.007   3.120  8.26976E-01  1.00183E+00 -1.74857E-01
    9026.734     29.964   3.160  8.28628E-01  1.00096E+00 -1.72336E-01
    9027.703     30.933   3.200  8.33876E-01  1.00011E+00 -1.66234E-01
    9028.684     31.915   3.240  8.41542E-01  9.99314E-01 -1.57773E-01
    9029.678     32.909   3.280  8.50428E-01  9.98559E-01 -1.48132E-01
    9030.684     33.914   3.320  8.59720E-01  9.97826E-01 -1.38106E-01
    9031.702     34.932   3.360  8.69251E-01  9.97180E-01 -1.27929E-01
    9032.732     35.963   3.400  8.79363E-01  9.96559E-01 -1.17195E-01
    9033.775     37.005   3.440  8.90711E-01  9.96006E-01 -1.05295E-01
    9034.829     38.060   3.480  9.04020E-01  9.95505E-01 -9.14845E-02
    9035.896     39.126   3.520  9.19749E-01  9.95095E-01 -7.53462E-02
    9036.975     40.205   3.560  9.37763E-01  9.94716E-01 -5.69530E-02
    9038.066     41.297   3.600  9.57762E-01  9.94409E-01 -3.66476E-02
    9039.170     42.400   3.640  9.79085E-01  9.94176E-01 -1.50907E-02
    9040.285     43.516   3.680  1.00084E+00  9.94018E-01  6.82111E-03
    9041.413     44.643   3.720  1.02205E+00  9.93913E-01  2.81355E-02
    9042.553     45.783   3.760  1.04200E+00  9.93881E-01  4.81139E-02
    9043.705     46.935   3.800  1.05972E+00  9.93921E-01  6.58013E-02
    9044.869     48.100   3.840  1.07384E+00  9.94013E-01  7.98269E-02
    9046.046     49.276   3.880  1.08310E+00  9.94155E-01  8.89488E-02
    9047.234     50.465   3.920  1.08684E+00  9.94388E-01  9.24517E-02
    9048.435     51.666   3.960  1.08524E+00  9.94649E-01  9.05909E-02
    9049.648     52.879   4.000  1.07965E+00  9.94980E-01  8.46672E-02
    9050.874     54.104   4.040  1.07190E+00  9.95379E-01  7.65165E-02
    9052.111     55.342   4.080  1.06369E+00  9.95800E-01  6.78928E-02
    9053.361     56.591   4.120  1.05630E+00  9.96286E-01  6.00158E-02
    9054.623     57.853   4.160  1.05038E+00  9.96816E-01  5.35629E-02
    9055.897     59.127   4.200  1.04603E+00  9.97386E-01  4.86463E-02
    9057.183     60.414   4.240  1.04334E+00  9.97994E-01  4.53468E-02
    9058.482     61.712   4.280  1.04267E+00  9.98638E-01  4.40292E-02
    9059.792     63.023   4.320  1.04441E+00  9.99297E-01  4.51085E-02
    9061.115     64.346   4.360  1.04844E+00  9.99987E-01  4.84492E-02
    9062.450     65.681   4.400  1.05383E+00  1.00071E+00  5.31173E-02
    9063.797     67.028   4.440  1.05920E+00  1.00144E+00  5.77558E-02
    9065.157     68.387   4.480  1.06330E+00  1.00220E+00  6.10956E-02
    9066.528     69.759   4.520  1.06542E+00  1.00297E+00  6.24509E-02
    9067.912     71.143   4.560  1.06547E+00  1.00374E+00  6.17283E-02
    9069.308     72.538   4.600  1.06346E+00  1.00450E+00  5.89605E-02
    9070.716     73.947   4.640  1.05925E+00  1.00527E+00  5.39845E-02
    9072.137     75.367   4.680  1.05264E+00  1.00603E+00  4.66065E-02
    9073.569     76.800   4.720  1.04377E+00  1.00679E+00  3.69800E-02
    9075.014     78.244   4.760  1.03331E+00  1.00751E+00  2.57938E-02
    9076.471     79.701   4.800  1.02226E+00  1.00823E+00  1.40341E-02
    9077.940     81.170   4.840  1.01150E+00  1.00891E+00  2.58886E-03
    9079.421     82.652   4.880  1.00169E+00  1.00958E+00 -7.89404E-03
    9080.915     84.145   4.920  9.93104E-01  1.01022E+00 -1.71193E-02
    9082.420     85.651   4.960  9.85616E-01  1.01085E+00 -2.52295E-02
    9083.938     87.169   5.000  9.78768E-01  1.01141E+00 -3.26390E-02
    9085.468     88.699   5.040  9.72291E-01  1.01195E+00 -3.96579E-02
    9087.011     90.241   5.080  9.66339E-01  1.01243E+00 -4.60887E-02
    9088.565     91.796   5.120  9.61681E-01  1.01289E+00 -5.12055E-02
    9090.132     93.362   5.160  9.59130E-01  1.01328E+00 -5.41500E-02
    9091.711     94.941   5.200  9.59179E-01  1.01365E+00 -5.44730E-02
    9093.302     96.532   5.240  9.61317E-01  1.01396E+00 -5.26408E-02
    9094.905     98.135   5.280  9.64247E-01  1.01422E+00 -4.99708E-02
    9096.520     99.751   5.320  9.66451E-01  1.01443E+00 -4.79781E-02
    9098.148    101.379   5.360  9.67120E-01  1.01457E+00 -4.74512E-02
    9099.788    103.018   5.400  9.66691E-01  1.01467E+00 -4.79760E-02
    9101.440    104.670   5.440  9.66503E-01  1.01472E+00 -4.82128E-02
    9103.104    106.335   5.480  9.67791E-01  1.01470E+00 -4.69047E-02
    9104.780    108.011   5.520  9.71059E-01  1.01465E+00 -4.35939E-02
    9106.469    109.700   5.560  9.75797E-01  1.01454E+00 -3.87434E-02
    9108.170    111.400   5.600  9.80993E-01  1.01436E+00 -3.33661E-02
    9109.883    113.113   5.640  9.85588E-01  1.01415E+00 -2.85657E-02
    9111.608    114.838   5.680  9.88904E-01  1.01388E+00 -2.49790E-02
    9113.345    116.576   5.720  9.91109E-01  1.01357E+00 -2.24591E-02
    9115.095    118.325   5.760  9.93035E-01  1.01321E+00 -2.01758E-02
    9116.857    120.087   5.800  9.95561E-01  1.01281E+00 -1.72501E-02
    9118.631    121.861   5.840  9.99050E-01  1.01235E+00 -1.32991E-02
    9120.417    123.647   5.880  1.00340E+00  1.01187E+00 -8.47792E-03
    9122.215    125.445   5.920  1.00820E+00  1.01137E+00 -3.16159E-03
    9124.025    127.256   5.960  1.01307E+00  1.01083E+00  2.24767E-03
    9125.848    129.079   6.000  1.01764E+00  1.01022E+00  7.42345E-03
