# # comment:                                                     FEFF 9.9.1  
# # Source:
# # Structure
# # Reduced
# # space
# # abc:
# # angles:
# # sites:
# # POT  SCF 100  7.0000   0, screened core-hole, AFOLP (folp(0)= 1.150)
# # Abs   Z=29 Rmt= 1.349 Rnm= 1.410 K  shell
# # Pot 1 Z= 3 Rmt= 1.277 Rnm= 1.335
# # Pot 2 Z=29 Rmt= 1.314 Rnm= 1.387
# # Pot 3 Z=15 Rmt= 0.949 Rnm= 1.158
# # Pot 4 Z= 8 Rmt= 0.913 Rnm= 1.037
# # Gam_ch=1.729E+00 H-L exch Vi= 0.000E+00 Vr= 0.000E+00
# # Mu=-5.877E+00eV kf=2.385E+00 Vint=-1.691E+01eV Rs_int= 1.521
# FMS rfms= 9.0000
# # PATH  Rmax=-1.000,  Keep_limit= 0.00, Heap_limit 0.00  Pwcrit= 2.50%
#  S02=0.950  Temp=   0.00  Debye_temp=   0.00  Global_sig2= 0.00000
#  Energy zero shift, vr, vi    0.00000E+00   0.00000E+00
#  Curved wave amplitude ratio filter   4.000%
#     file         sig2 tot  cw amp ratio   deg  nlegs   reff  inp sig2
#     0/   0 paths used
#  xsedge+ 50, used to normalize mu           2.4660E-04
#  -----------------------------------------------------------------------
#  omega    e    k    mu    mu0     chi     @#
    8983.608     -9.687  -1.000  5.28013E-02  5.62608E-02 -3.45947E-03
    8983.907     -9.388  -0.960  5.63733E-02  6.04268E-02 -4.05342E-03
    8984.193     -9.102  -0.920  6.03122E-02  6.50642E-02 -4.75201E-03
    8984.468     -8.828  -0.880  6.46692E-02  7.02434E-02 -5.57417E-03
    8984.730     -8.565  -0.840  6.95040E-02  7.60463E-02 -6.54229E-03
    8984.980     -8.316  -0.800  7.48852E-02  8.25679E-02 -7.68266E-03
    8985.217     -8.078  -0.760  8.08915E-02  8.99174E-02 -9.02587E-03
    8985.443     -7.852  -0.720  8.76115E-02  9.82185E-02 -1.06069E-02
    8985.656     -7.639  -0.680  9.51423E-02  1.07607E-01 -1.24650E-02
    8985.857     -7.438  -0.640  1.03586E-01  1.18228E-01 -1.46420E-02
    8986.046     -7.249  -0.600  1.13042E-01  1.30222E-01 -1.71802E-02
    8986.223     -7.072  -0.560  1.23594E-01  1.43711E-01 -2.01167E-02
    8986.388     -6.907  -0.520  1.35292E-01  1.58768E-01 -2.34762E-02
    8986.540     -6.755  -0.480  1.48118E-01  1.75378E-01 -2.72598E-02
    8986.680     -6.615  -0.440  1.61962E-01  1.93394E-01 -3.14325E-02
    8986.808     -6.487  -0.400  1.76589E-01  2.12501E-01 -3.59126E-02
    8986.924     -6.371  -0.360  1.91632E-01  2.32201E-01 -4.05687E-02
    8987.028     -6.267  -0.320  2.06617E-01  2.51846E-01 -4.52299E-02
    8987.119     -6.176  -0.280  2.21012E-01  2.70721E-01 -4.97082E-02
    8987.199     -6.097  -0.240  2.34308E-01  2.88135E-01 -5.38268E-02
    8987.266     -6.030  -0.200  2.46072E-01  3.03515E-01 -5.74438E-02
    8987.320     -5.975  -0.160  2.55982E-01  3.16444E-01 -6.04617E-02
    8987.363     -5.932  -0.120  2.63831E-01  3.26657E-01 -6.28264E-02
    8987.394     -5.902  -0.080  2.69493E-01  3.34010E-01 -6.45165E-02
    8987.418     -5.877   0.000  2.74044E-01  3.39914E-01 -6.58699E-02
    8987.473     -5.822   0.120  2.84201E-01  3.53214E-01 -6.90131E-02
    8987.516     -5.780   0.160  2.92157E-01  3.63548E-01 -7.13913E-02
    8987.570     -5.725   0.200  3.02342E-01  3.76717E-01 -7.43758E-02
    8987.637     -5.658   0.240  3.14665E-01  3.92526E-01 -7.78606E-02
    8987.717     -5.578   0.280  3.28945E-01  4.10638E-01 -8.16934E-02
    8987.808     -5.487   0.320  3.44926E-01  4.30563E-01 -8.56374E-02
    8987.912     -5.383   0.360  3.62241E-01  4.51675E-01 -8.94337E-02
    8988.028     -5.268   0.400  3.80573E-01  4.73331E-01 -9.27579E-02
    8988.156     -5.140   0.440  3.99618E-01  4.94969E-01 -9.53517E-02
    8988.296     -4.999   0.480  4.19007E-01  5.16077E-01 -9.70697E-02
    8988.448     -4.847   0.520  4.38411E-01  5.36409E-01 -9.79978E-02
    8988.613     -4.682   0.560  4.57320E-01  5.55812E-01 -9.84924E-02
    8988.790     -4.506   0.600  4.75106E-01  5.74237E-01 -9.91307E-02
    8988.979     -4.317   0.640  4.91301E-01  5.91792E-01 -1.00491E-01
    8989.180     -4.115   0.680  5.05759E-01  6.08522E-01 -1.02763E-01
    8989.393     -3.902   0.720  5.19360E-01  6.24575E-01 -1.05215E-01
    8989.619     -3.677   0.760  5.34135E-01  6.40034E-01 -1.05898E-01
    8989.856     -3.439   0.800  5.52904E-01  6.55034E-01 -1.02129E-01
    8990.106     -3.189   0.840  5.77890E-01  6.69633E-01 -9.17429E-02
    8990.368     -2.927   0.880  6.09031E-01  6.83918E-01 -7.48869E-02
    8990.643     -2.652   0.920  6.42275E-01  6.97920E-01 -5.56448E-02
    8990.929     -2.366   0.960  6.69914E-01  7.11715E-01 -4.18012E-02
    8991.228     -2.067   1.000  6.84702E-01  7.25290E-01 -4.05877E-02
    8991.539     -1.756   1.040  6.86441E-01  7.38719E-01 -5.22788E-02
    8991.862     -1.433   1.080  6.82480E-01  7.51949E-01 -6.94695E-02
    8992.197     -1.098   1.120  6.81901E-01  7.65041E-01 -8.31401E-02
    8992.545     -0.750   1.160  6.90816E-01  7.77927E-01 -8.71116E-02
    8992.904     -0.391   1.200  7.11657E-01  7.90657E-01 -7.90000E-02
    8993.276     -0.019   1.240  7.42892E-01  8.03197E-01 -6.03046E-02
    8993.660      0.365   1.280  7.82047E-01  8.15527E-01 -3.34803E-02
    8994.056      0.761   1.320  8.28345E-01  8.27628E-01  7.16960E-04
    8994.465      1.170   1.360  8.80567E-01  8.39496E-01  4.10710E-02
    8994.886      1.590   1.400  9.36594E-01  8.51086E-01  8.55076E-02
    8995.318      2.023   1.440  9.97232E-01  8.62396E-01  1.34836E-01
    8995.763      2.468   1.480  1.06276E+00  8.73396E-01  1.89364E-01
    8996.221      2.925   1.520  1.12508E+00  8.84082E-01  2.40999E-01
    8996.690      3.395   1.560  1.17777E+00  8.94410E-01  2.83355E-01
    8997.172      3.876   1.600  1.22555E+00  9.04391E-01  3.21156E-01
    8997.665      4.370   1.640  1.27057E+00  9.13979E-01  3.56593E-01
    8998.171      4.876   1.680  1.30871E+00  9.23192E-01  3.85516E-01
    8998.689      5.394   1.720  1.33418E+00  9.32005E-01  4.02180E-01
    8999.220      5.925   1.760  1.33258E+00  9.40391E-01  3.92185E-01
    8999.762      6.467   1.800  1.29105E+00  9.48348E-01  3.42704E-01
    9000.317      7.022   1.840  1.22476E+00  9.55875E-01  2.68888E-01
    9000.884      7.589   1.880  1.16453E+00  9.62992E-01  2.01541E-01
    9001.463      8.168   1.920  1.12984E+00  9.69637E-01  1.60202E-01
    9002.054      8.759   1.960  1.12152E+00  9.75871E-01  1.45652E-01
    9002.658      9.363   2.000  1.12759E+00  9.81655E-01  1.45932E-01
    9003.274      9.978   2.040  1.13039E+00  9.87012E-01  1.43381E-01
    9003.901     10.606   2.080  1.11713E+00  9.91924E-01  1.25204E-01
    9004.542     11.246   2.120  1.08790E+00  9.96437E-01  9.14623E-02
    9005.194     11.899   2.160  1.05379E+00  1.00052E+00  5.32715E-02
    9005.858     12.563   2.200  1.02633E+00  1.00421E+00  2.21279E-02
    9006.535     13.240   2.240  1.01011E+00  1.00751E+00  2.59469E-03
    9007.224     13.929   2.280  1.00212E+00  1.01042E+00 -8.30271E-03
    9007.925     14.630   2.320  9.98693E-01  1.01299E+00 -1.42956E-02
    9008.638     15.343   2.360  9.97892E-01  1.01519E+00 -1.72989E-02
    9009.363     16.068   2.400  9.96330E-01  1.01708E+00 -2.07505E-02
    9010.101     16.806   2.440  9.89328E-01  1.01863E+00 -2.92987E-02
    9010.851     17.556   2.480  9.76527E-01  1.01990E+00 -4.33711E-02
    9011.613     18.318   2.520  9.59993E-01  1.02086E+00 -6.08683E-02
    9012.387     19.092   2.560  9.40614E-01  1.02159E+00 -8.09731E-02
    9013.173     19.878   2.600  9.20230E-01  1.02204E+00 -1.01813E-01
    9013.972     20.677   2.640  9.03213E-01  1.02226E+00 -1.19047E-01
    9014.783     21.488   2.680  8.92466E-01  1.02228E+00 -1.29819E-01
    9015.606     22.311   2.720  8.87291E-01  1.02209E+00 -1.34796E-01
    9016.441     23.146   2.760  8.86317E-01  1.02172E+00 -1.35399E-01
    9017.288     23.993   2.800  8.92887E-01  1.02120E+00 -1.28313E-01
    9018.148     24.853   2.840  9.02048E-01  1.02051E+00 -1.18459E-01
    9019.019     25.724   2.880  9.12305E-01  1.01971E+00 -1.07402E-01
    9019.903     26.608   2.920  9.22421E-01  1.01879E+00 -9.63642E-02
    9020.800     27.504   2.960  9.31765E-01  1.01775E+00 -8.59866E-02
    9021.708     28.413   3.000  9.40451E-01  1.01665E+00 -7.62015E-02
    9022.628     29.333   3.040  9.48806E-01  1.01545E+00 -6.66492E-02
    9023.561     30.266   3.080  9.57353E-01  1.01423E+00 -5.68734E-02
    9024.506     31.211   3.120  9.66462E-01  1.01293E+00 -4.64684E-02
    9025.463     32.168   3.160  9.76089E-01  1.01160E+00 -3.55073E-02
    9026.432     33.137   3.200  9.85724E-01  1.01025E+00 -2.45239E-02
    9027.414     34.119   3.240  9.94620E-01  1.00889E+00 -1.42729E-02
    9028.407     35.112   3.280  1.00185E+00  1.00751E+00 -5.66759E-03
    9029.413     36.118   3.320  1.00659E+00  1.00615E+00  4.37926E-04
    9030.431     37.136   3.360  1.00854E+00  1.00480E+00  3.74122E-03
    9031.461     38.166   3.400  1.00812E+00  1.00346E+00  4.65880E-03
    9032.504     39.209   3.440  1.00631E+00  1.00217E+00  4.14079E-03
    9033.558     40.263   3.480  1.00429E+00  1.00090E+00  3.39009E-03
    9034.625     41.330   3.520  1.00315E+00  9.99688E-01  3.45745E-03
    9035.704     42.409   3.560  1.00346E+00  9.98502E-01  4.95391E-03
    9036.795     43.500   3.600  1.00541E+00  9.97402E-01  8.01148E-03
    9037.899     44.604   3.640  1.00883E+00  9.96329E-01  1.24997E-02
    9039.014     45.719   3.680  1.01358E+00  9.95328E-01  1.82497E-02
    9040.142     46.847   3.720  1.01956E+00  9.94399E-01  2.51647E-02
    9041.282     47.987   3.760  1.02670E+00  9.93524E-01  3.31809E-02
    9042.434     49.139   3.800  1.03484E+00  9.92745E-01  4.20986E-02
    9043.598     50.303   3.840  1.04343E+00  9.92022E-01  5.14091E-02
    9044.775     51.480   3.880  1.05176E+00  9.91375E-01  6.03869E-02
    9045.964     52.669   3.920  1.05906E+00  9.90804E-01  6.82557E-02
    9047.165     53.869   3.960  1.06461E+00  9.90289E-01  7.43187E-02
    9048.378     55.083   4.000  1.06787E+00  9.89874E-01  7.79962E-02
    9049.603     56.308   4.040  1.06850E+00  9.89516E-01  7.89879E-02
    9050.840     57.545   4.080  1.06645E+00  9.89258E-01  7.71893E-02
    9052.090     58.795   4.120  1.06181E+00  9.89056E-01  7.27518E-02
    9053.352     60.057   4.160  1.05498E+00  9.88929E-01  6.60475E-02
    9054.626     61.331   4.200  1.04642E+00  9.88879E-01  5.75427E-02
    9055.912     62.617   4.240  1.03660E+00  9.88904E-01  4.76956E-02
    9057.211     63.916   4.280  1.02601E+00  9.88980E-01  3.70287E-02
    9058.521     65.226   4.320  1.01521E+00  9.89128E-01  2.60773E-02
    9059.844     66.549   4.360  1.00457E+00  9.89325E-01  1.52483E-02
    9061.179     67.884   4.400  9.94403E-01  9.89592E-01  4.81084E-03
    9062.526     69.231   4.440  9.84775E-01  9.89904E-01 -5.12928E-03
    9063.886     70.591   4.480  9.75689E-01  9.90262E-01 -1.45722E-02
    9065.257     71.962   4.520  9.67182E-01  9.90684E-01 -2.35019E-02
    9066.641     73.346   4.560  9.59317E-01  9.91125E-01 -3.18075E-02
    9068.037     74.742   4.600  9.52309E-01  9.91627E-01 -3.93180E-02
    9069.445     76.150   4.640  9.46405E-01  9.92147E-01 -4.57419E-02
    9070.866     77.571   4.680  9.41981E-01  9.92723E-01 -5.07423E-02
    9072.298     79.003   4.720  9.39249E-01  9.93310E-01 -5.40609E-02
    9073.743     80.448   4.760  9.38322E-01  9.93905E-01 -5.55836E-02
    9075.200     81.905   4.800  9.39184E-01  9.94530E-01 -5.53458E-02
    9076.669     83.374   4.840  9.41608E-01  9.95157E-01 -5.35485E-02
    9078.150     84.855   4.880  9.45376E-01  9.95785E-01 -5.04095E-02
    9079.644     86.349   4.920  9.50254E-01  9.96414E-01 -4.61604E-02
    9081.150     87.855   4.960  9.55956E-01  9.97042E-01 -4.10862E-02
    9082.668     89.372   5.000  9.62086E-01  9.97667E-01 -3.55807E-02
    9084.198     90.903   5.040  9.68145E-01  9.98285E-01 -3.01396E-02
    9085.740     92.445   5.080  9.73654E-01  9.98873E-01 -2.52187E-02
    9087.294     93.999   5.120  9.78405E-01  9.99451E-01 -2.10463E-02
    9088.861     95.566   5.160  9.82461E-01  9.99997E-01 -1.75355E-02
    9090.440     97.145   5.200  9.86230E-01  1.00053E+00 -1.42971E-02
    9092.031     98.736   5.240  9.90167E-01  1.00100E+00 -1.08304E-02
    9093.634    100.339   5.280  9.94713E-01  1.00145E+00 -6.73832E-03
    9095.250    101.955   5.320  9.99938E-01  1.00186E+00 -1.92595E-03
    9096.877    103.582   5.360  1.00558E+00  1.00221E+00  3.37195E-03
    9098.517    105.222   5.400  1.01128E+00  1.00254E+00  8.73980E-03
    9100.169    106.874   5.440  1.01659E+00  1.00280E+00  1.37917E-02
    9101.833    108.538   5.480  1.02135E+00  1.00302E+00  1.83318E-02
    9103.510    110.215   5.520  1.02555E+00  1.00319E+00  2.23600E-02
    9105.198    111.903   5.560  1.02924E+00  1.00331E+00  2.59237E-02
    9106.899    113.604   5.600  1.03234E+00  1.00337E+00  2.89702E-02
    9108.612    115.317   5.640  1.03466E+00  1.00337E+00  3.12890E-02
    9110.337    117.042   5.680  1.03594E+00  1.00331E+00  3.26282E-02
    9112.075    118.779   5.720  1.03609E+00  1.00320E+00  3.28864E-02
    9113.824    120.529   5.760  1.03522E+00  1.00305E+00  3.21757E-02
    9115.586    122.291   5.800  1.03348E+00  1.00282E+00  3.06553E-02
    9117.360    124.065   5.840  1.03089E+00  1.00256E+00  2.83374E-02
    9119.146    125.851   5.880  1.02733E+00  1.00225E+00  2.50849E-02
    9120.944    127.649   5.920  1.02272E+00  1.00187E+00  2.08478E-02
    9122.755    129.460   5.960  1.01735E+00  1.00145E+00  1.58982E-02
    9124.577    131.282   6.000  1.01167E+00  1.00095E+00  1.07235E-02
