# # comment:                                                     FEFF 9.9.1  
# # Source:
# # Structure
# # Reduced
# # space
# # abc:
# # angles:
# # sites:
# # POT  SCF 100  7.0000   0, screened core-hole, AFOLP (folp(0)= 1.150)
# # Abs   Z=29 Rmt= 1.234 Rnm= 1.314 K  shell
# # Pot 1 Z=12 Rmt= 1.377 Rnm= 1.452
# # Pot 2 Z=29 Rmt= 1.233 Rnm= 1.313
# # Pot 3 Z= 8 Rmt= 1.011 Rnm= 1.102
# # Gam_ch=1.729E+00 H-L exch Vi= 0.000E+00 Vr= 0.000E+00
# # Mu=-8.676E+00eV kf=2.125E+00 Vint=-1.737E+01eV Rs_int= 1.707
# FMS rfms= 9.0000
# # PATH  Rmax=-1.000,  Keep_limit= 0.00, Heap_limit 0.00  Pwcrit= 2.50%
#  S02=0.950  Temp=   0.00  Debye_temp=   0.00  Global_sig2= 0.00000
#  Energy zero shift, vr, vi    0.00000E+00   0.00000E+00
#  Curved wave amplitude ratio filter   4.000%
#     file         sig2 tot  cw amp ratio   deg  nlegs   reff  inp sig2
#     0/   0 paths used
#  xsedge+ 50, used to normalize mu           2.4584E-04
#  -----------------------------------------------------------------------
#  omega    e    k    mu    mu0     chi     @#
    8984.452    -12.486  -1.000  3.76573E-02  5.46362E-02 -1.69790E-02
    8984.750    -12.187  -0.960  3.94905E-02  5.86149E-02 -1.91243E-02
    8985.037    -11.901  -0.920  4.14363E-02  6.30361E-02 -2.15997E-02
    8985.311    -11.626  -0.880  4.35025E-02  6.79649E-02 -2.44624E-02
    8985.573    -11.364  -0.840  4.56972E-02  7.34772E-02 -2.77800E-02
    8985.823    -11.114  -0.800  4.80293E-02  7.96606E-02 -3.16314E-02
    8986.061    -10.877  -0.760  5.05076E-02  8.66159E-02 -3.61084E-02
    8986.286    -10.651  -0.720  5.31412E-02  9.44569E-02 -4.13157E-02
    8986.500    -10.438  -0.680  5.59389E-02  1.03309E-01 -4.73699E-02
    8986.701    -10.237  -0.640  5.89081E-02  1.13304E-01 -5.43955E-02
    8986.890    -10.048  -0.600  6.20539E-02  1.24571E-01 -6.25175E-02
    8987.067     -9.871  -0.560  6.53767E-02  1.37223E-01 -7.18461E-02
    8987.231     -9.706  -0.520  6.88689E-02  1.51323E-01 -8.24546E-02
    8987.384     -9.554  -0.480  7.25110E-02  1.66859E-01 -9.43478E-02
    8987.524     -9.414  -0.440  7.62667E-02  1.83692E-01 -1.07426E-01
    8987.652     -9.286  -0.400  8.00796E-02  2.01531E-01 -1.21452E-01
    8987.768     -9.170  -0.360  8.38727E-02  2.19916E-01 -1.36043E-01
    8987.871     -9.066  -0.320  8.75541E-02  2.38248E-01 -1.50693E-01
    8987.963     -8.975  -0.280  9.10260E-02  2.55863E-01 -1.64837E-01
    8988.042     -8.895  -0.240  9.41970E-02  2.72124E-01 -1.77927E-01
    8988.109     -8.828  -0.200  9.69903E-02  2.86495E-01 -1.89505E-01
    8988.164     -8.774  -0.160  9.93463E-02  2.98584E-01 -1.99238E-01
    8988.207     -8.731  -0.120  1.01220E-01  3.08141E-01 -2.06921E-01
    8988.237     -8.700  -0.080  1.02580E-01  3.15026E-01 -2.12446E-01
    8988.262     -8.676   0.000  1.03683E-01  3.20557E-01 -2.16875E-01
    8988.316     -8.621   0.120  1.06354E-01  3.33033E-01 -2.26679E-01
    8988.359     -8.578   0.160  1.08421E-01  3.42745E-01 -2.34324E-01
    8988.414     -8.524   0.200  1.11039E-01  3.55118E-01 -2.44078E-01
    8988.481     -8.457   0.240  1.14288E-01  3.70026E-01 -2.55738E-01
    8988.560     -8.377   0.280  1.18151E-01  3.87133E-01 -2.68982E-01
    8988.652     -8.286   0.320  1.22692E-01  4.06029E-01 -2.83338E-01
    8988.755     -8.182   0.360  1.27985E-01  4.26157E-01 -2.98172E-01
    8988.871     -8.066   0.400  1.34158E-01  4.46944E-01 -3.12787E-01
    8988.999     -7.938   0.440  1.41474E-01  4.67869E-01 -3.26395E-01
    8989.139     -7.798   0.480  1.50191E-01  4.88487E-01 -3.38296E-01
    8989.292     -7.646   0.520  1.60797E-01  5.08561E-01 -3.47764E-01
    8989.456     -7.481   0.560  1.73864E-01  5.27951E-01 -3.54087E-01
    8989.633     -7.304   0.600  1.90103E-01  5.46604E-01 -3.56501E-01
    8989.822     -7.115   0.640  2.10517E-01  5.64617E-01 -3.54100E-01
    8990.023     -6.914   0.680  2.36183E-01  5.82002E-01 -3.45819E-01
    8990.237     -6.701   0.720  2.68396E-01  5.98907E-01 -3.30511E-01
    8990.462     -6.475   0.760  3.08081E-01  6.15395E-01 -3.07314E-01
    8990.700     -6.238   0.800  3.55023E-01  6.31520E-01 -2.76498E-01
    8990.950     -5.988   0.840  4.06156E-01  6.47387E-01 -2.41231E-01
    8991.212     -5.726   0.880  4.55063E-01  6.63003E-01 -2.07940E-01
    8991.486     -5.451   0.920  4.96689E-01  6.78421E-01 -1.81732E-01
    8991.773     -5.165   0.960  5.32011E-01  6.93664E-01 -1.61653E-01
    8992.072     -4.866   1.000  5.63934E-01  7.08745E-01 -1.44811E-01
    8992.382     -4.555   1.040  5.90053E-01  7.23627E-01 -1.33574E-01
    8992.705     -4.232   1.080  6.02832E-01  7.38363E-01 -1.35532E-01
    8993.041     -3.897   1.120  5.98041E-01  7.52884E-01 -1.54842E-01
    8993.388     -3.549   1.160  5.83410E-01  7.67193E-01 -1.83784E-01
    8993.748     -3.190   1.200  5.73114E-01  7.81270E-01 -2.08156E-01
    8994.120     -2.818   1.240  5.74172E-01  7.95092E-01 -2.20921E-01
    8994.504     -2.434   1.280  5.81953E-01  8.08616E-01 -2.26662E-01
    8994.900     -2.038   1.320  5.90357E-01  8.21833E-01 -2.31477E-01
    8995.308     -1.629   1.360  6.02046E-01  8.34696E-01 -2.32650E-01
    8995.729     -1.208   1.400  6.23857E-01  8.47197E-01 -2.23340E-01
    8996.162     -0.776   1.440  6.58761E-01  8.59328E-01 -2.00566E-01
    8996.607     -0.331   1.480  7.05522E-01  8.71021E-01 -1.65498E-01
    8997.064      0.127   1.520  7.60898E-01  8.82288E-01 -1.21390E-01
    8997.533      0.596   1.560  8.23295E-01  8.93083E-01 -6.97881E-02
    8998.015      1.078   1.600  8.90033E-01  9.03440E-01 -1.34072E-02
    8998.509      1.571   1.640  9.57913E-01  9.13294E-01  4.46185E-02
    8999.015      2.077   1.680  1.03556E+00  9.22642E-01  1.12915E-01
    8999.533      2.595   1.720  1.13078E+00  9.31503E-01  1.99281E-01
    9000.063      3.126   1.760  1.23084E+00  9.39855E-01  2.90983E-01
    9000.606      3.668   1.800  1.31272E+00  9.47718E-01  3.65004E-01
    9001.161      4.223   1.840  1.37455E+00  9.55053E-01  4.19498E-01
    9001.728      4.790   1.880  1.42399E+00  9.61885E-01  4.62108E-01
    9002.307      5.369   1.920  1.44615E+00  9.68238E-01  4.77908E-01
    9002.898      5.960   1.960  1.43315E+00  9.74093E-01  4.59060E-01
    9003.501      6.564   2.000  1.40118E+00  9.79459E-01  4.21724E-01
    9004.117      7.180   2.040  1.35820E+00  9.84363E-01  3.73838E-01
    9004.745      7.807   2.080  1.29455E+00  9.88831E-01  3.05721E-01
    9005.385      8.448   2.120  1.21452E+00  9.92853E-01  2.21662E-01
    9006.037      9.100   2.160  1.13370E+00  9.96457E-01  1.37240E-01
    9006.702      9.764   2.200  1.06517E+00  9.99652E-01  6.55226E-02
    9007.378     10.441   2.240  1.01961E+00  1.00247E+00  1.71414E-02
    9008.067     11.130   2.280  9.99848E-01  1.00491E+00 -5.06564E-03
    9008.768     11.831   2.320  1.00016E+00  1.00702E+00 -6.86041E-03
    9009.482     12.544   2.360  1.01223E+00  1.00880E+00  3.42913E-03
    9010.207     13.269   2.400  1.02788E+00  1.01029E+00  1.75931E-02
    9010.945     14.007   2.440  1.04232E+00  1.01148E+00  3.08419E-02
    9011.694     14.757   2.480  1.05830E+00  1.01240E+00  4.59021E-02
    9012.456     15.519   2.520  1.07802E+00  1.01309E+00  6.49343E-02
    9013.231     16.293   2.560  1.09196E+00  1.01354E+00  7.84257E-02
    9014.017     17.079   2.600  1.09592E+00  1.01378E+00  8.21338E-02
    9014.816     17.878   2.640  1.09139E+00  1.01385E+00  7.75446E-02
    9015.626     18.689   2.680  1.07832E+00  1.01373E+00  6.45954E-02
    9016.449     19.512   2.720  1.05807E+00  1.01346E+00  4.46089E-02
    9017.284     20.347   2.760  1.03391E+00  1.01305E+00  2.08620E-02
    9018.132     21.194   2.800  1.00821E+00  1.01253E+00 -4.31695E-03
    9018.991     22.054   2.840  9.82659E-01  1.01190E+00 -2.92392E-02
    9019.863     22.926   2.880  9.58727E-01  1.01118E+00 -5.24503E-02
    9020.747     23.809   2.920  9.37319E-01  1.01037E+00 -7.30550E-02
    9021.643     24.706   2.960  9.19094E-01  1.00950E+00 -9.04022E-02
    9022.551     25.614   3.000  9.04490E-01  1.00859E+00 -1.04101E-01
    9023.472     26.534   3.040  8.93240E-01  1.00762E+00 -1.14383E-01
    9024.405     27.467   3.080  8.84975E-01  1.00662E+00 -1.21643E-01
    9025.349     28.412   3.120  8.79418E-01  1.00562E+00 -1.26206E-01
    9026.306     29.369   3.160  8.76147E-01  1.00460E+00 -1.28455E-01
    9027.276     30.338   3.200  8.74969E-01  1.00358E+00 -1.28608E-01
    9028.257     31.320   3.240  8.75724E-01  1.00255E+00 -1.26829E-01
    9029.251     32.313   3.280  8.78143E-01  1.00153E+00 -1.23391E-01
    9030.257     33.319   3.320  8.81859E-01  1.00054E+00 -1.18685E-01
    9031.275     34.337   3.360  8.86629E-01  9.99588E-01 -1.12960E-01
    9032.305     35.367   3.400  8.92359E-01  9.98668E-01 -1.06308E-01
    9033.347     36.410   3.440  8.98975E-01  9.97765E-01 -9.87897E-02
    9034.402     37.464   3.480  9.06760E-01  9.96924E-01 -9.01645E-02
    9035.469     38.531   3.520  9.16128E-01  9.96124E-01 -7.99965E-02
    9036.548     39.610   3.560  9.27352E-01  9.95367E-01 -6.80146E-02
    9037.639     40.701   3.600  9.40115E-01  9.94655E-01 -5.45397E-02
    9038.742     41.805   3.640  9.53710E-01  9.94011E-01 -4.03010E-02
    9039.858     42.920   3.680  9.67067E-01  9.93413E-01 -2.63459E-02
    9040.986     44.048   3.720  9.79146E-01  9.92862E-01 -1.37163E-02
    9042.126     45.188   3.760  9.89414E-01  9.92382E-01 -2.96745E-03
    9043.278     46.340   3.800  9.98002E-01  9.91972E-01  6.02949E-03
    9044.442     47.504   3.840  1.00558E+00  9.91612E-01  1.39693E-02
    9045.619     48.681   3.880  1.01319E+00  9.91300E-01  2.18945E-02
    9046.807     49.870   3.920  1.02168E+00  9.91059E-01  3.06168E-02
    9048.008     51.071   3.960  1.03102E+00  9.90889E-01  4.01363E-02
    9049.221     52.284   4.000  1.04041E+00  9.90766E-01  4.96481E-02
    9050.447     53.509   4.040  1.04871E+00  9.90692E-01  5.80202E-02
    9051.684     54.746   4.080  1.05502E+00  9.90686E-01  6.43353E-02
    9052.934     55.996   4.120  1.05909E+00  9.90728E-01  6.83573E-02
    9054.196     57.258   4.160  1.06142E+00  9.90838E-01  7.05809E-02
    9055.470     58.532   4.200  1.06279E+00  9.90992E-01  7.17937E-02
    9056.756     59.818   4.240  1.06380E+00  9.91189E-01  7.26099E-02
    9058.054     61.117   4.280  1.06465E+00  9.91428E-01  7.32254E-02
    9059.365     62.427   4.320  1.06516E+00  9.91709E-01  7.34495E-02
    9060.688     63.750   4.360  1.06483E+00  9.92052E-01  7.27796E-02
    9062.023     65.085   4.400  1.06314E+00  9.92411E-01  7.07316E-02
    9063.370     66.432   4.440  1.05999E+00  9.92806E-01  6.71792E-02
    9064.729     67.792   4.480  1.05571E+00  9.93236E-01  6.24723E-02
    9066.101     69.163   4.520  1.05098E+00  9.93678E-01  5.72978E-02
    9067.485     70.547   4.560  1.04652E+00  9.94152E-01  5.23646E-02
    9068.881     71.943   4.600  1.04270E+00  9.94658E-01  4.80406E-02
    9070.289     73.351   4.640  1.03937E+00  9.95171E-01  4.41942E-02
    9071.709     74.772   4.680  1.03607E+00  9.95689E-01  4.03827E-02
    9073.142     76.204   4.720  1.03232E+00  9.96235E-01  3.60810E-02
    9074.587     77.649   4.760  1.02758E+00  9.96783E-01  3.07937E-02
    9076.044     79.106   4.800  1.02145E+00  9.97331E-01  2.41165E-02
    9077.513     80.575   4.840  1.01371E+00  9.97879E-01  1.58320E-02
    9078.994     82.056   4.880  1.00452E+00  9.98424E-01  6.09677E-03
    9080.488     83.550   4.920  9.94372E-01  9.98943E-01 -4.57114E-03
    9081.993     85.056   4.960  9.83877E-01  9.99479E-01 -1.56016E-02
    9083.511     86.574   5.000  9.73406E-01  9.99987E-01 -2.65804E-02
    9085.041     88.104   5.040  9.63207E-01  1.00049E+00 -3.72788E-02
    9086.583     89.646   5.080  9.53429E-01  1.00095E+00 -4.75246E-02
    9088.138     91.200   5.120  9.44331E-01  1.00141E+00 -5.70797E-02
    9089.705     92.767   5.160  9.36251E-01  1.00183E+00 -6.55805E-02
    9091.283     94.346   5.200  9.29758E-01  1.00222E+00 -7.24598E-02
    9092.875     95.937   5.240  9.25520E-01  1.00259E+00 -7.70714E-02
    9094.478     97.540   5.280  9.24087E-01  1.00293E+00 -7.88402E-02
    9096.093     99.156   5.320  9.25861E-01  1.00322E+00 -7.73637E-02
    9097.721    100.783   5.360  9.31073E-01  1.00348E+00 -7.24088E-02
    9099.361    102.423   5.400  9.39771E-01  1.00370E+00 -6.39306E-02
    9101.013    104.075   5.440  9.51634E-01  1.00390E+00 -5.22691E-02
    9102.677    105.739   5.480  9.65635E-01  1.00404E+00 -3.84061E-02
    9104.353    107.416   5.520  9.80222E-01  1.00414E+00 -2.39167E-02
    9106.042    109.104   5.560  9.93728E-01  1.00422E+00 -1.04893E-02
    9107.743    110.805   5.600  1.00483E+00  1.00423E+00  5.96332E-04
    9109.456    112.518   5.640  1.01283E+00  1.00420E+00  8.62335E-03
    9111.181    114.243   5.680  1.01752E+00  1.00414E+00  1.33794E-02
    9112.918    115.981   5.720  1.01914E+00  1.00405E+00  1.50922E-02
    9114.668    117.730   5.760  1.01830E+00  1.00390E+00  1.43994E-02
    9116.429    119.492   5.800  1.01605E+00  1.00371E+00  1.23371E-02
    9118.203    121.266   5.840  1.01381E+00  1.00348E+00  1.03288E-02
    9119.989    123.052   5.880  1.01299E+00  1.00321E+00  9.77318E-03
    9121.788    124.850   5.920  1.01419E+00  1.00291E+00  1.12851E-02
    9123.598    126.661   5.960  1.01691E+00  1.00257E+00  1.43440E-02
    9125.421    128.483   6.000  1.01990E+00  1.00216E+00  1.77413E-02
