# # comment:                                                     FEFF 9.9.1  
# # Source:
# # Structure
# # Reduced
# # space
# # abc:
# # angles:
# # sites:
# # POT  SCF 100  7.0000   0, screened core-hole, AFOLP (folp(0)= 1.150)
# # Abs   Z=29 Rmt= 1.332 Rnm= 1.392 K  shell
# # Pot 1 Z= 3 Rmt= 1.274 Rnm= 1.332
# # Pot 2 Z=29 Rmt= 1.332 Rnm= 1.392
# # Pot 3 Z=15 Rmt= 0.945 Rnm= 1.155
# # Pot 4 Z= 8 Rmt= 0.938 Rnm= 1.040
# # Gam_ch=1.729E+00 H-L exch Vi= 0.000E+00 Vr= 0.000E+00
# # Mu=-6.808E+00eV kf=2.360E+00 Vint=-1.769E+01eV Rs_int= 1.537
# FMS rfms= 9.0000
# # PATH  Rmax=-1.000,  Keep_limit= 0.00, Heap_limit 0.00  Pwcrit= 2.50%
#  S02=0.950  Temp=   0.00  Debye_temp=   0.00  Global_sig2= 0.00000
#  Energy zero shift, vr, vi    0.00000E+00   0.00000E+00
#  Curved wave amplitude ratio filter   4.000%
#     file         sig2 tot  cw amp ratio   deg  nlegs   reff  inp sig2
#     0/   0 paths used
#  xsedge+ 50, used to normalize mu           2.4679E-04
#  -----------------------------------------------------------------------
#  omega    e    k    mu    mu0     chi     @#
    8983.801    -10.618  -1.000  4.80686E-02  5.42735E-02 -6.20492E-03
    8984.100    -10.319  -0.960  5.10935E-02  5.82338E-02 -7.14035E-03
    8984.386    -10.032  -0.920  5.44037E-02  6.26378E-02 -8.23418E-03
    8984.661     -9.758  -0.880  5.80360E-02  6.75514E-02 -9.51538E-03
    8984.923     -9.496  -0.840  6.20328E-02  7.30511E-02 -1.10184E-02
    8985.173     -9.246  -0.800  6.64421E-02  7.92260E-02 -1.27839E-02
    8985.411     -9.008  -0.760  7.13185E-02  8.61782E-02 -1.48597E-02
    8985.636     -8.783  -0.720  7.67226E-02  9.40232E-02 -1.73006E-02
    8985.849     -8.569  -0.680  8.27198E-02  1.02888E-01 -2.01685E-02
    8986.051     -8.368  -0.640  8.93780E-02  1.12908E-01 -2.35301E-02
    8986.240     -8.179  -0.600  9.67622E-02  1.24215E-01 -2.74528E-02
    8986.416     -8.002  -0.560  1.04926E-01  1.36922E-01 -3.19964E-02
    8986.581     -7.838  -0.520  1.13896E-01  1.51097E-01 -3.72003E-02
    8986.733     -7.685  -0.480  1.23660E-01  1.66725E-01 -4.30654E-02
    8986.874     -7.545  -0.440  1.34136E-01  1.83670E-01 -4.95337E-02
    8987.002     -7.417  -0.400  1.45163E-01  2.01633E-01 -5.64702E-02
    8987.117     -7.301  -0.360  1.56491E-01  2.20150E-01 -6.36596E-02
    8987.221     -7.198  -0.320  1.67790E-01  2.38614E-01 -7.08241E-02
    8987.312     -7.106  -0.280  1.78690E-01  2.56353E-01 -7.76623E-02
    8987.392     -7.027  -0.240  1.88822E-01  2.72721E-01 -8.38987E-02
    8987.459     -6.960  -0.200  1.97857E-01  2.87178E-01 -8.93216E-02
    8987.514     -6.905  -0.160  2.05534E-01  2.99334E-01 -9.37999E-02
    8987.556     -6.863  -0.120  2.11661E-01  3.08937E-01 -9.72760E-02
    8987.587     -6.832  -0.080  2.16109E-01  3.15852E-01 -9.97427E-02
    8987.611     -6.808   0.000  2.19700E-01  3.21405E-01 -1.01705E-01
    8987.666     -6.753   0.120  2.27939E-01  3.33921E-01 -1.05982E-01
    8987.709     -6.710   0.160  2.34425E-01  3.43650E-01 -1.09226E-01
    8987.764     -6.655   0.200  2.42825E-01  3.56053E-01 -1.13228E-01
    8987.831     -6.588   0.240  2.53114E-01  3.70930E-01 -1.17816E-01
    8987.910     -6.509   0.280  2.65270E-01  3.88008E-01 -1.22738E-01
    8988.001     -6.418   0.320  2.79164E-01  4.06811E-01 -1.27647E-01
    8988.105     -6.314   0.360  2.94584E-01  4.26759E-01 -1.32175E-01
    8988.221     -6.198   0.400  3.11337E-01  4.47277E-01 -1.35940E-01
    8988.349     -6.070   0.440  3.29206E-01  4.67800E-01 -1.38593E-01
    8988.489     -5.930   0.480  3.48033E-01  4.87910E-01 -1.39877E-01
    8988.641     -5.777   0.520  3.67706E-01  5.07322E-01 -1.39615E-01
    8988.806     -5.613   0.560  3.88102E-01  5.25915E-01 -1.37813E-01
    8988.983     -5.436   0.600  4.08794E-01  5.43681E-01 -1.34886E-01
    8989.172     -5.247   0.640  4.28808E-01  5.60661E-01 -1.31852E-01
    8989.373     -5.046   0.680  4.46664E-01  5.76958E-01 -1.30294E-01
    8989.586     -4.833   0.720  4.60956E-01  5.92691E-01 -1.31735E-01
    8989.812     -4.607   0.760  4.71109E-01  6.07935E-01 -1.36826E-01
    8990.050     -4.369   0.800  4.78055E-01  6.22796E-01 -1.44741E-01
    8990.299     -4.119   0.840  4.84647E-01  6.37348E-01 -1.52700E-01
    8990.562     -3.857   0.880  4.95566E-01  6.51671E-01 -1.56105E-01
    8990.836     -3.583   0.920  5.15459E-01  6.65812E-01 -1.50353E-01
    8991.122     -3.296   0.960  5.46133E-01  6.79824E-01 -1.33691E-01
    8991.421     -2.998   1.000  5.84714E-01  6.93707E-01 -1.08993E-01
    8991.732     -2.687   1.040  6.23969E-01  7.07475E-01 -8.35058E-02
    8992.055     -2.364   1.080  6.55384E-01  7.21173E-01 -6.57886E-02
    8992.390     -2.028   1.120  6.74093E-01  7.34758E-01 -6.06657E-02
    8992.738     -1.681   1.160  6.81844E-01  7.48263E-01 -6.64188E-02
    8993.098     -1.321   1.200  6.87476E-01  7.61652E-01 -7.41764E-02
    8993.469     -0.949   1.240  7.03371E-01  7.74910E-01 -7.15389E-02
    8993.853     -0.565   1.280  7.36010E-01  7.88015E-01 -5.20049E-02
    8994.250     -0.169   1.320  7.81565E-01  8.00967E-01 -1.94017E-02
    8994.658      0.239   1.360  8.33330E-01  8.13739E-01  1.95911E-02
    8995.079      0.660   1.400  8.89505E-01  8.26305E-01  6.32000E-02
    8995.512      1.093   1.440  9.48445E-01  8.38619E-01  1.09826E-01
    8995.957      1.538   1.480  1.00498E+00  8.50690E-01  1.54287E-01
    8996.414      1.995   1.520  1.06050E+00  8.62470E-01  1.98026E-01
    8996.883      2.464   1.560  1.12358E+00  8.73930E-01  2.49651E-01
    8997.365      2.946   1.600  1.19149E+00  8.85082E-01  3.06408E-01
    8997.859      3.440   1.640  1.25389E+00  8.95876E-01  3.58013E-01
    8998.364      3.946   1.680  1.30858E+00  9.06283E-01  4.02296E-01
    8998.883      4.464   1.720  1.35450E+00  9.16296E-01  4.38209E-01
    8999.413      4.994   1.760  1.37321E+00  9.25907E-01  4.47307E-01
    8999.956      5.537   1.800  1.33371E+00  9.35092E-01  3.98619E-01
    9000.510      6.091   1.840  1.25282E+00  9.43843E-01  3.08973E-01
    9001.077      6.658   1.880  1.16758E+00  9.52137E-01  2.15446E-01
    9001.656      7.237   1.920  1.10101E+00  9.59992E-01  1.41020E-01
    9002.248      7.829   1.960  1.05989E+00  9.67363E-01  9.25234E-02
    9002.851      8.432   2.000  1.04125E+00  9.74270E-01  6.69778E-02
    9003.467      9.048   2.040  1.03891E+00  9.80713E-01  5.82014E-02
    9004.095      9.676   2.080  1.04449E+00  9.86695E-01  5.77975E-02
    9004.735     10.316   2.120  1.05134E+00  9.92215E-01  5.91280E-02
    9005.387     10.968   2.160  1.05760E+00  9.97278E-01  6.03228E-02
    9006.051     11.633   2.200  1.05990E+00  1.00187E+00  5.80338E-02
    9006.728     12.309   2.240  1.05324E+00  1.00603E+00  4.72124E-02
    9007.417     12.998   2.280  1.04035E+00  1.00976E+00  3.05913E-02
    9008.118     13.699   2.320  1.03001E+00  1.01306E+00  1.69490E-02
    9008.831     14.412   2.360  1.02359E+00  1.01597E+00  7.61321E-03
    9009.557     15.138   2.400  1.01622E+00  1.01848E+00 -2.25899E-03
    9010.294     15.875   2.440  1.00553E+00  1.02062E+00 -1.50832E-02
    9011.044     16.625   2.480  9.93377E-01  1.02239E+00 -2.90087E-02
    9011.806     17.387   2.520  9.84016E-01  1.02382E+00 -3.98033E-02
    9012.580     18.161   2.560  9.79590E-01  1.02493E+00 -4.53359E-02
    9013.367     18.948   2.600  9.78286E-01  1.02574E+00 -4.74499E-02
    9014.165     19.746   2.640  9.77826E-01  1.02626E+00 -4.84325E-02
    9014.976     20.557   2.680  9.76901E-01  1.02650E+00 -4.96016E-02
    9015.799     21.380   2.720  9.70742E-01  1.02650E+00 -5.57564E-02
    9016.634     22.215   2.760  9.53534E-01  1.02628E+00 -7.27431E-02
    9017.481     23.063   2.800  9.33412E-01  1.02583E+00 -9.24148E-02
    9018.341     23.922   2.840  9.18327E-01  1.02520E+00 -1.06871E-01
    9019.213     24.794   2.880  9.09877E-01  1.02440E+00 -1.14523E-01
    9020.097     25.678   2.920  9.07118E-01  1.02344E+00 -1.16325E-01
    9020.993     26.574   2.960  9.07735E-01  1.02236E+00 -1.14621E-01
    9021.901     27.482   3.000  9.10160E-01  1.02114E+00 -1.10984E-01
    9022.822     28.403   3.040  9.13740E-01  1.01982E+00 -1.06080E-01
    9023.754     29.335   3.080  9.18423E-01  1.01843E+00 -1.00007E-01
    9024.699     30.280   3.120  9.24360E-01  1.01694E+00 -9.25807E-02
    9025.656     31.237   3.160  9.31640E-01  1.01542E+00 -8.37826E-02
    9026.625     32.207   3.200  9.39676E-01  1.01384E+00 -7.41622E-02
    9027.607     33.188   3.240  9.48131E-01  1.01222E+00 -6.40855E-02
    9028.601     34.182   3.280  9.56682E-01  1.01059E+00 -5.39040E-02
    9029.606     35.188   3.320  9.64996E-01  1.00895E+00 -4.39533E-02
    9030.624     36.206   3.360  9.72935E-01  1.00731E+00 -3.43790E-02
    9031.655     37.236   3.400  9.80363E-01  1.00571E+00 -2.53433E-02
    9032.697     38.278   3.440  9.86959E-01  1.00411E+00 -1.71515E-02
    9033.752     39.333   3.480  9.92537E-01  1.00255E+00 -1.00123E-02
    9034.818     40.400   3.520  9.97184E-01  1.00103E+00 -3.84359E-03
    9035.897     41.479   3.560  1.00139E+00  9.99571E-01  1.81810E-03
    9036.989     42.570   3.600  1.00586E+00  9.98140E-01  7.71649E-03
    9038.092     43.673   3.640  1.01135E+00  9.96801E-01  1.45494E-02
    9039.207     44.789   3.680  1.01825E+00  9.95513E-01  2.27356E-02
    9040.335     45.916   3.720  1.02662E+00  9.94279E-01  3.23361E-02
    9041.475     47.056   3.760  1.03638E+00  9.93146E-01  4.32340E-02
    9042.627     48.209   3.800  1.04724E+00  9.92093E-01  5.51486E-02
    9043.792     49.373   3.840  1.05858E+00  9.91120E-01  6.74611E-02
    9044.968     50.549   3.880  1.06948E+00  9.90229E-01  7.92555E-02
    9046.157     51.738   3.920  1.07895E+00  9.89421E-01  8.95312E-02
    9047.358     52.939   3.960  1.08608E+00  9.88697E-01  9.73808E-02
    9048.571     54.152   4.000  1.09022E+00  9.88077E-01  1.02143E-01
    9049.796     55.377   4.040  1.09111E+00  9.87521E-01  1.03587E-01
    9051.034     56.615   4.080  1.08881E+00  9.87071E-01  1.01739E-01
    9052.283     57.865   4.120  1.08350E+00  9.86728E-01  9.67734E-02
    9053.545     59.126   4.160  1.07538E+00  9.86449E-01  8.89305E-02
    9054.819     60.400   4.200  1.06487E+00  9.86274E-01  7.85925E-02
    9056.106     61.687   4.240  1.05234E+00  9.86182E-01  6.61617E-02
    9057.404     62.985   4.280  1.03834E+00  9.86170E-01  5.21674E-02
    9058.715     64.296   4.320  1.02349E+00  9.86238E-01  3.72533E-02
    9060.037     65.619   4.360  1.00843E+00  9.86363E-01  2.20648E-02
    9061.372     66.954   4.400  9.93829E-01  9.86587E-01  7.24221E-03
    9062.720     68.301   4.440  9.80278E-01  9.86888E-01 -6.61003E-03
    9064.079     69.660   4.480  9.68199E-01  9.87241E-01 -1.90425E-02
    9065.451     71.032   4.520  9.57869E-01  9.87644E-01 -2.97754E-02
    9066.834     72.416   4.560  9.49445E-01  9.88138E-01 -3.86928E-02
    9068.230     73.812   4.600  9.42764E-01  9.88658E-01 -4.58945E-02
    9069.639     75.220   4.640  9.37602E-01  9.89243E-01 -5.16418E-02
    9071.059     76.640   4.680  9.33647E-01  9.89870E-01 -5.62228E-02
    9072.492     78.073   4.720  9.30579E-01  9.90512E-01 -5.99331E-02
    9073.936     79.517   4.760  9.28325E-01  9.91212E-01 -6.28871E-02
    9075.393     80.974   4.800  9.26960E-01  9.91927E-01 -6.49674E-02
    9076.862     82.444   4.840  9.26795E-01  9.92673E-01 -6.58778E-02
    9078.344     83.925   4.880  9.28211E-01  9.93427E-01 -6.52158E-02
    9079.837     85.418   4.920  9.31637E-01  9.94207E-01 -6.25699E-02
    9081.343     86.924   4.960  9.37266E-01  9.94989E-01 -5.77231E-02
    9082.861     88.442   5.000  9.45075E-01  9.95748E-01 -5.06736E-02
    9084.391     89.972   5.040  9.54777E-01  9.96525E-01 -4.17478E-02
    9085.933     91.514   5.080  9.65740E-01  9.97274E-01 -3.15342E-02
    9087.488     93.069   5.120  9.77318E-01  9.98015E-01 -2.06968E-02
    9089.054     94.635   5.160  9.88907E-01  9.98721E-01 -9.81467E-03
    9090.633     96.214   5.200  1.00005E+00  9.99392E-01  6.53456E-04
    9092.224     97.805   5.240  1.01026E+00  1.00005E+00  1.02149E-02
    9093.827     99.409   5.280  1.01892E+00  1.00067E+00  1.82526E-02
    9095.443    101.024   5.320  1.02533E+00  1.00124E+00  2.40881E-02
    9097.070    102.652   5.360  1.02892E+00  1.00175E+00  2.71685E-02
    9098.710    104.291   5.400  1.02942E+00  1.00222E+00  2.72042E-02
    9100.362    105.943   5.440  1.02685E+00  1.00266E+00  2.41944E-02
    9102.027    107.608   5.480  1.02147E+00  1.00300E+00  1.84625E-02
    9103.703    109.284   5.520  1.01403E+00  1.00330E+00  1.07222E-02
    9105.391    110.973   5.560  1.00561E+00  1.00355E+00  2.05866E-03
    9107.092    112.673   5.600  9.97533E-01  1.00373E+00 -6.19890E-03
    9108.805    114.386   5.640  9.91132E-01  1.00386E+00 -1.27265E-02
    9110.530    116.112   5.680  9.87439E-01  1.00391E+00 -1.64717E-02
    9112.268    117.849   5.720  9.87035E-01  1.00389E+00 -1.68520E-02
    9114.017    119.598   5.760  9.89900E-01  1.00379E+00 -1.38879E-02
    9115.779    121.360   5.800  9.95411E-01  1.00364E+00 -8.22855E-03
    9117.553    123.134   5.840  1.00244E+00  1.00344E+00 -1.00826E-03
    9119.339    124.920   5.880  1.00963E+00  1.00315E+00  6.47686E-03
    9121.137    126.719   5.920  1.01594E+00  1.00281E+00  1.31269E-02
    9122.948    128.529   5.960  1.02066E+00  1.00242E+00  1.82391E-02
    9124.771    130.352   6.000  1.02348E+00  1.00191E+00  2.15701E-02
