# # comment:                                                     FEFF 9.9.1  
# # Source:
# # Structure
# # Reduced
# # space
# # abc:
# # angles:
# # sites:
# # POT  SCF 100  7.0000   0, screened core-hole, AFOLP (folp(0)= 1.150)
# # Abs   Z=29 Rmt= 1.233 Rnm= 1.316 K  shell
# # Pot 1 Z=12 Rmt= 1.387 Rnm= 1.461
# # Pot 2 Z=29 Rmt= 1.244 Rnm= 1.320
# # Pot 3 Z= 8 Rmt= 1.022 Rnm= 1.102
# # Gam_ch=1.729E+00 H-L exch Vi= 0.000E+00 Vr= 0.000E+00
# # Mu=-8.180E+00eV kf=2.138E+00 Vint=-1.668E+01eV Rs_int= 1.696
# FMS rfms= 9.0000
# # PATH  Rmax=-1.000,  Keep_limit= 0.00, Heap_limit 0.00  Pwcrit= 2.50%
#  S02=0.950  Temp=   0.00  Debye_temp=   0.00  Global_sig2= 0.00000
#  Energy zero shift, vr, vi    0.00000E+00   0.00000E+00
#  Curved wave amplitude ratio filter   4.000%
#     file         sig2 tot  cw amp ratio   deg  nlegs   reff  inp sig2
#     0/   0 paths used
#  xsedge+ 50, used to normalize mu           2.4484E-04
#  -----------------------------------------------------------------------
#  omega    e    k    mu    mu0     chi     @#
    8984.264    -11.990  -1.000  3.86904E-02  5.61031E-02 -1.74127E-02
    8984.562    -11.692  -0.960  4.06124E-02  6.02173E-02 -1.96049E-02
    8984.849    -11.405  -0.920  4.26578E-02  6.47908E-02 -2.21330E-02
    8985.123    -11.131  -0.880  4.48362E-02  6.98910E-02 -2.50548E-02
    8985.385    -10.869  -0.840  4.71578E-02  7.55967E-02 -2.84389E-02
    8985.635    -10.619  -0.800  4.96340E-02  8.19990E-02 -3.23651E-02
    8985.873    -10.381  -0.760  5.22764E-02  8.92026E-02 -3.69261E-02
    8986.099    -10.156  -0.720  5.50976E-02  9.73254E-02 -4.22278E-02
    8986.312     -9.942  -0.680  5.81099E-02  1.06497E-01 -4.83876E-02
    8986.513     -9.741  -0.640  6.13248E-02  1.16856E-01 -5.55314E-02
    8986.702     -9.552  -0.600  6.47515E-02  1.28536E-01 -6.37848E-02
    8986.879     -9.375  -0.560  6.83935E-02  1.41653E-01 -7.32592E-02
    8987.044     -9.211  -0.520  7.22450E-02  1.56274E-01 -8.40288E-02
    8987.196     -9.058  -0.480  7.62850E-02  1.72384E-01 -9.60994E-02
    8987.336     -8.918  -0.440  8.04712E-02  1.89843E-01 -1.09372E-01
    8987.464     -8.790  -0.400  8.47356E-02  2.08346E-01 -1.23610E-01
    8987.580     -8.674  -0.360  8.89841E-02  2.27416E-01 -1.38432E-01
    8987.684     -8.571  -0.320  9.31041E-02  2.46433E-01 -1.53328E-01
    8987.775     -8.479  -0.280  9.69783E-02  2.64707E-01 -1.67729E-01
    8987.854     -8.400  -0.240  1.00500E-01  2.81578E-01 -1.81078E-01
    8987.921     -8.333  -0.200  1.03583E-01  2.96488E-01 -1.92905E-01
    8987.976     -8.278  -0.160  1.06167E-01  3.09031E-01 -2.02864E-01
    8988.019     -8.235  -0.120  1.08211E-01  3.18948E-01 -2.10737E-01
    8988.049     -8.205  -0.080  1.09686E-01  3.26092E-01 -2.16406E-01
    8988.074     -8.180   0.000  1.10876E-01  3.31832E-01 -2.20956E-01
    8988.129     -8.126   0.120  1.13736E-01  3.44785E-01 -2.31049E-01
    8988.171     -8.083   0.160  1.15906E-01  3.54846E-01 -2.38939E-01
    8988.226     -8.028   0.200  1.18702E-01  3.67694E-01 -2.48991E-01
    8988.293     -7.961   0.240  1.22094E-01  3.83137E-01 -2.61043E-01
    8988.372     -7.882   0.280  1.26147E-01  4.00911E-01 -2.74764E-01
    8988.464     -7.790   0.320  1.30851E-01  4.20507E-01 -2.89656E-01
    8988.568     -7.687   0.360  1.36335E-01  4.41411E-01 -3.05075E-01
    8988.683     -7.571   0.400  1.42719E-01  4.62988E-01 -3.20269E-01
    8988.811     -7.443   0.440  1.50275E-01  4.84697E-01 -3.34422E-01
    8988.952     -7.303   0.480  1.59360E-01  5.06099E-01 -3.46739E-01
    8989.104     -7.150   0.520  1.70523E-01  5.26926E-01 -3.56403E-01
    8989.269     -6.986   0.560  1.84385E-01  5.47032E-01 -3.62647E-01
    8989.445     -6.809   0.600  2.01770E-01  5.66383E-01 -3.64614E-01
    8989.634     -6.620   0.640  2.23775E-01  5.85037E-01 -3.61262E-01
    8989.835     -6.419   0.680  2.51580E-01  6.03067E-01 -3.51487E-01
    8990.049     -6.205   0.720  2.86378E-01  6.20541E-01 -3.34163E-01
    8990.274     -5.980   0.760  3.28787E-01  6.37547E-01 -3.08759E-01
    8990.512     -5.742   0.800  3.77810E-01  6.54201E-01 -2.76391E-01
    8990.762     -5.492   0.840  4.29361E-01  6.70504E-01 -2.41143E-01
    8991.024     -5.230   0.880  4.77055E-01  6.86568E-01 -2.09513E-01
    8991.299     -4.956   0.920  5.16614E-01  7.02366E-01 -1.85752E-01
    8991.585     -4.669   0.960  5.49083E-01  7.17939E-01 -1.68856E-01
    8991.884     -4.370   1.000  5.76408E-01  7.33280E-01 -1.56872E-01
    8992.195     -4.060   1.040  5.96087E-01  7.48409E-01 -1.52322E-01
    8992.518     -3.736   1.080  6.01876E-01  7.63303E-01 -1.61427E-01
    8992.853     -3.401   1.120  5.92116E-01  7.77949E-01 -1.85833E-01
    8993.200     -3.054   1.160  5.75640E-01  7.92310E-01 -2.16670E-01
    8993.560     -2.694   1.200  5.65871E-01  8.06385E-01 -2.40514E-01
    8993.932     -2.322   1.240  5.69668E-01  8.20132E-01 -2.50464E-01
    8994.316     -1.938   1.280  5.83396E-01  8.33545E-01 -2.50149E-01
    8994.712     -1.542   1.320  5.99828E-01  8.46558E-01 -2.46730E-01
    8995.121     -1.133   1.360  6.18094E-01  8.59183E-01 -2.41089E-01
    8995.541     -0.713   1.400  6.43346E-01  8.71370E-01 -2.28025E-01
    8995.974     -0.280   1.440  6.80168E-01  8.83095E-01 -2.02927E-01
    8996.419      0.165   1.480  7.27848E-01  8.94351E-01 -1.66502E-01
    8996.876      0.622   1.520  7.82901E-01  9.05110E-01 -1.22210E-01
    8997.346      1.092   1.560  8.44668E-01  9.15369E-01 -7.07006E-02
    8997.827      1.573   1.600  9.12588E-01  9.25123E-01 -1.25345E-02
    8998.321      2.067   1.640  9.85727E-01  9.34330E-01  5.13974E-02
    8998.827      2.573   1.680  1.07211E+00  9.43008E-01  1.29101E-01
    8999.345      3.091   1.720  1.17668E+00  9.51138E-01  2.25539E-01
    8999.876      3.621   1.760  1.28385E+00  9.58742E-01  3.25106E-01
    9000.418      4.164   1.800  1.37166E+00  9.65802E-01  4.05856E-01
    9000.973      4.719   1.840  1.44140E+00  9.72341E-01  4.69062E-01
    9001.540      5.286   1.880  1.49635E+00  9.78346E-01  5.18000E-01
    9002.119      5.865   1.920  1.51658E+00  9.83864E-01  5.32715E-01
    9002.710      6.456   1.960  1.49249E+00  9.88861E-01  5.03633E-01
    9003.314      7.060   2.000  1.44103E+00  9.93386E-01  4.47644E-01
    9003.929      7.675   2.040  1.37193E+00  9.97470E-01  3.74456E-01
    9004.557      8.303   2.080  1.28621E+00  1.00108E+00  2.85131E-01
    9005.197      8.943   2.120  1.19747E+00  1.00429E+00  1.93186E-01
    9005.850      9.595   2.160  1.11758E+00  1.00706E+00  1.10520E-01
    9006.514     10.260   2.200  1.05325E+00  1.00948E+00  4.37759E-02
    9007.191     10.937   2.240  1.01069E+00  1.01150E+00 -8.06324E-04
    9007.880     11.625   2.280  9.90612E-01  1.01321E+00 -2.25943E-02
    9008.581     12.326   2.320  9.89105E-01  1.01459E+00 -2.54813E-02
    9009.294     13.040   2.360  1.00011E+00  1.01565E+00 -1.55365E-02
    9010.019     13.765   2.400  1.01667E+00  1.01647E+00  1.97158E-04
    9010.757     14.503   2.440  1.03436E+00  1.01702E+00  1.73439E-02
    9011.507     15.253   2.480  1.05443E+00  1.01732E+00  3.71038E-02
    9012.269     16.015   2.520  1.08028E+00  1.01741E+00  6.28687E-02
    9013.043     16.789   2.560  1.10531E+00  1.01733E+00  8.79863E-02
    9013.829     17.575   2.600  1.11763E+00  1.01705E+00  1.00583E-01
    9014.628     18.374   2.640  1.11586E+00  1.01663E+00  9.92294E-02
    9015.439     19.184   2.680  1.10172E+00  1.01608E+00  8.56394E-02
    9016.262     20.007   2.720  1.07821E+00  1.01540E+00  6.28105E-02
    9017.097     20.843   2.760  1.04922E+00  1.01461E+00  3.46106E-02
    9017.944     21.690   2.800  1.01791E+00  1.01374E+00  4.16863E-03
    9018.804     22.549   2.840  9.86854E-01  1.01278E+00 -2.59293E-02
    9019.675     23.421   2.880  9.58300E-01  1.01180E+00 -5.34979E-02
    9020.559     24.305   2.920  9.33142E-01  1.01075E+00 -7.76045E-02
    9021.455     25.201   2.960  9.11983E-01  1.00965E+00 -9.76711E-02
    9022.364     26.109   3.000  8.94927E-01  1.00855E+00 -1.13622E-01
    9023.284     27.030   3.040  8.81817E-01  1.00742E+00 -1.25599E-01
    9024.217     27.963   3.080  8.72680E-01  1.00630E+00 -1.33622E-01
    9025.162     28.908   3.120  8.67388E-01  1.00517E+00 -1.37780E-01
    9026.119     29.865   3.160  8.65450E-01  1.00406E+00 -1.38611E-01
    9027.088     30.834   3.200  8.66305E-01  1.00299E+00 -1.36680E-01
    9028.069     31.815   3.240  8.69386E-01  1.00195E+00 -1.32560E-01
    9029.063     32.809   3.280  8.74037E-01  1.00092E+00 -1.26885E-01
    9030.069     33.815   3.320  8.79794E-01  9.99957E-01 -1.20164E-01
    9031.087     34.833   3.360  8.86349E-01  9.99016E-01 -1.12666E-01
    9032.117     35.863   3.400  8.93625E-01  9.98139E-01 -1.04513E-01
    9033.160     36.905   3.440  9.01419E-01  9.97330E-01 -9.59117E-02
    9034.214     37.960   3.480  9.09782E-01  9.96550E-01 -8.67682E-02
    9035.281     39.027   3.520  9.19067E-01  9.95860E-01 -7.67928E-02
    9036.360     40.106   3.560  9.29495E-01  9.95222E-01 -6.57271E-02
    9037.451     41.197   3.600  9.41149E-01  9.94636E-01 -5.34868E-02
    9038.555     42.300   3.640  9.53784E-01  9.94144E-01 -4.03608E-02
    9039.670     43.416   3.680  9.66636E-01  9.93706E-01 -2.70697E-02
    9040.798     44.544   3.720  9.78735E-01  9.93322E-01 -1.45863E-02
    9041.938     45.684   3.760  9.89469E-01  9.93032E-01 -3.56306E-03
    9043.090     46.836   3.800  9.98567E-01  9.92796E-01  5.77146E-03
    9044.254     48.000   3.840  1.00640E+00  9.92633E-01  1.37668E-02
    9045.431     49.177   3.880  1.01386E+00  9.92523E-01  2.13385E-02
    9046.619     50.365   3.920  1.02189E+00  9.92485E-01  2.94061E-02
    9047.820     51.566   3.960  1.03081E+00  9.92522E-01  3.82883E-02
    9049.034     52.779   4.000  1.04017E+00  9.92608E-01  4.75598E-02
    9050.259     54.005   4.040  1.04905E+00  9.92764E-01  5.62854E-02
    9051.496     55.242   4.080  1.05655E+00  9.92968E-01  6.35790E-02
    9052.746     56.492   4.120  1.06224E+00  9.93218E-01  6.90181E-02
    9054.008     57.754   4.160  1.06637E+00  9.93536E-01  7.28311E-02
    9055.282     59.028   4.200  1.06931E+00  9.93899E-01  7.54139E-02
    9056.568     60.314   4.240  1.07138E+00  9.94306E-01  7.70721E-02
    9057.867     61.612   4.280  1.07266E+00  9.94775E-01  7.78839E-02
    9059.177     62.923   4.320  1.07293E+00  9.95261E-01  7.76668E-02
    9060.500     64.246   4.360  1.07193E+00  9.95785E-01  7.61410E-02
    9061.835     65.581   4.400  1.06941E+00  9.96346E-01  7.30593E-02
    9063.182     66.928   4.440  1.06534E+00  9.96940E-01  6.84009E-02
    9064.542     68.287   4.480  1.05998E+00  9.97545E-01  6.24316E-02
    9065.913     69.659   4.520  1.05388E+00  9.98180E-01  5.56978E-02
    9067.297     71.043   4.560  1.04766E+00  9.98821E-01  4.88350E-02
    9068.693     72.439   4.600  1.04182E+00  9.99467E-01  4.23553E-02
    9070.101     73.847   4.640  1.03668E+00  1.00014E+00  3.65426E-02
    9071.522     75.267   4.680  1.03231E+00  1.00081E+00  3.14948E-02
    9072.954     76.700   4.720  1.02857E+00  1.00149E+00  2.70824E-02
    9074.399     78.145   4.760  1.02504E+00  1.00213E+00  2.29043E-02
    9075.856     79.602   4.800  1.02114E+00  1.00280E+00  1.83442E-02
    9077.325     81.071   4.840  1.01623E+00  1.00344E+00  1.27882E-02
    9078.806     82.552   4.880  1.00999E+00  1.00407E+00  5.92051E-03
    9080.300     84.046   4.920  1.00247E+00  1.00470E+00 -2.22531E-03
    9081.805     85.551   4.960  9.93886E-01  1.00529E+00 -1.14002E-02
    9083.323     87.069   5.000  9.84595E-01  1.00584E+00 -2.12463E-02
    9084.853     88.599   5.040  9.75017E-01  1.00638E+00 -3.13669E-02
    9086.396     90.142   5.080  9.65513E-01  1.00689E+00 -4.13774E-02
    9087.950     91.696   5.120  9.56410E-01  1.00736E+00 -5.09489E-02
    9089.517     93.263   5.160  9.48115E-01  1.00781E+00 -5.96949E-02
    9091.096     94.842   5.200  9.41224E-01  1.00820E+00 -6.69750E-02
    9092.687     96.433   5.240  9.36511E-01  1.00855E+00 -7.20349E-02
    9094.290     98.036   5.280  9.34584E-01  1.00887E+00 -7.42887E-02
    9095.905     99.651   5.320  9.35691E-01  1.00913E+00 -7.34440E-02
    9097.533    101.279   5.360  9.40038E-01  1.00935E+00 -6.93157E-02
    9099.173    102.919   5.400  9.47755E-01  1.00953E+00 -6.17721E-02
    9100.825    104.571   5.440  9.58706E-01  1.00966E+00 -5.09505E-02
    9102.489    106.235   5.480  9.72111E-01  1.00972E+00 -3.76088E-02
    9104.165    107.911   5.520  9.86575E-01  1.00976E+00 -2.31847E-02
    9105.854    109.600   5.560  1.00034E+00  1.00973E+00 -9.39141E-03
    9107.555    111.301   5.600  1.01216E+00  1.00966E+00  2.49821E-03
    9109.268    113.014   5.640  1.02136E+00  1.00955E+00  1.18097E-02
    9110.993    114.739   5.680  1.02750E+00  1.00939E+00  1.81113E-02
    9112.730    116.476   5.720  1.03009E+00  1.00916E+00  2.09204E-02
    9114.480    118.226   5.760  1.02886E+00  1.00890E+00  1.99639E-02
    9116.242    119.987   5.800  1.02432E+00  1.00861E+00  1.57093E-02
    9118.016    121.761   5.840  1.01797E+00  1.00826E+00  9.70631E-03
    9119.802    123.548   5.880  1.01202E+00  1.00788E+00  4.14088E-03
    9121.600    125.346   5.920  1.00819E+00  1.00745E+00  7.34142E-04
    9123.410    127.156   5.960  1.00693E+00  1.00699E+00 -5.77008E-05
    9125.233    128.979   6.000  1.00765E+00  1.00646E+00  1.18976E-03
