# # comment:                                                     FEFF 9.9.1  
# # Source:
# # Structure
# # Reduced
# # space
# # abc:
# # angles:
# # sites:
# # POT  SCF 100  7.0000   0, screened core-hole, AFOLP (folp(0)= 1.150)
# # Abs   Z=29 Rmt= 1.222 Rnm= 1.323 K  shell
# # Pot 1 Z=29 Rmt= 1.241 Rnm= 1.328
# # Pot 2 Z=42 Rmt= 1.147 Rnm= 1.359
# # Pot 3 Z= 8 Rmt= 0.998 Rnm= 1.096
# # Gam_ch=1.729E+00 H-L exch Vi= 0.000E+00 Vr= 0.000E+00
# # Mu=-6.889E+00eV kf=2.251E+00 Vint=-1.584E+01eV Rs_int= 1.611
# FMS rfms= 9.0000
# # PATH  Rmax=-1.000,  Keep_limit= 0.00, Heap_limit 0.00  Pwcrit= 2.50%
#  S02=0.950  Temp=   0.00  Debye_temp=   0.00  Global_sig2= 0.00000
#  Energy zero shift, vr, vi    0.00000E+00   0.00000E+00
#  Curved wave amplitude ratio filter   4.000%
#     file         sig2 tot  cw amp ratio   deg  nlegs   reff  inp sig2
#     0/   0 paths used
#  xsedge+ 50, used to normalize mu           2.4632E-04
#  -----------------------------------------------------------------------
#  omega    e    k    mu    mu0     chi     @#
    8983.496    -10.699  -1.000  3.51923E-02  5.30052E-02 -1.78129E-02
    8983.795    -10.401  -0.960  3.68761E-02  5.68420E-02 -1.99659E-02
    8984.082    -10.114  -0.920  3.86748E-02  6.11048E-02 -2.24300E-02
    8984.356     -9.840  -0.880  4.06003E-02  6.58562E-02 -2.52559E-02
    8984.618     -9.578  -0.840  4.26665E-02  7.11693E-02 -2.85028E-02
    8984.868     -9.328  -0.800  4.48888E-02  7.71286E-02 -3.22398E-02
    8985.106     -9.090  -0.760  4.72846E-02  8.38310E-02 -3.65465E-02
    8985.331     -8.864  -0.720  4.98731E-02  9.13863E-02 -4.15132E-02
    8985.545     -8.651  -0.680  5.26748E-02  9.99151E-02 -4.72403E-02
    8985.746     -8.450  -0.640  5.57106E-02  1.09545E-01 -5.38342E-02
    8985.935     -8.261  -0.600  5.90000E-02  1.20401E-01 -6.14007E-02
    8986.112     -8.084  -0.560  6.25579E-02  1.32589E-01 -7.00313E-02
    8986.276     -7.919  -0.520  6.63906E-02  1.46174E-01 -7.97834E-02
    8986.429     -7.767  -0.480  7.04895E-02  1.61141E-01 -9.06514E-02
    8986.569     -7.627  -0.440  7.48241E-02  1.77358E-01 -1.02534E-01
    8986.697     -7.499  -0.400  7.93365E-02  1.94544E-01 -1.15208E-01
    8986.813     -7.383  -0.360  8.39381E-02  2.12255E-01 -1.28317E-01
    8986.916     -7.279  -0.320  8.85135E-02  2.29915E-01 -1.41401E-01
    8987.008     -7.188  -0.280  9.29306E-02  2.46883E-01 -1.53953E-01
    8987.087     -7.109  -0.240  9.70540E-02  2.62546E-01 -1.65492E-01
    8987.154     -7.042  -0.200  1.00758E-01  2.76388E-01 -1.75629E-01
    8987.209     -6.987  -0.160  1.03936E-01  2.88031E-01 -1.84095E-01
    8987.252     -6.944  -0.120  1.06502E-01  2.97235E-01 -1.90733E-01
    8987.282     -6.914  -0.080  1.08394E-01  3.03867E-01 -1.95472E-01
    8987.306     -6.889   0.000  1.09976E-01  3.09195E-01 -1.99220E-01
    8987.361     -6.834   0.120  1.13561E-01  3.21207E-01 -2.07646E-01
    8987.404     -6.792   0.160  1.16338E-01  3.30531E-01 -2.14193E-01
    8987.459     -6.737   0.200  1.19959E-01  3.42455E-01 -2.22496E-01
    8987.526     -6.670   0.240  1.24432E-01  3.56796E-01 -2.32364E-01
    8987.605     -6.591   0.280  1.29809E-01  3.73268E-01 -2.43459E-01
    8987.697     -6.499   0.320  1.36069E-01  3.91433E-01 -2.55365E-01
    8987.800     -6.396   0.360  1.43205E-01  4.10794E-01 -2.67589E-01
    8987.916     -6.280   0.400  1.51097E-01  4.30756E-01 -2.79659E-01
    8988.044     -6.152   0.440  1.59591E-01  4.50854E-01 -2.91263E-01
    8988.184     -6.011   0.480  1.68229E-01  4.70637E-01 -3.02408E-01
    8988.337     -5.859   0.520  1.76506E-01  4.89898E-01 -3.13392E-01
    8988.501     -5.694   0.560  1.83720E-01  5.08461E-01 -3.24741E-01
    8988.678     -5.518   0.600  1.89519E-01  5.26357E-01 -3.36838E-01
    8988.867     -5.329   0.640  1.94009E-01  5.43580E-01 -3.49571E-01
    8989.068     -5.128   0.680  1.97948E-01  5.60222E-01 -3.62274E-01
    8989.281     -4.914   0.720  2.02341E-01  5.76407E-01 -3.74067E-01
    8989.507     -4.689   0.760  2.07829E-01  5.92178E-01 -3.84349E-01
    8989.745     -4.451   0.800  2.14684E-01  6.07629E-01 -3.92945E-01
    8989.995     -4.201   0.840  2.22948E-01  6.22822E-01 -3.99874E-01
    8990.257     -3.939   0.880  2.33021E-01  6.37804E-01 -4.04783E-01
    8990.531     -3.665   0.920  2.45819E-01  6.52629E-01 -4.06810E-01
    8990.818     -3.378   0.960  2.62574E-01  6.67302E-01 -4.04728E-01
    8991.116     -3.079   1.000  2.84697E-01  6.81835E-01 -3.97138E-01
    8991.427     -2.768   1.040  3.13462E-01  6.96232E-01 -3.82770E-01
    8991.750     -2.445   1.080  3.49115E-01  7.10509E-01 -3.61394E-01
    8992.086     -2.110   1.120  3.89707E-01  7.24619E-01 -3.34912E-01
    8992.433     -1.763   1.160  4.31504E-01  7.38586E-01 -3.07081E-01
    8992.793     -1.403   1.200  4.71512E-01  7.52370E-01 -2.80858E-01
    8993.165     -1.031   1.240  5.11365E-01  7.65951E-01 -2.54585E-01
    8993.549     -0.647   1.280  5.57220E-01  7.79305E-01 -2.22086E-01
    8993.945     -0.251   1.320  6.16297E-01  7.92407E-01 -1.76110E-01
    8994.353      0.158   1.360  6.92661E-01  8.05229E-01 -1.12568E-01
    8994.774      0.578   1.400  7.81164E-01  8.17744E-01 -3.65801E-02
    8995.207      1.011   1.440  8.67973E-01  8.29944E-01  3.80285E-02
    8995.652      1.456   1.480  9.44336E-01  8.41800E-01  1.02536E-01
    8996.109      1.913   1.520  1.01007E+00  8.53285E-01  1.56786E-01
    8996.578      2.383   1.560  1.06099E+00  8.64371E-01  1.96618E-01
    8997.060      2.864   1.600  1.09271E+00  8.75053E-01  2.17653E-01
    8997.554      3.358   1.640  1.11256E+00  8.85325E-01  2.27231E-01
    8998.060      3.864   1.680  1.13053E+00  8.95161E-01  2.35366E-01
    8998.578      4.382   1.720  1.15099E+00  9.04536E-01  2.46458E-01
    8999.108      4.913   1.760  1.17203E+00  9.13449E-01  2.58576E-01
    8999.651      5.455   1.800  1.18852E+00  9.21919E-01  2.66598E-01
    9000.205      6.010   1.840  1.20567E+00  9.29925E-01  2.75742E-01
    9000.772      6.577   1.880  1.23509E+00  9.37466E-01  2.97627E-01
    9001.352      7.156   1.920  1.27790E+00  9.44546E-01  3.33352E-01
    9001.943      7.747   1.960  1.32123E+00  9.51166E-01  3.70067E-01
    9002.546      8.351   2.000  1.34542E+00  9.57329E-01  3.88089E-01
    9003.162      8.966   2.040  1.33706E+00  9.63041E-01  3.74016E-01
    9003.790      9.594   2.080  1.29566E+00  9.68328E-01  3.27327E-01
    9004.430     10.234   2.120  1.22851E+00  9.73194E-01  2.55319E-01
    9005.082     10.887   2.160  1.14847E+00  9.77648E-01  1.70820E-01
    9005.747     11.551   2.200  1.07476E+00  9.81717E-01  9.30440E-02
    9006.423     12.228   2.240  1.02361E+00  9.85386E-01  3.82277E-02
    9007.112     12.917   2.280  9.99317E-01  9.88685E-01  1.06320E-02
    9007.813     13.618   2.320  9.96572E-01  9.91641E-01  4.93052E-03
    9008.526     14.331   2.360  1.00586E+00  9.94244E-01  1.16182E-02
    9009.252     15.056   2.400  1.02035E+00  9.96544E-01  2.38070E-02
    9009.990     15.794   2.440  1.03743E+00  9.98550E-01  3.88756E-02
    9010.739     16.544   2.480  1.05453E+00  1.00027E+00  5.42656E-02
    9011.501     17.306   2.520  1.06614E+00  1.00171E+00  6.44276E-02
    9012.276     18.080   2.560  1.06180E+00  1.00293E+00  5.88708E-02
    9013.062     18.866   2.600  1.03370E+00  1.00390E+00  2.97939E-02
    9013.860     19.665   2.640  9.89774E-01  1.00467E+00 -1.48942E-02
    9014.671     20.476   2.680  9.52748E-01  1.00523E+00 -5.24836E-02
    9015.494     21.299   2.720  9.31977E-01  1.00562E+00 -7.36453E-02
    9016.329     22.134   2.760  9.20561E-01  1.00583E+00 -8.52669E-02
    9017.177     22.981   2.800  9.14242E-01  1.00592E+00 -9.16760E-02
    9018.036     23.841   2.840  9.11258E-01  1.00586E+00 -9.45972E-02
    9018.908     24.712   2.880  9.10909E-01  1.00567E+00 -9.47628E-02
    9019.792     25.596   2.920  9.12481E-01  1.00537E+00 -9.28908E-02
    9020.688     26.492   2.960  9.15512E-01  1.00500E+00 -8.94916E-02
    9021.596     27.401   3.000  9.19454E-01  1.00453E+00 -8.50796E-02
    9022.517     28.321   3.040  9.23738E-01  1.00401E+00 -8.02675E-02
    9023.449     29.254   3.080  9.28008E-01  1.00341E+00 -7.54000E-02
    9024.394     30.199   3.120  9.32045E-01  1.00279E+00 -7.07408E-02
    9025.351     31.156   3.160  9.35597E-01  1.00210E+00 -6.65059E-02
    9026.321     32.125   3.200  9.38657E-01  1.00140E+00 -6.27476E-02
    9027.302     33.106   3.240  9.41109E-01  1.00068E+00 -5.95679E-02
    9028.296     34.100   3.280  9.42812E-01  9.99963E-01 -5.71506E-02
    9029.302     35.106   3.320  9.43893E-01  9.99225E-01 -5.53322E-02
    9030.320     36.124   3.360  9.44940E-01  9.98487E-01 -5.35467E-02
    9031.350     37.154   3.400  9.46778E-01  9.97772E-01 -5.09941E-02
    9032.392     38.197   3.440  9.50181E-01  9.97064E-01 -4.68826E-02
    9033.447     39.251   3.480  9.55743E-01  9.96363E-01 -4.06203E-02
    9034.514     40.318   3.520  9.63717E-01  9.95695E-01 -3.19773E-02
    9035.593     41.397   3.560  9.73835E-01  9.95062E-01 -2.12270E-02
    9036.684     42.488   3.600  9.85398E-01  9.94465E-01 -9.06665E-03
    9037.787     43.591   3.640  9.97436E-01  9.93905E-01  3.53085E-03
    9038.903     44.707   3.680  1.00870E+00  9.93363E-01  1.53361E-02
    9040.030     45.835   3.720  1.01803E+00  9.92882E-01  2.51491E-02
    9041.170     46.975   3.760  1.02460E+00  9.92443E-01  3.21531E-02
    9042.323     48.127   3.800  1.02818E+00  9.92044E-01  3.61341E-02
    9043.487     49.291   3.840  1.02916E+00  9.91689E-01  3.74693E-02
    9044.663     50.468   3.880  1.02840E+00  9.91376E-01  3.70238E-02
    9045.852     51.656   3.920  1.02688E+00  9.91129E-01  3.57490E-02
    9047.053     52.857   3.960  1.02521E+00  9.90926E-01  3.42875E-02
    9048.266     54.070   4.000  1.02363E+00  9.90766E-01  3.28647E-02
    9049.491     55.296   4.040  1.02199E+00  9.90649E-01  3.13454E-02
    9050.729     56.533   4.080  1.02012E+00  9.90595E-01  2.95210E-02
    9051.979     57.783   4.120  1.01788E+00  9.90561E-01  2.73168E-02
    9053.240     59.045   4.160  1.01537E+00  9.90590E-01  2.47758E-02
    9054.515     60.319   4.200  1.01248E+00  9.90640E-01  2.18405E-02
    9055.801     61.605   4.240  1.00900E+00  9.90752E-01  1.82531E-02
    9057.099     62.904   4.280  1.00463E+00  9.90904E-01  1.37267E-02
    9058.410     64.214   4.320  9.99315E-01  9.91096E-01  8.21942E-03
    9059.733     65.537   4.360  9.93417E-01  9.91325E-01  2.09254E-03
    9061.068     66.872   4.400  9.87554E-01  9.91570E-01 -4.01546E-03
    9062.415     68.219   4.440  9.82457E-01  9.91870E-01 -9.41337E-03
    9063.774     69.579   4.480  9.78691E-01  9.92183E-01 -1.34916E-02
    9065.146     70.950   4.520  9.76672E-01  9.92507E-01 -1.58347E-02
    9066.530     72.334   4.560  9.76555E-01  9.92883E-01 -1.63282E-02
    9067.926     73.730   4.600  9.78038E-01  9.93249E-01 -1.52104E-02
    9069.334     75.138   4.640  9.80697E-01  9.93664E-01 -1.29669E-02
    9070.754     76.559   4.680  9.83965E-01  9.94063E-01 -1.00985E-02
    9072.187     77.991   4.720  9.87550E-01  9.94490E-01 -6.93976E-03
    9073.631     79.436   4.760  9.91291E-01  9.94921E-01 -3.63030E-03
    9075.088     80.893   4.800  9.95172E-01  9.95376E-01 -2.03788E-04
    9076.558     82.362   4.840  9.99142E-01  9.95811E-01  3.33107E-03
    9078.039     83.843   4.880  1.00321E+00  9.96265E-01  6.94371E-03
    9079.532     85.337   4.920  1.00724E+00  9.96695E-01  1.05406E-02
    9081.038     86.842   4.960  1.01108E+00  9.97121E-01  1.39622E-02
    9082.556     88.360   5.000  1.01459E+00  9.97543E-01  1.70474E-02
    9084.086     89.890   5.040  1.01762E+00  9.97958E-01  1.96655E-02
    9085.628     91.433   5.080  1.02011E+00  9.98343E-01  2.17635E-02
    9087.183     92.987   5.120  1.02212E+00  9.98720E-01  2.33976E-02
    9088.750     94.554   5.160  1.02375E+00  9.99065E-01  2.46876E-02
    9090.328     96.133   5.200  1.02509E+00  9.99400E-01  2.56945E-02
    9091.919     97.724   5.240  1.02605E+00  9.99702E-01  2.63510E-02
    9093.523     99.327   5.280  1.02655E+00  9.99992E-01  2.65566E-02
    9095.138    100.942   5.320  1.02655E+00  1.00025E+00  2.63006E-02
    9096.766    102.570   5.360  1.02605E+00  1.00047E+00  2.55857E-02
    9098.406    104.210   5.400  1.02489E+00  1.00067E+00  2.42141E-02
    9100.058    105.862   5.440  1.02251E+00  1.00084E+00  2.16669E-02
    9101.722    107.526   5.480  1.01823E+00  1.00097E+00  1.72518E-02
    9103.398    109.202   5.520  1.01153E+00  1.00107E+00  1.04603E-02
    9105.087    110.891   5.560  1.00245E+00  1.00112E+00  1.33033E-03
    9106.788    112.592   5.600  9.91604E-01  1.00113E+00 -9.52852E-03
    9108.500    114.305   5.640  9.80030E-01  1.00113E+00 -2.10998E-02
    9110.226    116.030   5.680  9.68824E-01  1.00107E+00 -3.22417E-02
    9111.963    117.767   5.720  9.59032E-01  1.00099E+00 -4.19536E-02
    9113.713    119.517   5.760  9.51296E-01  1.00084E+00 -4.95474E-02
    9115.474    121.279   5.800  9.46068E-01  1.00069E+00 -5.46191E-02
    9117.248    123.053   5.840  9.43568E-01  1.00050E+00 -5.69271E-02
    9119.034    124.839   5.880  9.43924E-01  1.00027E+00 -5.63414E-02
    9120.833    126.637   5.920  9.47041E-01  1.00000E+00 -5.29588E-02
    9122.643    128.447   5.960  9.52508E-01  9.99699E-01 -4.71904E-02
    9124.466    130.270   6.000  9.59916E-01  9.99337E-01 -3.94209E-02
