# # comment:                                                     FEFF 9.9.1  
# # Source:
# # Structure
# # Reduced
# # space
# # abc:
# # angles:
# # sites:
# # POT  SCF 100  7.0000   0, screened core-hole, AFOLP (folp(0)= 1.150)
# # Abs   Z=29 Rmt= 1.253 Rnm= 1.322 K  shell
# # Pot 1 Z=24 Rmt= 1.312 Rnm= 1.408
# # Pot 2 Z=29 Rmt= 1.253 Rnm= 1.322
# # Pot 3 Z=15 Rmt= 0.935 Rnm= 1.149
# # Pot 4 Z= 8 Rmt= 0.881 Rnm= 1.040
# # Gam_ch=1.729E+00 H-L exch Vi= 0.000E+00 Vr= 0.000E+00
# # Mu=-8.023E+00eV kf=2.500E+00 Vint=-1.807E+01eV Rs_int= 1.451
# FMS rfms= 9.0000
# # PATH  Rmax=-1.000,  Keep_limit= 0.00, Heap_limit 0.00  Pwcrit= 2.50%
#  S02=0.950  Temp=   0.00  Debye_temp=   0.00  Global_sig2= 0.00000
#  Energy zero shift, vr, vi    0.00000E+00   0.00000E+00
#  Curved wave amplitude ratio filter   4.000%
#     file         sig2 tot  cw amp ratio   deg  nlegs   reff  inp sig2
#     0/   0 paths used
#  xsedge+ 50, used to normalize mu           2.5057E-04
#  -----------------------------------------------------------------------
#  omega    e    k    mu    mu0     chi     @#
    8983.486    -11.833  -1.000  3.26315E-02  4.76327E-02 -1.50012E-02
    8983.784    -11.535  -0.960  3.41215E-02  5.09756E-02 -1.68541E-02
    8984.071    -11.248  -0.920  3.57026E-02  5.46842E-02 -1.89816E-02
    8984.345    -10.974  -0.880  3.73830E-02  5.88122E-02 -2.14292E-02
    8984.607    -10.712  -0.840  3.91715E-02  6.34220E-02 -2.42505E-02
    8984.857    -10.462  -0.800  4.10782E-02  6.85860E-02 -2.75078E-02
    8985.095    -10.224  -0.760  4.31144E-02  7.43873E-02 -3.12729E-02
    8985.320     -9.999  -0.720  4.52921E-02  8.09199E-02 -3.56278E-02
    8985.534     -9.785  -0.680  4.76243E-02  8.82871E-02 -4.06628E-02
    8985.735     -9.584  -0.640  5.01237E-02  9.65983E-02 -4.64746E-02
    8985.924     -9.395  -0.600  5.28015E-02  1.05960E-01 -5.31589E-02
    8986.101     -9.218  -0.560  5.56653E-02  1.16465E-01 -6.07999E-02
    8986.265     -9.054  -0.520  5.87150E-02  1.28167E-01 -6.94517E-02
    8986.418     -8.901  -0.480  6.19383E-02  1.41052E-01 -7.91142E-02
    8986.558     -8.761  -0.440  6.53052E-02  1.55009E-01 -8.97043E-02
    8986.686     -8.633  -0.400  6.87636E-02  1.69795E-01 -1.01031E-01
    8986.802     -8.517  -0.360  7.22391E-02  1.85028E-01 -1.12789E-01
    8986.905     -8.414  -0.320  7.56401E-02  2.00213E-01 -1.24572E-01
    8986.997     -8.322  -0.280  7.88684E-02  2.14800E-01 -1.35932E-01
    8987.076     -8.243  -0.240  8.18313E-02  2.28262E-01 -1.46431E-01
    8987.143     -8.176  -0.200  8.44508E-02  2.40156E-01 -1.55706E-01
    8987.198     -8.121  -0.160  8.66669E-02  2.50160E-01 -1.63493E-01
    8987.241     -8.078  -0.120  8.84357E-02  2.58067E-01 -1.69631E-01
    8987.271     -8.048  -0.080  8.97259E-02  2.63762E-01 -1.74036E-01
    8987.296     -8.023   0.000  9.07853E-02  2.68337E-01 -1.77552E-01
    8987.350     -7.969   0.120  9.32070E-02  2.78656E-01 -1.85449E-01
    8987.393     -7.926   0.160  9.50847E-02  2.86664E-01 -1.91579E-01
    8987.448     -7.871   0.200  9.75177E-02  2.96900E-01 -1.99382E-01
    8987.515     -7.804   0.240  1.00498E-01  3.09204E-01 -2.08705E-01
    8987.594     -7.725   0.280  1.04096E-01  3.23345E-01 -2.19248E-01
    8987.686     -7.633   0.320  1.08277E-01  3.38922E-01 -2.30645E-01
    8987.789     -7.530   0.360  1.13134E-01  3.55526E-01 -2.42392E-01
    8987.905     -7.414   0.400  1.18724E-01  3.72659E-01 -2.53935E-01
    8988.033     -7.286   0.440  1.25085E-01  3.89867E-01 -2.64782E-01
    8988.173     -7.146   0.480  1.32318E-01  4.06834E-01 -2.74516E-01
    8988.326     -6.993   0.520  1.40430E-01  4.23328E-01 -2.82898E-01
    8988.490     -6.829   0.560  1.49349E-01  4.39272E-01 -2.89922E-01
    8988.667     -6.652   0.600  1.58841E-01  4.54624E-01 -2.95782E-01
    8988.856     -6.463   0.640  1.68501E-01  4.69455E-01 -3.00954E-01
    8989.057     -6.262   0.680  1.77900E-01  4.83809E-01 -3.05909E-01
    8989.271     -6.048   0.720  1.86952E-01  4.97821E-01 -3.10869E-01
    8989.496     -5.823   0.760  1.96162E-01  5.11548E-01 -3.15386E-01
    8989.734     -5.585   0.800  2.06708E-01  5.25077E-01 -3.18369E-01
    8989.984     -5.335   0.840  2.19865E-01  5.38483E-01 -3.18618E-01
    8990.246     -5.073   0.880  2.36481E-01  5.51814E-01 -3.15332E-01
    8990.520     -4.799   0.920  2.57127E-01  5.65103E-01 -3.07976E-01
    8990.807     -4.512   0.960  2.82422E-01  5.78394E-01 -2.95972E-01
    8991.106     -4.214   1.000  3.12709E-01  5.91702E-01 -2.78993E-01
    8991.416     -3.903   1.040  3.47276E-01  6.05074E-01 -2.57798E-01
    8991.739     -3.580   1.080  3.83332E-01  6.18470E-01 -2.35137E-01
    8992.075     -3.244   1.120  4.18127E-01  6.31923E-01 -2.13796E-01
    8992.422     -2.897   1.160  4.53921E-01  6.45406E-01 -1.91486E-01
    8992.782     -2.537   1.200  4.97432E-01  6.58944E-01 -1.61513E-01
    8993.154     -2.165   1.240  5.49956E-01  6.72477E-01 -1.22521E-01
    8993.538     -1.781   1.280  6.02011E-01  6.86025E-01 -8.40141E-02
    8993.934     -1.385   1.320  6.43099E-01  6.99565E-01 -5.64659E-02
    8994.342     -0.977   1.360  6.69304E-01  7.13073E-01 -4.37683E-02
    8994.763     -0.556   1.400  6.82418E-01  7.26519E-01 -4.41010E-02
    8995.196     -0.123   1.440  6.92396E-01  7.39877E-01 -4.74812E-02
    8995.641      0.322   1.480  7.11961E-01  7.53117E-01 -4.11559E-02
    8996.098      0.779   1.520  7.47141E-01  7.66251E-01 -1.91097E-02
    8996.567      1.248   1.560  8.03522E-01  7.79206E-01  2.43159E-02
    8997.049      1.730   1.600  8.87437E-01  7.91991E-01  9.54466E-02
    8997.543      2.224   1.640  9.84917E-01  8.04557E-01  1.80361E-01
    8998.049      2.730   1.680  1.04790E+00  8.16871E-01  2.31029E-01
    8998.567      3.248   1.720  1.04726E+00  8.28943E-01  2.18315E-01
    8999.097      3.778   1.760  1.02141E+00  8.40723E-01  1.80686E-01
    8999.640      4.321   1.800  1.00658E+00  8.52199E-01  1.54385E-01
    9000.195      4.876   1.840  1.01184E+00  8.63342E-01  1.48502E-01
    9000.762      5.443   1.880  1.05698E+00  8.74144E-01  1.82832E-01
    9001.341      6.022   1.920  1.14302E+00  8.84577E-01  2.58439E-01
    9001.932      6.613   1.960  1.21931E+00  8.94610E-01  3.24699E-01
    9002.535      7.216   2.000  1.23412E+00  9.04258E-01  3.29866E-01
    9003.151      7.832   2.040  1.19379E+00  9.13497E-01  2.80293E-01
    9003.779      8.460   2.080  1.13723E+00  9.22320E-01  2.14909E-01
    9004.419      9.100   2.120  1.09071E+00  9.30683E-01  1.60027E-01
    9005.071      9.752   2.160  1.06317E+00  9.38643E-01  1.24526E-01
    9005.736     10.417   2.200  1.05032E+00  9.46139E-01  1.04177E-01
    9006.412     11.093   2.240  1.04421E+00  9.53188E-01  9.10238E-02
    9007.101     11.782   2.280  1.04469E+00  9.59810E-01  8.48837E-02
    9007.802     12.483   2.320  1.05476E+00  9.65967E-01  8.87955E-02
    9008.516     13.197   2.360  1.07368E+00  9.71680E-01  1.02005E-01
    9009.241     13.922   2.400  1.09178E+00  9.76972E-01  1.14807E-01
    9009.979     14.660   2.440  1.09317E+00  9.81804E-01  1.11363E-01
    9010.728     15.409   2.480  1.07054E+00  9.86243E-01  8.42963E-02
    9011.490     16.171   2.520  1.03906E+00  9.90252E-01  4.88070E-02
    9012.265     16.946   2.560  1.02135E+00  9.93856E-01  2.74909E-02
    9013.051     17.732   2.600  1.02637E+00  9.97060E-01  2.93111E-02
    9013.850     18.531   2.640  1.04632E+00  9.99891E-01  4.64306E-02
    9014.660     19.341   2.680  1.06429E+00  1.00234E+00  6.19484E-02
    9015.483     20.164   2.720  1.06858E+00  1.00445E+00  6.41342E-02
    9016.318     20.999   2.760  1.05847E+00  1.00623E+00  5.22441E-02
    9017.166     21.847   2.800  1.03859E+00  1.00766E+00  3.09264E-02
    9018.025     22.706   2.840  1.01561E+00  1.00880E+00  6.81059E-03
    9018.897     23.578   2.880  9.99827E-01  1.00966E+00 -9.83263E-03
    9019.781     24.462   2.920  9.91692E-01  1.01024E+00 -1.85468E-02
    9020.677     25.358   2.960  9.84079E-01  1.01057E+00 -2.64918E-02
    9021.585     26.266   3.000  9.74668E-01  1.01066E+00 -3.59944E-02
    9022.506     27.187   3.040  9.62811E-01  1.01054E+00 -4.77309E-02
    9023.439     28.120   3.080  9.48964E-01  1.01020E+00 -6.12340E-02
    9024.383     29.064   3.120  9.34432E-01  1.00968E+00 -7.52479E-02
    9025.340     30.021   3.160  9.20687E-01  1.00899E+00 -8.83081E-02
    9026.310     30.991   3.200  9.08966E-01  1.00813E+00 -9.91646E-02
    9027.291     31.972   3.240  9.00260E-01  1.00716E+00 -1.06898E-01
    9028.285     32.966   3.280  8.95088E-01  1.00604E+00 -1.10953E-01
    9029.291     33.972   3.320  8.93014E-01  1.00483E+00 -1.11817E-01
    9030.309     34.990   3.360  8.93395E-01  1.00353E+00 -1.10137E-01
    9031.339     36.020   3.400  8.95591E-01  1.00213E+00 -1.06541E-01
    9032.381     37.062   3.440  8.99032E-01  1.00068E+00 -1.01648E-01
    9033.436     38.117   3.480  9.03376E-01  9.99180E-01 -9.58040E-02
    9034.503     39.184   3.520  9.08505E-01  9.97639E-01 -8.91339E-02
    9035.582     40.263   3.560  9.14229E-01  9.96063E-01 -8.18337E-02
    9036.673     41.354   3.600  9.20124E-01  9.94475E-01 -7.43510E-02
    9037.776     42.457   3.640  9.26007E-01  9.92862E-01 -6.68550E-02
    9038.892     43.573   3.680  9.32046E-01  9.91270E-01 -5.92239E-02
    9040.020     44.701   3.720  9.38577E-01  9.89680E-01 -5.11031E-02
    9041.160     45.841   3.760  9.45986E-01  9.88099E-01 -4.21131E-02
    9042.312     46.993   3.800  9.54461E-01  9.86550E-01 -3.20895E-02
    9043.476     48.157   3.840  9.63714E-01  9.85039E-01 -2.13248E-02
    9044.653     49.334   3.880  9.73100E-01  9.83569E-01 -1.04689E-02
    9045.841     50.522   3.920  9.81977E-01  9.82161E-01 -1.84077E-04
    9047.042     51.723   3.960  9.89871E-01  9.80778E-01  9.09327E-03
    9048.255     52.936   4.000  9.96796E-01  9.79484E-01  1.73113E-02
    9049.481     54.162   4.040  1.00293E+00  9.78220E-01  2.47103E-02
    9050.718     55.399   4.080  1.00864E+00  9.77050E-01  3.15899E-02
    9051.968     56.649   4.120  1.01403E+00  9.75936E-01  3.80957E-02
    9053.230     57.911   4.160  1.01918E+00  9.74918E-01  4.42629E-02
    9054.504     59.185   4.200  1.02400E+00  9.73955E-01  5.00485E-02
    9055.790     60.471   4.240  1.02845E+00  9.73070E-01  5.53796E-02
    9057.088     61.769   4.280  1.03254E+00  9.72265E-01  6.02718E-02
    9058.399     63.080   4.320  1.03638E+00  9.71540E-01  6.48418E-02
    9059.722     64.403   4.360  1.04002E+00  9.70916E-01  6.91030E-02
    9061.057     65.738   4.400  1.04318E+00  9.70353E-01  7.28302E-02
    9062.404     67.085   4.440  1.04543E+00  9.69890E-01  7.55446E-02
    9063.763     68.444   4.480  1.04595E+00  9.69485E-01  7.64622E-02
    9065.135     69.816   4.520  1.04389E+00  9.69181E-01  7.47133E-02
    9066.519     71.200   4.560  1.03874E+00  9.68936E-01  6.98049E-02
    9067.915     72.596   4.600  1.03069E+00  9.68791E-01  6.19034E-02
    9069.323     74.004   4.640  1.02057E+00  9.68724E-01  5.18431E-02
    9070.743     75.424   4.680  1.00947E+00  9.68711E-01  4.07571E-02
    9072.176     76.857   4.720  9.98403E-01  9.68773E-01  2.96299E-02
    9073.621     78.302   4.760  9.88042E-01  9.68910E-01  1.91325E-02
    9075.078     79.759   4.800  9.78878E-01  9.69119E-01  9.75918E-03
    9076.547     81.228   4.840  9.71306E-01  9.69377E-01  1.92893E-03
    9078.028     82.709   4.880  9.65686E-01  9.69683E-01 -3.99699E-03
    9079.522     84.203   4.920  9.62214E-01  9.70058E-01 -7.84335E-03
    9081.027     85.708   4.960  9.60719E-01  9.70499E-01 -9.78000E-03
    9082.545     87.226   5.000  9.60658E-01  9.70962E-01 -1.03040E-02
    9084.075     88.756   5.040  9.61370E-01  9.71487E-01 -1.01176E-02
    9085.617     90.298   5.080  9.62161E-01  9.72029E-01 -9.86854E-03
    9087.172     91.853   5.120  9.62595E-01  9.72629E-01 -1.00342E-02
    9088.739     93.420   5.160  9.62310E-01  9.73244E-01 -1.09337E-02
    9090.317     94.998   5.200  9.61165E-01  9.73888E-01 -1.27228E-02
    9091.909     96.590   5.240  9.59112E-01  9.74540E-01 -1.54286E-02
    9093.512     98.193   5.280  9.56323E-01  9.75198E-01 -1.88757E-02
    9095.127     99.808   5.320  9.53245E-01  9.75882E-01 -2.26371E-02
    9096.755    101.436   5.360  9.50474E-01  9.76568E-01 -2.60949E-02
    9098.395    103.076   5.400  9.48579E-01  9.77254E-01 -2.86756E-02
    9100.047    104.728   5.440  9.47837E-01  9.77937E-01 -3.00997E-02
    9101.711    106.392   5.480  9.48031E-01  9.78592E-01 -3.05612E-02
    9103.387    108.068   5.520  9.48583E-01  9.79239E-01 -3.06561E-02
    9105.076    109.757   5.560  9.48776E-01  9.79879E-01 -3.11029E-02
    9106.777    111.458   5.600  9.48191E-01  9.80484E-01 -3.22926E-02
    9108.490    113.171   5.640  9.46972E-01  9.81052E-01 -3.40805E-02
    9110.215    114.896   5.680  9.45696E-01  9.81585E-01 -3.58890E-02
    9111.952    116.633   5.720  9.45035E-01  9.82101E-01 -3.70661E-02
    9113.702    118.383   5.760  9.45366E-01  9.82555E-01 -3.71885E-02
    9115.463    120.144   5.800  9.46778E-01  9.82990E-01 -3.62118E-02
    9117.237    121.918   5.840  9.48998E-01  9.83358E-01 -3.43604E-02
    9119.023    123.704   5.880  9.51701E-01  9.83680E-01 -3.19792E-02
    9120.822    125.503   5.920  9.54534E-01  9.83955E-01 -2.94212E-02
    9122.632    127.313   5.960  9.57192E-01  9.84148E-01 -2.69555E-02
    9124.455    129.136   6.000  9.59751E-01  9.84263E-01 -2.45118E-02
