# # comment:                                                     FEFF 9.9.1  
# # Source:
# # Structure
# # Reduced
# # space
# # abc:
# # angles:
# # sites:
# # POT  SCF 100  7.0000   0, screened core-hole, AFOLP (folp(0)= 1.150)
# # Abs   Z=29 Rmt= 1.225 Rnm= 1.320 K  shell
# # Pot 1 Z=12 Rmt= 1.380 Rnm= 1.455
# # Pot 2 Z=29 Rmt= 1.223 Rnm= 1.312
# # Pot 3 Z= 8 Rmt= 1.020 Rnm= 1.103
# # Gam_ch=1.729E+00 H-L exch Vi= 0.000E+00 Vr= 0.000E+00
# # Mu=-7.583E+00eV kf=2.160E+00 Vint=-1.604E+01eV Rs_int= 1.679
# FMS rfms= 9.0000
# # PATH  Rmax=-1.000,  Keep_limit= 0.00, Heap_limit 0.00  Pwcrit= 2.50%
#  S02=0.950  Temp=   0.00  Debye_temp=   0.00  Global_sig2= 0.00000
#  Energy zero shift, vr, vi    0.00000E+00   0.00000E+00
#  Curved wave amplitude ratio filter   4.000%
#     file         sig2 tot  cw amp ratio   deg  nlegs   reff  inp sig2
#     0/   0 paths used
#  xsedge+ 50, used to normalize mu           2.4520E-04
#  -----------------------------------------------------------------------
#  omega    e    k    mu    mu0     chi     @#
    8983.760    -11.393  -1.000  3.83051E-02  5.55538E-02 -1.72486E-02
    8984.059    -11.095  -0.960  4.02260E-02  5.96138E-02 -1.93877E-02
    8984.346    -10.808  -0.920  4.22734E-02  6.41259E-02 -2.18526E-02
    8984.620    -10.534  -0.880  4.44569E-02  6.91566E-02 -2.46997E-02
    8984.882    -10.272  -0.840  4.67874E-02  7.47833E-02 -2.79958E-02
    8985.132    -10.022  -0.800  4.92761E-02  8.10954E-02 -3.18193E-02
    8985.370     -9.784  -0.760  5.19347E-02  8.81958E-02 -3.62611E-02
    8985.595     -9.558  -0.720  5.47754E-02  9.62007E-02 -4.14253E-02
    8985.809     -9.345  -0.680  5.78099E-02  1.05238E-01 -4.74279E-02
    8986.010     -9.144  -0.640  6.10488E-02  1.15442E-01 -5.43932E-02
    8986.199     -8.955  -0.600  6.44997E-02  1.26946E-01 -6.24459E-02
    8986.376     -8.778  -0.560  6.81650E-02  1.39862E-01 -7.16968E-02
    8986.540     -8.614  -0.520  7.20379E-02  1.54258E-01 -8.22197E-02
    8986.693     -8.461  -0.480  7.60974E-02  1.70118E-01 -9.40203E-02
    8986.833     -8.321  -0.440  8.03033E-02  1.87303E-01 -1.07000E-01
    8986.961     -8.193  -0.400  8.45919E-02  2.05515E-01 -1.20923E-01
    8987.077     -8.077  -0.360  8.88755E-02  2.24284E-01 -1.35408E-01
    8987.180     -7.974  -0.320  9.30483E-02  2.43000E-01 -1.49952E-01
    8987.272     -7.882  -0.280  9.69977E-02  2.60986E-01 -1.63988E-01
    8987.351     -7.803  -0.240  1.00617E-01  2.77589E-01 -1.76972E-01
    8987.418     -7.736  -0.200  1.03816E-01  2.92264E-01 -1.88448E-01
    8987.473     -7.681  -0.160  1.06522E-01  3.04610E-01 -1.98088E-01
    8987.515     -7.638  -0.120  1.08681E-01  3.14370E-01 -2.05689E-01
    8987.546     -7.608  -0.080  1.10251E-01  3.21402E-01 -2.11151E-01
    8987.570     -7.583   0.000  1.11531E-01  3.27051E-01 -2.15521E-01
    8987.625     -7.529   0.120  1.14633E-01  3.39808E-01 -2.25176E-01
    8987.668     -7.486   0.160  1.16981E-01  3.49698E-01 -2.32717E-01
    8987.723     -7.431   0.200  1.20057E-01  3.62354E-01 -2.42297E-01
    8987.790     -7.364   0.240  1.23872E-01  3.77588E-01 -2.53716E-01
    8987.869     -7.285   0.280  1.28434E-01  3.95082E-01 -2.66647E-01
    8987.960     -7.193   0.320  1.33857E-01  4.14395E-01 -2.80538E-01
    8988.064     -7.090   0.360  1.40227E-01  4.34984E-01 -2.94757E-01
    8988.180     -6.974   0.400  1.47781E-01  4.56245E-01 -3.08464E-01
    8988.308     -6.846   0.440  1.56831E-01  4.77668E-01 -3.20838E-01
    8988.448     -6.706   0.480  1.67806E-01  4.98801E-01 -3.30995E-01
    8988.601     -6.553   0.520  1.81304E-01  5.19361E-01 -3.38056E-01
    8988.765     -6.389   0.560  1.98120E-01  5.39245E-01 -3.41125E-01
    8988.942     -6.212   0.600  2.19222E-01  5.58400E-01 -3.39178E-01
    8989.131     -6.023   0.640  2.45682E-01  5.76882E-01 -3.31200E-01
    8989.332     -5.822   0.680  2.78340E-01  5.94763E-01 -3.16424E-01
    8989.545     -5.608   0.720  3.17005E-01  6.12110E-01 -2.95105E-01
    8989.771     -5.383   0.760  3.59319E-01  6.29028E-01 -2.69709E-01
    8990.009     -5.145   0.800  4.00392E-01  6.45613E-01 -2.45221E-01
    8990.259     -4.895   0.840  4.35855E-01  6.61864E-01 -2.26009E-01
    8990.521     -4.633   0.880  4.66441E-01  6.77890E-01 -2.11450E-01
    8990.795     -4.359   0.920  4.95846E-01  6.93665E-01 -1.97818E-01
    8991.082     -4.072   0.960  5.23970E-01  7.09250E-01 -1.85280E-01
    8991.380     -3.773   1.000  5.44501E-01  7.24634E-01 -1.80133E-01
    8991.691     -3.462   1.040  5.50584E-01  7.39820E-01 -1.89236E-01
    8992.014     -3.139   1.080  5.42180E-01  7.54783E-01 -2.12602E-01
    8992.350     -2.804   1.120  5.27293E-01  7.69508E-01 -2.42215E-01
    8992.697     -2.457   1.160  5.17525E-01  7.83979E-01 -2.66454E-01
    8993.057     -2.097   1.200  5.21324E-01  7.98154E-01 -2.76830E-01
    8993.429     -1.725   1.240  5.38787E-01  8.12051E-01 -2.73265E-01
    8993.813     -1.341   1.280  5.63492E-01  8.25604E-01 -2.62112E-01
    8994.209     -0.945   1.320  5.89812E-01  8.38785E-01 -2.48973E-01
    8994.617     -0.536   1.360  6.14093E-01  8.51587E-01 -2.37494E-01
    8995.038     -0.116   1.400  6.35994E-01  8.63961E-01 -2.27966E-01
    8995.471      0.317   1.440  6.61620E-01  8.75920E-01 -2.14299E-01
    8995.916      0.762   1.480  6.97093E-01  8.87395E-01 -1.90302E-01
    8996.373      1.219   1.520  7.46062E-01  8.98381E-01 -1.52319E-01
    8996.842      1.689   1.560  8.11494E-01  9.08891E-01 -9.73970E-02
    8997.324      2.170   1.600  8.87077E-01  9.18881E-01 -3.18032E-02
    8997.818      2.664   1.640  9.61658E-01  9.28348E-01  3.33101E-02
    8998.324      3.170   1.680  1.04068E+00  9.37269E-01  1.03413E-01
    8998.842      3.688   1.720  1.13509E+00  9.45665E-01  1.89424E-01
    8999.372      4.218   1.760  1.23492E+00  9.53537E-01  2.81379E-01
    8999.915      4.761   1.800  1.31843E+00  9.60866E-01  3.57566E-01
    9000.469      5.316   1.840  1.38568E+00  9.67676E-01  4.18006E-01
    9001.036      5.883   1.880  1.43398E+00  9.73953E-01  4.60028E-01
    9001.615      6.462   1.920  1.43097E+00  9.79720E-01  4.51246E-01
    9002.207      7.053   1.960  1.38102E+00  9.85007E-01  3.96017E-01
    9002.810      7.657   2.000  1.33978E+00  9.89780E-01  3.49999E-01
    9003.426      8.272   2.040  1.32100E+00  9.94108E-01  3.26895E-01
    9004.054      8.900   2.080  1.28678E+00  9.97980E-01  2.88797E-01
    9004.694      9.540   2.120  1.22095E+00  1.00141E+00  2.19539E-01
    9005.346     10.192   2.160  1.14481E+00  1.00444E+00  1.40376E-01
    9006.011     10.857   2.200  1.07976E+00  1.00706E+00  7.26959E-02
    9006.687     11.534   2.240  1.03717E+00  1.00931E+00  2.78565E-02
    9007.376     12.222   2.280  1.01668E+00  1.01120E+00  5.47864E-03
    9008.077     12.923   2.320  1.01339E+00  1.01278E+00  6.06816E-04
    9008.790     13.637   2.360  1.02379E+00  1.01406E+00  9.72778E-03
    9009.516     14.362   2.400  1.04816E+00  1.01503E+00  3.31276E-02
    9010.253     15.100   2.440  1.08855E+00  1.01574E+00  7.28058E-02
    9011.003     15.850   2.480  1.13893E+00  1.01623E+00  1.22705E-01
    9011.765     16.612   2.520  1.18148E+00  1.01648E+00  1.65002E-01
    9012.539     17.386   2.560  1.19573E+00  1.01652E+00  1.79208E-01
    9013.326     18.172   2.600  1.17413E+00  1.01637E+00  1.57766E-01
    9014.124     18.971   2.640  1.13961E+00  1.01607E+00  1.23540E-01
    9014.935     19.781   2.680  1.10441E+00  1.01561E+00  8.88066E-02
    9015.758     20.604   2.720  1.07224E+00  1.01502E+00  5.72151E-02
    9016.593     21.440   2.760  1.04262E+00  1.01434E+00  2.82818E-02
    9017.441     22.287   2.800  1.01396E+00  1.01355E+00  4.06970E-04
    9018.300     23.146   2.840  9.86074E-01  1.01267E+00 -2.65976E-02
    9019.172     24.018   2.880  9.59784E-01  1.01174E+00 -5.19543E-02
    9020.056     24.902   2.920  9.35711E-01  1.01074E+00 -7.50244E-02
    9020.952     25.798   2.960  9.14767E-01  1.00971E+00 -9.49431E-02
    9021.860     26.706   3.000  8.97428E-01  1.00863E+00 -1.11198E-01
    9022.781     27.627   3.040  8.83882E-01  1.00755E+00 -1.23672E-01
    9023.713     28.560   3.080  8.74096E-01  1.00645E+00 -1.32357E-01
    9024.658     29.505   3.120  8.67728E-01  1.00535E+00 -1.37622E-01
    9025.615     30.462   3.160  8.64039E-01  1.00425E+00 -1.40211E-01
    9026.585     31.431   3.200  8.62541E-01  1.00318E+00 -1.40638E-01
    9027.566     32.412   3.240  8.62971E-01  1.00214E+00 -1.39168E-01
    9028.560     33.406   3.280  8.64933E-01  1.00111E+00 -1.36180E-01
    9029.566     34.412   3.320  8.68167E-01  1.00013E+00 -1.31958E-01
    9030.584     35.430   3.360  8.72544E-01  9.99199E-01 -1.26655E-01
    9031.614     36.460   3.400  8.77805E-01  9.98294E-01 -1.20488E-01
    9032.656     37.502   3.440  8.83816E-01  9.97454E-01 -1.13638E-01
    9033.711     38.557   3.480  8.90616E-01  9.96660E-01 -1.06044E-01
    9034.778     39.624   3.520  8.98397E-01  9.95936E-01 -9.75391E-02
    9035.857     40.703   3.560  9.07238E-01  9.95261E-01 -8.80229E-02
    9036.948     41.794   3.600  9.17291E-01  9.94634E-01 -7.73429E-02
    9038.051     42.897   3.640  9.28678E-01  9.94102E-01 -6.54232E-02
    9039.167     44.013   3.680  9.41342E-01  9.93621E-01 -5.22788E-02
    9040.294     45.141   3.720  9.55151E-01  9.93191E-01 -3.80396E-02
    9041.434     46.281   3.760  9.70035E-01  9.92835E-01 -2.28000E-02
    9042.587     47.433   3.800  9.85924E-01  9.92553E-01 -6.62900E-03
    9043.751     48.597   3.840  1.00287E+00  9.92344E-01  1.05261E-02
    9044.927     49.774   3.880  1.02088E+00  9.92186E-01  2.86952E-02
    9046.116     50.962   3.920  1.03956E+00  9.92078E-01  4.74785E-02
    9047.317     52.163   3.960  1.05772E+00  9.92041E-01  6.56818E-02
    9048.530     53.376   4.000  1.07364E+00  9.92078E-01  8.15607E-02
    9049.755     54.602   4.040  1.08554E+00  9.92186E-01  9.33578E-02
    9050.993     55.839   4.080  1.09217E+00  9.92319E-01  9.98476E-02
    9052.243     57.089   4.120  1.09342E+00  9.92520E-01  1.00903E-01
    9053.504     58.351   4.160  1.09028E+00  9.92789E-01  9.74903E-02
    9054.778     59.625   4.200  1.08421E+00  9.93081E-01  9.11269E-02
    9056.065     60.911   4.240  1.07677E+00  9.93436E-01  8.33352E-02
    9057.363     62.209   4.280  1.06908E+00  9.93833E-01  7.52479E-02
    9058.674     63.520   4.320  1.06163E+00  9.94268E-01  6.73621E-02
    9059.997     64.843   4.360  1.05431E+00  9.94721E-01  5.95910E-02
    9061.332     66.178   4.400  1.04682E+00  9.95231E-01  5.15845E-02
    9062.679     67.525   4.440  1.03892E+00  9.95755E-01  4.31648E-02
    9064.038     68.885   4.480  1.03088E+00  9.96312E-01  3.45724E-02
    9065.410     70.256   4.520  1.02333E+00  9.96902E-01  2.64296E-02
    9066.794     71.640   4.560  1.01695E+00  9.97499E-01  1.94462E-02
    9068.190     73.036   4.600  1.01226E+00  9.98101E-01  1.41600E-02
    9069.598     74.444   4.640  1.00953E+00  9.98729E-01  1.07989E-02
    9071.018     75.864   4.680  1.00857E+00  9.99336E-01  9.23793E-03
    9072.451     77.297   4.720  1.00892E+00  9.99966E-01  8.95130E-03
    9073.895     78.742   4.760  1.00976E+00  1.00060E+00  9.16362E-03
    9075.352     80.199   4.800  1.01035E+00  1.00122E+00  9.13004E-03
    9076.822     81.668   4.840  1.01018E+00  1.00182E+00  8.35884E-03
    9078.303     83.149   4.880  1.00905E+00  1.00242E+00  6.62879E-03
    9079.796     84.643   4.920  1.00683E+00  1.00301E+00  3.82288E-03
    9081.302     86.148   4.960  1.00354E+00  1.00358E+00 -4.55994E-05
    9082.820     87.666   5.000  9.99446E-01  1.00413E+00 -4.68328E-03
    9084.350     89.196   5.040  9.94985E-01  1.00464E+00 -9.65394E-03
    9085.892     90.739   5.080  9.90333E-01  1.00511E+00 -1.47790E-02
    9087.447     92.293   5.120  9.85219E-01  1.00557E+00 -2.03509E-02
    9089.013     93.860   5.160  9.79206E-01  1.00599E+00 -2.67845E-02
    9090.592     95.439   5.200  9.72373E-01  1.00637E+00 -3.40005E-02
    9092.183     97.030   5.240  9.65594E-01  1.00672E+00 -4.11247E-02
    9093.787     98.633   5.280  9.60282E-01  1.00704E+00 -4.67624E-02
    9095.402    100.248   5.320  9.57748E-01  1.00730E+00 -4.95573E-02
    9097.030    101.876   5.360  9.58937E-01  1.00752E+00 -4.85854E-02
    9098.669    103.516   5.400  9.63975E-01  1.00770E+00 -4.37233E-02
    9100.321    105.168   5.440  9.72024E-01  1.00783E+00 -3.58065E-02
    9101.986    106.832   5.480  9.81370E-01  1.00792E+00 -2.65506E-02
    9103.662    108.508   5.520  9.90015E-01  1.00797E+00 -1.79507E-02
    9105.351    110.197   5.560  9.96376E-01  1.00794E+00 -1.15674E-02
    9107.051    111.898   5.600  9.99795E-01  1.00788E+00 -8.08370E-03
    9108.764    113.611   5.640  1.00041E+00  1.00779E+00 -7.37955E-03
    9110.490    115.336   5.680  9.98767E-01  1.00764E+00 -8.87750E-03
    9112.227    117.073   5.720  9.95606E-01  1.00745E+00 -1.18456E-02
    9113.976    118.823   5.760  9.91781E-01  1.00721E+00 -1.54333E-02
    9115.738    120.584   5.800  9.88206E-01  1.00691E+00 -1.87070E-02
    9117.512    122.358   5.840  9.85888E-01  1.00660E+00 -2.07081E-02
    9119.298    124.145   5.880  9.85643E-01  1.00624E+00 -2.05991E-02
    9121.097    125.943   5.920  9.87854E-01  1.00583E+00 -1.79741E-02
    9122.907    127.753   5.960  9.92278E-01  1.00540E+00 -1.31238E-02
    9124.730    129.576   6.000  9.98251E-01  1.00491E+00 -6.66190E-03
