# # comment:                                                     FEFF 9.9.1  
# # Source:
# # Structure
# # Reduced
# # space
# # abc:
# # angles:
# # sites:
# # POT  SCF 100  7.0000   0, screened core-hole, AFOLP (folp(0)= 1.150)
# # Abs   Z=29 Rmt= 1.691 Rnm= 1.691 K  shell
# # Pot 1 Z=13 Rmt= 1.120 Rnm= 1.302
# # Pot 2 Z=29 Rmt= 1.371 Rnm= 1.425
# # Pot 3 Z= 8 Rmt= 0.944 Rnm= 1.089
# # Gam_ch=1.729E+00 H-L exch Vi= 0.000E+00 Vr= 0.000E+00
# # Mu=-7.516E+00eV kf=2.210E+00 Vint=-1.709E+01eV Rs_int= 1.641
# FMS rfms= 9.0000
# # PATH  Rmax=-1.000,  Keep_limit= 0.00, Heap_limit 0.00  Pwcrit= 2.50%
#  S02=0.950  Temp=   0.00  Debye_temp=   0.00  Global_sig2= 0.00000
#  Energy zero shift, vr, vi    0.00000E+00   0.00000E+00
#  Curved wave amplitude ratio filter   4.000%
#     file         sig2 tot  cw amp ratio   deg  nlegs   reff  inp sig2
#     0/   0 paths used
#  xsedge+ 50, used to normalize mu           2.3530E-04
#  -----------------------------------------------------------------------
#  omega    e    k    mu    mu0     chi     @#
    8983.401    -11.326  -1.000  5.83343E-02  5.25916E-02  5.74262E-03
    8983.700    -11.027  -0.960  6.21373E-02  5.59895E-02  6.14783E-03
    8983.986    -10.740  -0.920  6.62687E-02  5.97186E-02  6.55013E-03
    8984.261    -10.466  -0.880  7.07608E-02  6.38234E-02  6.93733E-03
    8984.523    -10.204  -0.840  7.56484E-02  6.83554E-02  7.29298E-03
    8984.773     -9.954  -0.800  8.09691E-02  7.33737E-02  7.59539E-03
    8985.011     -9.716  -0.760  8.67623E-02  7.89457E-02  7.81659E-03
    8985.236     -9.491  -0.720  9.30685E-02  8.51471E-02  7.92143E-03
    8985.449     -9.277  -0.680  9.99279E-02  9.20606E-02  7.86725E-03
    8985.651     -9.076  -0.640  1.07377E-01  9.97728E-02  7.60443E-03
    8985.840     -8.887  -0.600  1.15447E-01  1.08368E-01  7.07899E-03
    8986.016     -8.710  -0.560  1.24153E-01  1.17915E-01  6.23803E-03
    8986.181     -8.546  -0.520  1.33493E-01  1.28454E-01  5.03938E-03
    8986.333     -8.393  -0.480  1.43432E-01  1.39967E-01  3.46543E-03
    8986.474     -8.253  -0.440  1.53894E-01  1.52354E-01  1.53945E-03
    8986.602     -8.125  -0.400  1.64749E-01  1.65410E-01 -6.61120E-04
    8986.717     -8.009  -0.360  1.75810E-01  1.78813E-01 -3.00273E-03
    8986.821     -7.906  -0.320  1.86836E-01  1.92148E-01 -5.31240E-03
    8986.912     -7.814  -0.280  1.97541E-01  2.04954E-01 -7.41257E-03
    8986.992     -7.735  -0.240  2.07619E-01  2.16782E-01 -9.16243E-03
    8987.059     -7.668  -0.200  2.16764E-01  2.27252E-01 -1.04885E-02
    8987.114     -7.613  -0.160  2.24688E-01  2.36080E-01 -1.13922E-02
    8987.156     -7.570  -0.120  2.31142E-01  2.43076E-01 -1.19335E-02
    8987.187     -7.540  -0.080  2.35927E-01  2.48128E-01 -1.22008E-02
    8987.211     -7.516   0.000  2.39918E-01  2.52198E-01 -1.22799E-02
    8987.266     -7.461   0.120  2.48999E-01  2.61402E-01 -1.24027E-02
    8987.309     -7.418   0.160  2.56236E-01  2.68581E-01 -1.23454E-02
    8987.364     -7.363   0.200  2.65867E-01  2.77797E-01 -1.19300E-02
    8987.431     -7.296   0.240  2.78155E-01  2.88963E-01 -1.08075E-02
    8987.510     -7.217   0.280  2.93425E-01  3.01924E-01 -8.49873E-03
    8987.601     -7.125   0.320  3.12039E-01  3.16434E-01 -4.39460E-03
    8987.705     -7.022   0.360  3.34382E-01  3.32192E-01  2.19014E-03
    8987.821     -6.906   0.400  3.60750E-01  3.48848E-01  1.19020E-02
    8987.949     -6.778   0.440  3.91291E-01  3.66101E-01  2.51898E-02
    8988.089     -6.638   0.480  4.25952E-01  3.83783E-01  4.21688E-02
    8988.241     -6.485   0.520  4.64383E-01  4.01712E-01  6.26716E-02
    8988.406     -6.321   0.560  5.06598E-01  4.19903E-01  8.66949E-02
    8988.583     -6.144   0.600  5.53477E-01  4.38377E-01  1.15100E-01
    8988.772     -5.955   0.640  6.06939E-01  4.57220E-01  1.49719E-01
    8988.973     -5.754   0.680  6.68205E-01  4.76546E-01  1.91659E-01
    8989.186     -5.540   0.720  7.34172E-01  4.96493E-01  2.37679E-01
    8989.412     -5.315   0.760  7.94907E-01  5.17144E-01  2.77762E-01
    8989.650     -5.077   0.800  8.38810E-01  5.38632E-01  3.00177E-01
    8989.899     -4.827   0.840  8.64196E-01  5.61082E-01  3.03114E-01
    8990.162     -4.565   0.880  8.80986E-01  5.84524E-01  2.96461E-01
    8990.436     -4.291   0.920  8.97761E-01  6.09082E-01  2.88678E-01
    8990.722     -4.004   0.960  9.12620E-01  6.34805E-01  2.77815E-01
    8991.021     -3.706   1.000  9.21250E-01  6.61706E-01  2.59544E-01
    8991.332     -3.395   1.040  9.31140E-01  6.89806E-01  2.41334E-01
    8991.655     -3.072   1.080  9.60845E-01  7.19091E-01  2.41753E-01
    8991.990     -2.736   1.120  1.02531E+00  7.49554E-01  2.75752E-01
    8992.338     -2.389   1.160  1.12913E+00  7.81083E-01  3.48044E-01
    8992.698     -2.029   1.200  1.27174E+00  8.13612E-01  4.58125E-01
    8993.069     -1.657   1.240  1.43853E+00  8.46971E-01  5.91560E-01
    8993.453     -1.273   1.280  1.57788E+00  8.81011E-01  6.96871E-01
    8993.850     -0.877   1.320  1.60861E+00  9.15477E-01  6.93128E-01
    8994.258     -0.469   1.360  1.48689E+00  9.50111E-01  5.36777E-01
    8994.679     -0.048   1.400  1.27068E+00  9.84639E-01  2.86046E-01
    8995.112      0.385   1.440  1.05996E+00  1.01868E+00  4.12836E-02
    8995.557      0.830   1.480  8.91648E-01  1.05190E+00 -1.60250E-01
    8996.014      1.287   1.520  7.67797E-01  1.08387E+00 -3.16071E-01
    8996.483      1.756   1.560  6.95405E-01  1.11420E+00 -4.18794E-01
    8996.965      2.238   1.600  6.74855E-01  1.14250E+00 -4.67648E-01
    8997.458      2.732   1.640  6.99037E-01  1.16840E+00 -4.69366E-01
    8997.964      3.238   1.680  7.54375E-01  1.19156E+00 -4.37183E-01
    8998.483      3.756   1.720  8.19713E-01  1.21166E+00 -3.91944E-01
    8999.013      4.286   1.760  8.67500E-01  1.22852E+00 -3.61023E-01
    8999.556      4.829   1.800  8.72288E-01  1.24195E+00 -3.69665E-01
    9000.110      5.384   1.840  8.37087E-01  1.25191E+00 -4.14826E-01
    9000.677      5.950   1.880  7.95133E-01  1.25841E+00 -4.63274E-01
    9001.256      6.530   1.920  7.74193E-01  1.26150E+00 -4.87309E-01
    9001.848      7.121   1.960  7.86419E-01  1.26136E+00 -4.74943E-01
    9002.451      7.724   2.000  8.42045E-01  1.25822E+00 -4.16180E-01
    9003.067      8.340   2.040  9.52231E-01  1.25235E+00 -3.00123E-01
    9003.695      8.968   2.080  1.11968E+00  1.24405E+00 -1.24370E-01
    9004.335      9.608   2.120  1.31425E+00  1.23365E+00  8.05982E-02
    9004.987     10.260   2.160  1.46281E+00  1.22147E+00  2.41343E-01
    9005.651     10.925   2.200  1.50912E+00  1.20786E+00  3.01258E-01
    9006.328     11.601   2.240  1.47007E+00  1.19314E+00  2.76926E-01
    9007.017     12.290   2.280  1.39812E+00  1.17762E+00  2.20502E-01
    9007.718     12.991   2.320  1.34139E+00  1.16156E+00  1.79833E-01
    9008.431     13.705   2.360  1.33048E+00  1.14523E+00  1.85253E-01
    9009.157     14.430   2.400  1.37672E+00  1.12887E+00  2.47856E-01
    9009.894     15.168   2.440  1.45167E+00  1.11263E+00  3.39043E-01
    9010.644     15.917   2.480  1.49253E+00  1.09676E+00  3.95769E-01
    9011.406     16.679   2.520  1.46324E+00  1.08133E+00  3.81911E-01
    9012.180     17.454   2.560  1.36873E+00  1.06649E+00  3.02240E-01
    9012.967     18.240   2.600  1.24913E+00  1.05233E+00  1.96797E-01
    9013.765     19.039   2.640  1.14811E+00  1.03896E+00  1.09146E-01
    9014.576     19.849   2.680  1.08290E+00  1.02641E+00  5.64974E-02
    9015.399     20.672   2.720  1.03279E+00  1.01471E+00  1.80820E-02
    9016.234     21.507   2.760  9.87426E-01  1.00394E+00 -1.65131E-02
    9017.081     22.355   2.800  9.42067E-01  9.94100E-01 -5.20329E-02
    9017.941     23.214   2.840  8.98001E-01  9.85229E-01 -8.72280E-02
    9018.813     24.086   2.880  8.59221E-01  9.77276E-01 -1.18055E-01
    9019.697     24.970   2.920  8.28383E-01  9.70305E-01 -1.41922E-01
    9020.593     25.866   2.960  8.05651E-01  9.64261E-01 -1.58611E-01
    9021.501     26.774   3.000  7.90228E-01  9.59183E-01 -1.68956E-01
    9022.422     27.695   3.040  7.81206E-01  9.55010E-01 -1.73803E-01
    9023.354     28.627   3.080  7.78484E-01  9.51754E-01 -1.73270E-01
    9024.299     29.572   3.120  7.82639E-01  9.49396E-01 -1.66757E-01
    9025.256     30.529   3.160  7.93560E-01  9.47896E-01 -1.54337E-01
    9026.225     31.499   3.200  8.10680E-01  9.47262E-01 -1.36582E-01
    9027.207     32.480   3.240  8.32648E-01  9.47419E-01 -1.14771E-01
    9028.200     33.474   3.280  8.57169E-01  9.48373E-01 -9.12040E-02
    9029.206     34.480   3.320  8.81351E-01  9.50063E-01 -6.87121E-02
    9030.224     35.498   3.360  9.02807E-01  9.52496E-01 -4.96883E-02
    9031.255     36.528   3.400  9.20354E-01  9.55585E-01 -3.52316E-02
    9032.297     37.570   3.440  9.34690E-01  9.59313E-01 -2.46231E-02
    9033.352     38.625   3.480  9.47735E-01  9.63637E-01 -1.59015E-02
    9034.418     39.692   3.520  9.61572E-01  9.68533E-01 -6.96056E-03
    9035.497     40.771   3.560  9.77929E-01  9.73911E-01  4.01859E-03
    9036.589     41.862   3.600  9.98212E-01  9.79721E-01  1.84911E-02
    9037.692     42.965   3.640  1.02338E+00  9.85918E-01  3.74587E-02
    9038.807     44.081   3.680  1.05385E+00  9.92470E-01  6.13758E-02
    9039.935     45.209   3.720  1.08915E+00  9.99260E-01  8.98921E-02
    9041.075     46.348   3.760  1.12773E+00  1.00625E+00  1.21472E-01
    9042.227     47.501   3.800  1.16623E+00  1.01338E+00  1.52851E-01
    9043.392     48.665   3.840  1.19939E+00  1.02058E+00  1.78813E-01
    9044.568     49.841   3.880  1.22129E+00  1.02775E+00  1.93544E-01
    9045.757     51.030   3.920  1.22745E+00  1.03486E+00  1.92593E-01
    9046.958     52.231   3.960  1.21632E+00  1.04181E+00  1.74510E-01
    9048.171     53.444   4.000  1.18954E+00  1.04853E+00  1.41009E-01
    9049.396     54.669   4.040  1.15081E+00  1.05497E+00  9.58445E-02
    9050.634     55.907   4.080  1.10472E+00  1.06103E+00  4.36932E-02
    9051.883     57.157   4.120  1.05659E+00  1.06669E+00 -1.01063E-02
    9053.145     58.418   4.160  1.01175E+00  1.07189E+00 -6.01433E-02
    9054.419     59.693   4.200  9.74595E-01  1.07657E+00 -1.01978E-01
    9055.706     60.979   4.240  9.47893E-01  1.08070E+00 -1.32809E-01
    9057.004     62.277   4.280  9.32861E-01  1.08424E+00 -1.51376E-01
    9058.315     63.588   4.320  9.29420E-01  1.08716E+00 -1.57743E-01
    9059.637     64.911   4.360  9.36654E-01  1.08945E+00 -1.52799E-01
    9060.972     66.246   4.400  9.52844E-01  1.09108E+00 -1.38237E-01
    9062.320     67.593   4.440  9.75422E-01  1.09209E+00 -1.16672E-01
    9063.679     68.952   4.480  1.00122E+00  1.09250E+00 -9.12747E-02
    9065.051     70.324   4.520  1.02707E+00  1.09228E+00 -6.52099E-02
    9066.434     71.708   4.560  1.05029E+00  1.09150E+00 -4.12062E-02
    9067.830     73.104   4.600  1.06874E+00  1.09016E+00 -2.14209E-02
    9069.239     74.512   4.640  1.08123E+00  1.08832E+00 -7.08775E-03
    9070.659     75.932   4.680  1.08826E+00  1.08603E+00  2.23086E-03
    9072.092     77.365   4.720  1.09194E+00  1.08333E+00  8.61058E-03
    9073.536     78.810   4.760  1.09487E+00  1.08027E+00  1.45935E-02
    9074.993     80.266   4.800  1.09906E+00  1.07692E+00  2.21369E-02
    9076.462     81.736   4.840  1.10570E+00  1.07332E+00  3.23803E-02
    9077.944     83.217   4.880  1.11508E+00  1.06953E+00  4.55512E-02
    9079.437     84.710   4.920  1.12634E+00  1.06558E+00  6.07524E-02
    9080.943     86.216   4.960  1.13744E+00  1.06158E+00  7.58554E-02
    9082.461     87.734   5.000  1.14551E+00  1.05754E+00  8.79744E-02
    9083.991     89.264   5.040  1.14800E+00  1.05353E+00  9.44701E-02
    9085.533     90.806   5.080  1.14369E+00  1.04960E+00  9.40904E-02
    9087.088     92.361   5.120  1.13297E+00  1.04577E+00  8.71960E-02
    9088.654     93.928   5.160  1.11698E+00  1.04210E+00  7.48773E-02
    9090.233     95.506   5.200  1.09652E+00  1.03863E+00  5.78927E-02
    9091.824     97.097   5.240  1.07228E+00  1.03538E+00  3.69057E-02
    9093.427     98.701   5.280  1.04556E+00  1.03235E+00  1.32075E-02
    9095.043    100.316   5.320  1.01852E+00  1.02964E+00 -1.11172E-02
    9096.670    101.944   5.360  9.93475E-01  1.02719E+00 -3.37187E-02
    9098.310    103.584   5.400  9.72548E-01  1.02505E+00 -5.25053E-02
    9099.962    105.236   5.440  9.57358E-01  1.02327E+00 -6.59110E-02
    9101.627    106.900   5.480  9.48864E-01  1.02180E+00 -7.29326E-02
    9103.303    108.576   5.520  9.47586E-01  1.02066E+00 -7.30757E-02
    9104.991    110.265   5.560  9.53354E-01  1.01986E+00 -6.65100E-02
    9106.692    111.966   5.600  9.64653E-01  1.01940E+00 -5.47484E-02
    9108.405    113.679   5.640  9.78179E-01  1.01925E+00 -4.10749E-02
    9110.130    115.404   5.680  9.89706E-01  1.01945E+00 -2.97408E-02
    9111.868    117.141   5.720  9.96145E-01  1.02002E+00 -2.38777E-02
    9113.617    118.891   5.760  9.98082E-01  1.02158E+00 -2.34988E-02
    9115.379    120.652   5.800  9.96720E-01  1.02199E+00 -2.52678E-02
    9117.153    122.426   5.840  9.96772E-01  1.02209E+00 -2.53144E-02
    9118.939    124.212   5.880  1.00256E+00  1.02318E+00 -2.06203E-02
    9120.737    126.011   5.920  1.01414E+00  1.02456E+00 -1.04153E-02
    9122.548    127.821   5.960  1.03023E+00  1.02612E+00  4.10717E-03
    9124.371    129.644   6.000  1.04871E+00  1.02792E+00  2.07946E-02
