# # comment:                                                     FEFF 9.9.1  
# # Source:
# # Structure
# # Reduced
# # space
# # abc:
# # angles:108.473344
# # sites:
# # POT  SCF 100  7.0000   0, screened core-hole, AFOLP (folp(0)= 1.150)
# # Abs   Z=29 Rmt= 1.259 Rnm= 1.323 K  shell
# # Pot 1 Z=29 Rmt= 1.259 Rnm= 1.323
# # Pot 2 Z=52 Rmt= 1.286 Rnm= 1.439
# # Pot 3 Z= 8 Rmt= 0.961 Rnm= 1.096
# # Gam_ch=1.729E+00 H-L exch Vi= 0.000E+00 Vr= 0.000E+00
# # Mu=-5.201E+00eV kf=2.234E+00 Vint=-1.468E+01eV Rs_int= 1.623
# FMS rfms= 9.0000
# # PATH  Rmax=-1.000,  Keep_limit= 0.00, Heap_limit 0.00  Pwcrit= 2.50%
#  S02=0.950  Temp=   0.00  Debye_temp=   0.00  Global_sig2= 0.00000
#  Energy zero shift, vr, vi    0.00000E+00   0.00000E+00
#  Curved wave amplitude ratio filter   4.000%
#     file         sig2 tot  cw amp ratio   deg  nlegs   reff  inp sig2
#     0/   0 paths used
#  xsedge+ 50, used to normalize mu           2.4395E-04
#  -----------------------------------------------------------------------
#  omega    e    k    mu    mu0     chi     @#
    8983.418     -9.011  -1.000  3.82866E-02  5.89550E-02 -2.06684E-02
    8983.716     -8.713  -0.960  4.01132E-02  6.34150E-02 -2.33018E-02
    8984.003     -8.426  -0.920  4.20589E-02  6.83862E-02 -2.63273E-02
    8984.277     -8.152  -0.880  4.41356E-02  7.39452E-02 -2.98095E-02
    8984.539     -7.890  -0.840  4.63572E-02  8.01810E-02 -3.38238E-02
    8984.789     -7.640  -0.800  4.87394E-02  8.71974E-02 -3.84580E-02
    8985.027     -7.402  -0.760  5.12999E-02  9.51131E-02 -4.38131E-02
    8985.252     -7.177  -0.720  5.40588E-02  1.04063E-01 -5.00039E-02
    8985.466     -6.963  -0.680  5.70375E-02  1.14195E-01 -5.71572E-02
    8985.667     -6.762  -0.640  6.02582E-02  1.25666E-01 -6.54078E-02
    8985.856     -6.573  -0.600  6.37418E-02  1.38631E-01 -7.48891E-02
    8986.033     -6.396  -0.560  6.75044E-02  1.53222E-01 -8.57175E-02
    8986.197     -6.232  -0.520  7.15523E-02  1.69518E-01 -9.79661E-02
    8986.350     -6.079  -0.480  7.58745E-02  1.87505E-01 -1.11631E-01
    8986.490     -5.939  -0.440  8.04350E-02  2.07024E-01 -1.26589E-01
    8986.618     -5.811  -0.400  8.51655E-02  2.27731E-01 -1.42566E-01
    8986.734     -5.695  -0.360  8.99630E-02  2.49087E-01 -1.59124E-01
    8986.837     -5.592  -0.320  9.46960E-02  2.70389E-01 -1.75693E-01
    8986.929     -5.500  -0.280  9.92181E-02  2.90858E-01 -1.91639E-01
    8987.008     -5.421  -0.240  1.03387E-01  3.09745E-01 -2.06358E-01
    8987.075     -5.354  -0.200  1.07080E-01  3.26429E-01 -2.19349E-01
    8987.130     -5.299  -0.160  1.10202E-01  3.40453E-01 -2.30251E-01
    8987.173     -5.256  -0.120  1.12687E-01  3.51532E-01 -2.38845E-01
    8987.203     -5.226  -0.080  1.14492E-01  3.59507E-01 -2.45015E-01
    8987.227     -5.201   0.000  1.15962E-01  3.65911E-01 -2.49949E-01
    8987.282     -5.147   0.120  1.19279E-01  3.80343E-01 -2.61063E-01
    8987.325     -5.104   0.160  1.21849E-01  3.91540E-01 -2.69690E-01
    8987.380     -5.049   0.200  1.25151E-01  4.05841E-01 -2.80689E-01
    8987.447     -4.982   0.240  1.29150E-01  4.22993E-01 -2.93843E-01
    8987.526     -4.903   0.280  1.33791E-01  4.42632E-01 -3.08841E-01
    8987.618     -4.811   0.320  1.39025E-01  4.64229E-01 -3.25204E-01
    8987.721     -4.708   0.360  1.44792E-01  4.87127E-01 -3.42335E-01
    8987.837     -4.592   0.400  1.51027E-01  5.10611E-01 -3.59583E-01
    8987.965     -4.464   0.440  1.57687E-01  5.34023E-01 -3.76335E-01
    8988.105     -4.324   0.480  1.64808E-01  5.56852E-01 -3.92044E-01
    8988.258     -4.171   0.520  1.72508E-01  5.78806E-01 -4.06298E-01
    8988.422     -4.007   0.560  1.80890E-01  5.99696E-01 -4.18806E-01
    8988.599     -3.830   0.600  1.90023E-01  6.19484E-01 -4.29461E-01
    8988.788     -3.641   0.640  1.99844E-01  6.38237E-01 -4.38393E-01
    8988.989     -3.440   0.680  2.10217E-01  6.56025E-01 -4.45808E-01
    8989.203     -3.226   0.720  2.20967E-01  6.72978E-01 -4.52011E-01
    8989.428     -3.001   0.760  2.32009E-01  6.89183E-01 -4.57173E-01
    8989.666     -2.763   0.800  2.43534E-01  7.04735E-01 -4.61201E-01
    8989.916     -2.513   0.840  2.55970E-01  7.19738E-01 -4.63768E-01
    8990.178     -2.251   0.880  2.69892E-01  7.34235E-01 -4.64344E-01
    8990.452     -1.977   0.920  2.86024E-01  7.48300E-01 -4.62277E-01
    8990.739     -1.690   0.960  3.05089E-01  7.61928E-01 -4.56840E-01
    8991.037     -1.391   1.000  3.27555E-01  7.75163E-01 -4.47608E-01
    8991.348     -1.081   1.040  3.52881E-01  7.88042E-01 -4.35161E-01
    8991.671     -0.757   1.080  3.79327E-01  8.00528E-01 -4.21201E-01
    8992.007     -0.422   1.120  4.05465E-01  8.12644E-01 -4.07179E-01
    8992.354     -0.075   1.160  4.32486E-01  8.24382E-01 -3.91896E-01
    8992.714      0.285   1.200  4.64802E-01  8.35732E-01 -3.70930E-01
    8993.086      0.657   1.240  5.08095E-01  8.46684E-01 -3.38589E-01
    8993.470      1.041   1.280  5.67162E-01  8.57242E-01 -2.90080E-01
    8993.866      1.437   1.320  6.44130E-01  8.67368E-01 -2.23238E-01
    8994.274      1.846   1.360  7.36372E-01  8.77087E-01 -1.40715E-01
    8994.695      2.266   1.400  8.40902E-01  8.86360E-01 -4.54571E-02
    8995.128      2.699   1.440  9.57819E-01  8.95208E-01  6.26119E-02
    8995.573      3.144   1.480  1.07961E+00  9.03592E-01  1.76023E-01
    8996.030      3.601   1.520  1.19857E+00  9.11537E-01  2.87033E-01
    8996.499      4.071   1.560  1.31515E+00  9.19027E-01  3.96126E-01
    8996.981      4.552   1.600  1.42388E+00  9.26083E-01  4.97796E-01
    8997.475      5.046   1.640  1.51679E+00  9.32691E-01  5.84097E-01
    8997.981      5.552   1.680  1.59467E+00  9.38854E-01  6.55818E-01
    8998.499      6.070   1.720  1.66060E+00  9.44579E-01  7.16017E-01
    8999.029      6.600   1.760  1.71379E+00  9.49894E-01  7.63893E-01
    8999.572      7.143   1.800  1.75149E+00  9.54804E-01  7.96687E-01
    9000.127      7.698   1.840  1.76139E+00  9.59297E-01  8.02095E-01
    9000.693      8.265   1.880  1.71760E+00  9.63401E-01  7.54204E-01
    9001.273      8.844   1.920  1.61150E+00  9.67146E-01  6.44356E-01
    9001.864      9.435   1.960  1.47163E+00  9.70543E-01  5.01090E-01
    9002.467     10.039   2.000  1.33794E+00  9.73599E-01  3.64337E-01
    9003.083     10.654   2.040  1.22844E+00  9.76344E-01  2.52098E-01
    9003.711     11.282   2.080  1.13985E+00  9.78768E-01  1.61083E-01
    9004.351     11.922   2.120  1.06757E+00  9.80922E-01  8.66508E-02
    9005.003     12.574   2.160  1.01289E+00  9.82816E-01  3.00763E-02
    9005.668     13.239   2.200  9.78929E-01  9.84481E-01 -5.55157E-03
    9006.344     13.916   2.240  9.65286E-01  9.85883E-01 -2.05970E-02
    9007.033     14.604   2.280  9.66878E-01  9.87117E-01 -2.02388E-02
    9007.734     15.305   2.320  9.78403E-01  9.88127E-01 -9.72321E-03
    9008.448     16.019   2.360  9.96628E-01  9.88984E-01  7.64316E-03
    9009.173     16.744   2.400  1.01595E+00  9.89680E-01  2.62709E-02
    9009.911     17.482   2.440  1.02898E+00  9.90241E-01  3.87392E-02
    9010.660     18.232   2.480  1.03052E+00  9.90653E-01  3.98663E-02
    9011.422     18.994   2.520  1.01816E+00  9.90989E-01  2.71728E-02
    9012.197     19.768   2.560  9.92833E-01  9.91214E-01  1.61880E-03
    9012.983     20.554   2.600  9.60579E-01  9.91375E-01 -3.07959E-02
    9013.782     21.353   2.640  9.31988E-01  9.91439E-01 -5.94506E-02
    9014.592     22.163   2.680  9.10220E-01  9.91473E-01 -8.12536E-02
    9015.415     22.986   2.720  8.88757E-01  9.91464E-01 -1.02707E-01
    9016.250     23.822   2.760  8.65994E-01  9.91415E-01 -1.25422E-01
    9017.098     24.669   2.800  8.44226E-01  9.91333E-01 -1.47107E-01
    9017.957     25.528   2.840  8.26261E-01  9.91262E-01 -1.65001E-01
    9018.829     26.400   2.880  8.12904E-01  9.91167E-01 -1.78262E-01
    9019.713     27.284   2.920  8.03846E-01  9.91071E-01 -1.87225E-01
    9020.609     28.180   2.960  7.98492E-01  9.90999E-01 -1.92507E-01
    9021.517     29.088   3.000  7.95689E-01  9.90935E-01 -1.95246E-01
    9022.438     30.009   3.040  7.94828E-01  9.90901E-01 -1.96073E-01
    9023.371     30.942   3.080  7.96182E-01  9.90900E-01 -1.94718E-01
    9024.315     31.886   3.120  8.00036E-01  9.90914E-01 -1.90878E-01
    9025.272     32.844   3.160  8.06728E-01  9.90984E-01 -1.84256E-01
    9026.242     33.813   3.200  8.16459E-01  9.91072E-01 -1.74613E-01
    9027.223     34.794   3.240  8.29530E-01  9.91200E-01 -1.61670E-01
    9028.217     35.788   3.280  8.46149E-01  9.91390E-01 -1.45241E-01
    9029.223     36.794   3.320  8.66580E-01  9.91601E-01 -1.25021E-01
    9030.241     37.812   3.360  8.90929E-01  9.91875E-01 -1.00946E-01
    9031.271     38.842   3.400  9.18555E-01  9.92193E-01 -7.36389E-02
    9032.313     39.884   3.440  9.48391E-01  9.92577E-01 -4.41860E-02
    9033.368     40.939   3.480  9.79005E-01  9.92981E-01 -1.39765E-02
    9034.435     42.006   3.520  1.00884E+00  9.93448E-01  1.53914E-02
    9035.514     43.085   3.560  1.03650E+00  9.93936E-01  4.25642E-02
    9036.605     44.176   3.600  1.06106E+00  9.94486E-01  6.65769E-02
    9037.708     45.279   3.640  1.08154E+00  9.95080E-01  8.64556E-02
    9038.824     46.395   3.680  1.09693E+00  9.95714E-01  1.01220E-01
    9039.952     47.523   3.720  1.10672E+00  9.96407E-01  1.10311E-01
    9041.092     48.663   3.760  1.11085E+00  9.97096E-01  1.13755E-01
    9042.244     49.815   3.800  1.10997E+00  9.97843E-01  1.12124E-01
    9043.408     50.979   3.840  1.10518E+00  9.98625E-01  1.06555E-01
    9044.585     52.156   3.880  1.09808E+00  9.99419E-01  9.86640E-02
    9045.773     53.344   3.920  1.09030E+00  1.00024E+00  9.00550E-02
    9046.974     54.545   3.960  1.08301E+00  1.00108E+00  8.19296E-02
    9048.187     55.758   4.000  1.07687E+00  1.00194E+00  7.49267E-02
    9049.413     56.984   4.040  1.07186E+00  1.00281E+00  6.90496E-02
    9050.650     58.221   4.080  1.06774E+00  1.00370E+00  6.40400E-02
    9051.900     59.471   4.120  1.06429E+00  1.00458E+00  5.97097E-02
    9053.162     60.733   4.160  1.06149E+00  1.00547E+00  5.60133E-02
    9054.436     62.007   4.200  1.05916E+00  1.00636E+00  5.27964E-02
    9055.722     63.293   4.240  1.05695E+00  1.00723E+00  4.97233E-02
    9057.020     64.591   4.280  1.05444E+00  1.00809E+00  4.63548E-02
    9058.331     65.902   4.320  1.05125E+00  1.00894E+00  4.23058E-02
    9059.654     67.225   4.360  1.04718E+00  1.00976E+00  3.74155E-02
    9060.989     68.560   4.400  1.04238E+00  1.01057E+00  3.18123E-02
    9062.336     69.907   4.440  1.03721E+00  1.01134E+00  2.58660E-02
    9063.695     71.266   4.480  1.03205E+00  1.01210E+00  1.99548E-02
    9065.067     72.638   4.520  1.02714E+00  1.01280E+00  1.43424E-02
    9066.451     74.022   4.560  1.02254E+00  1.01348E+00  9.06497E-03
    9067.847     75.418   4.600  1.01803E+00  1.01412E+00  3.91733E-03
    9069.255     76.826   4.640  1.01330E+00  1.01469E+00 -1.39448E-03
    9070.675     78.246   4.680  1.00809E+00  1.01524E+00 -7.14804E-03
    9072.108     79.679   4.720  1.00227E+00  1.01575E+00 -1.34851E-02
    9073.553     81.124   4.760  9.95965E-01  1.01619E+00 -2.02257E-02
    9075.010     82.581   4.800  9.89740E-01  1.01658E+00 -2.68435E-02
    9076.479     84.050   4.840  9.84304E-01  1.01693E+00 -3.26229E-02
    9077.960     85.531   4.880  9.80328E-01  1.01720E+00 -3.68728E-02
    9079.453     87.025   4.920  9.78202E-01  1.01743E+00 -3.92249E-02
    9080.959     88.530   4.960  9.77962E-01  1.01760E+00 -3.96417E-02
    9082.477     90.048   5.000  9.79400E-01  1.01771E+00 -3.83100E-02
    9084.007     91.578   5.040  9.82080E-01  1.01777E+00 -3.56883E-02
    9085.549     93.121   5.080  9.85270E-01  1.01778E+00 -3.25076E-02
    9087.104     94.675   5.120  9.88001E-01  1.01772E+00 -2.97156E-02
    9088.671     96.242   5.160  9.89385E-01  1.01761E+00 -2.82233E-02
    9090.249     97.821   5.200  9.88871E-01  1.01745E+00 -2.85790E-02
    9091.841     99.412   5.240  9.86374E-01  1.01722E+00 -3.08499E-02
    9093.444    101.015   5.280  9.82340E-01  1.01695E+00 -3.46105E-02
    9095.059    102.630   5.320  9.77516E-01  1.01663E+00 -3.91148E-02
    9096.687    104.258   5.360  9.72770E-01  1.01627E+00 -4.34978E-02
    9098.327    105.898   5.400  9.68848E-01  1.01584E+00 -4.69900E-02
    9099.979    107.550   5.440  9.66382E-01  1.01539E+00 -4.90050E-02
    9101.643    109.214   5.480  9.65681E-01  1.01487E+00 -4.91931E-02
    9103.319    110.890   5.520  9.66910E-01  1.01434E+00 -4.74334E-02
    9105.008    112.579   5.560  9.69946E-01  1.01377E+00 -4.38290E-02
    9106.709    114.280   5.600  9.74537E-01  1.01317E+00 -3.86301E-02
    9108.422    115.993   5.640  9.80401E-01  1.01252E+00 -3.21225E-02
    9110.147    117.718   5.680  9.87269E-01  1.01184E+00 -2.45746E-02
    9111.884    119.455   5.720  9.94890E-01  1.01115E+00 -1.62652E-02
    9113.634    121.205   5.760  1.00297E+00  1.01046E+00 -7.49088E-03
    9115.395    122.966   5.800  1.01112E+00  1.00971E+00  1.41325E-03
    9117.169    124.740   5.840  1.01908E+00  1.00898E+00  1.01014E-02
    9118.955    126.527   5.880  1.02652E+00  1.00823E+00  1.82890E-02
    9120.754    128.325   5.920  1.03330E+00  1.00752E+00  2.57879E-02
    9122.564    130.135   5.960  1.03918E+00  1.00676E+00  3.24147E-02
    9124.387    131.958   6.000  1.04409E+00  1.00603E+00  3.80633E-02
