# # comment:                                                     FEFF 9.9.1  
# # Source:
# # Structure
# # Reduced
# # space
# # abc:
# # angles:
# # sites:
# # POT  SCF 100  7.0000   0, screened core-hole, AFOLP (folp(0)= 1.150)
# # Abs   Z=29 Rmt= 1.279 Rnm= 1.352 K  shell
# # Pot 1 Z=29 Rmt= 1.231 Rnm= 1.334
# # Pot 2 Z=14 Rmt= 0.972 Rnm= 1.206
# # Pot 3 Z=51 Rmt= 1.315 Rnm= 1.466
# # Pot 4 Z= 8 Rmt= 1.050 Rnm= 1.111
# # Gam_ch=1.729E+00 H-L exch Vi= 0.000E+00 Vr= 0.000E+00
# # Mu=-6.965E+00eV kf=2.231E+00 Vint=-1.552E+01eV Rs_int= 1.625
# FMS rfms= 9.0000
# # PATH  Rmax=-1.000,  Keep_limit= 0.00, Heap_limit 0.00  Pwcrit= 2.50%
#  S02=0.950  Temp=   0.00  Debye_temp=   0.00  Global_sig2= 0.00000
#  Energy zero shift, vr, vi    0.00000E+00   0.00000E+00
#  Curved wave amplitude ratio filter   4.000%
#     file         sig2 tot  cw amp ratio   deg  nlegs   reff  inp sig2
#     0/   0 paths used
#  xsedge+ 50, used to normalize mu           2.4643E-04
#  -----------------------------------------------------------------------
#  omega    e    k    mu    mu0     chi     @#
    8983.379    -10.775  -1.000  3.44378E-02  5.24757E-02 -1.80378E-02
    8983.678    -10.476  -0.960  3.59675E-02  5.62514E-02 -2.02839E-02
    8983.965    -10.190  -0.920  3.75791E-02  6.04440E-02 -2.28649E-02
    8984.239     -9.916  -0.880  3.92779E-02  6.51146E-02 -2.58367E-02
    8984.501     -9.653  -0.840  4.10691E-02  7.03342E-02 -2.92651E-02
    8984.751     -9.404  -0.800  4.29584E-02  7.61853E-02 -3.32269E-02
    8984.989     -9.166  -0.760  4.49516E-02  8.27623E-02 -3.78106E-02
    8985.214     -8.940  -0.720  4.70547E-02  9.01718E-02 -4.31171E-02
    8985.428     -8.727  -0.680  4.92732E-02  9.85314E-02 -4.92582E-02
    8985.629     -8.526  -0.640  5.16118E-02  1.07965E-01 -5.63530E-02
    8985.818     -8.337  -0.600  5.40735E-02  1.18594E-01 -6.45202E-02
    8985.995     -8.160  -0.560  5.66582E-02  1.30522E-01 -7.38634E-02
    8986.159     -7.995  -0.520  5.93605E-02  1.43810E-01 -8.44497E-02
    8986.312     -7.843  -0.480  6.21669E-02  1.58445E-01 -9.62780E-02
    8986.452     -7.703  -0.440  6.50533E-02  1.74298E-01 -1.09244E-01
    8986.580     -7.575  -0.400  6.79818E-02  1.91093E-01 -1.23111E-01
    8986.696     -7.459  -0.360  7.09008E-02  2.08399E-01 -1.37499E-01
    8986.799     -7.355  -0.320  7.37471E-02  2.25655E-01 -1.51908E-01
    8986.891     -7.264  -0.280  7.64515E-02  2.42235E-01 -1.65784E-01
    8986.970     -7.185  -0.240  7.89451E-02  2.57542E-01 -1.78597E-01
    8987.037     -7.118  -0.200  8.11657E-02  2.71070E-01 -1.89905E-01
    8987.092     -7.063  -0.160  8.30604E-02  2.82452E-01 -1.99392E-01
    8987.135     -7.020  -0.120  8.45865E-02  2.91451E-01 -2.06864E-01
    8987.165     -6.990  -0.080  8.57108E-02  2.97935E-01 -2.12224E-01
    8987.189     -6.965   0.000  8.66528E-02  3.03144E-01 -2.16491E-01
    8987.244     -6.910   0.120  8.88372E-02  3.14902E-01 -2.26064E-01
    8987.287     -6.868   0.160  9.05075E-02  3.24047E-01 -2.33539E-01
    8987.342     -6.813   0.200  9.26543E-02  3.35711E-01 -2.43056E-01
    8987.409     -6.746   0.240  9.53227E-02  3.49759E-01 -2.54436E-01
    8987.488     -6.666   0.280  9.85206E-02  3.65895E-01 -2.67375E-01
    8987.580     -6.575   0.320  1.02290E-01  3.83718E-01 -2.81429E-01
    8987.683     -6.471   0.360  1.06743E-01  4.02748E-01 -2.96005E-01
    8987.799     -6.356   0.400  1.11906E-01  4.22408E-01 -3.10502E-01
    8987.927     -6.228   0.440  1.17937E-01  4.42213E-01 -3.24275E-01
    8988.067     -6.087   0.480  1.25033E-01  4.61786E-01 -3.36753E-01
    8988.220     -5.935   0.520  1.33375E-01  4.80867E-01 -3.47492E-01
    8988.384     -5.770   0.560  1.43227E-01  4.99343E-01 -3.56116E-01
    8988.561     -5.594   0.600  1.54792E-01  5.17185E-01 -3.62392E-01
    8988.750     -5.405   0.640  1.68224E-01  5.34446E-01 -3.66222E-01
    8988.951     -5.203   0.680  1.83372E-01  5.51172E-01 -3.67800E-01
    8989.164     -4.990   0.720  1.99983E-01  5.67486E-01 -3.67503E-01
    8989.390     -4.765   0.760  2.17753E-01  5.83444E-01 -3.65691E-01
    8989.628     -4.527   0.800  2.37143E-01  5.99116E-01 -3.61974E-01
    8989.878     -4.277   0.840  2.59368E-01  6.14579E-01 -3.55211E-01
    8990.140     -4.015   0.880  2.85640E-01  6.29858E-01 -3.44218E-01
    8990.414     -3.740   0.920  3.16142E-01  6.45005E-01 -3.28863E-01
    8990.701     -3.454   0.960  3.49463E-01  6.60017E-01 -3.10554E-01
    8990.999     -3.155   1.000  3.82376E-01  6.74926E-01 -2.92550E-01
    8991.310     -2.844   1.040  4.10593E-01  6.89713E-01 -2.79120E-01
    8991.633     -2.521   1.080  4.31943E-01  7.04371E-01 -2.72428E-01
    8991.969     -2.186   1.120  4.48678E-01  7.18910E-01 -2.70232E-01
    8992.316     -1.838   1.160  4.63954E-01  7.33271E-01 -2.69317E-01
    8992.676     -1.479   1.200  4.77488E-01  7.47475E-01 -2.69987E-01
    8993.048     -1.107   1.240  4.91650E-01  7.61457E-01 -2.69808E-01
    8993.432     -0.723   1.280  5.16136E-01  7.75213E-01 -2.59078E-01
    8993.828     -0.327   1.320  5.57605E-01  7.88715E-01 -2.31111E-01
    8994.236      0.082   1.360  6.14606E-01  8.01934E-01 -1.87328E-01
    8994.657      0.502   1.400  6.80720E-01  8.14822E-01 -1.34102E-01
    8995.090      0.935   1.440  7.49283E-01  8.27389E-01 -7.81067E-02
    8995.535      1.380   1.480  8.13998E-01  8.39586E-01 -2.55882E-02
    8995.992      1.837   1.520  8.73505E-01  8.51404E-01  2.21012E-02
    8996.461      2.307   1.560  9.44185E-01  8.62796E-01  8.13895E-02
    8996.943      2.788   1.600  1.03272E+00  8.73773E-01  1.58946E-01
    8997.437      3.282   1.640  1.12213E+00  8.84310E-01  2.37822E-01
    8997.943      3.788   1.680  1.18984E+00  8.94381E-01  2.95456E-01
    8998.461      4.306   1.720  1.23292E+00  9.03984E-01  3.28937E-01
    8998.991      4.837   1.760  1.28674E+00  9.13135E-01  3.73604E-01
    8999.534      5.379   1.800  1.37822E+00  9.21772E-01  4.56453E-01
    9000.088      5.934   1.840  1.49007E+00  9.29953E-01  5.60121E-01
    9000.655      6.501   1.880  1.56525E+00  9.37622E-01  6.27625E-01
    9001.235      7.080   1.920  1.55771E+00  9.44840E-01  6.12867E-01
    9001.826      7.671   1.960  1.47446E+00  9.51569E-01  5.22892E-01
    9002.429      8.275   2.000  1.35838E+00  9.57813E-01  4.00565E-01
    9003.045      8.890   2.040  1.25444E+00  9.63617E-01  2.90826E-01
    9003.673      9.518   2.080  1.18583E+00  9.68947E-01  2.16880E-01
    9004.313     10.158   2.120  1.14998E+00  9.73852E-01  1.76133E-01
    9004.965     10.811   2.160  1.12532E+00  9.78337E-01  1.46983E-01
    9005.630     11.475   2.200  1.09128E+00  9.82410E-01  1.08870E-01
    9006.306     12.152   2.240  1.04482E+00  9.86101E-01  5.87171E-02
    9006.995     12.841   2.280  9.96251E-01  9.89397E-01  6.85413E-03
    9007.696     13.542   2.320  9.58251E-01  9.92347E-01 -3.40965E-02
    9008.409     14.255   2.360  9.39409E-01  9.94942E-01 -5.55329E-02
    9009.135     14.980   2.400  9.40767E-01  9.97229E-01 -5.64621E-02
    9009.873     15.718   2.440  9.58044E-01  9.99198E-01 -4.11540E-02
    9010.622     16.468   2.480  9.88577E-01  1.00088E+00 -1.23032E-02
    9011.384     17.230   2.520  1.02330E+00  1.00231E+00  2.09993E-02
    9012.159     18.004   2.560  1.04134E+00  1.00348E+00  3.78609E-02
    9012.945     18.790   2.600  1.03000E+00  1.00442E+00  2.55896E-02
    9013.743     19.589   2.640  9.99575E-01  1.00514E+00 -5.56541E-03
    9014.554     20.400   2.680  9.69171E-01  1.00566E+00 -3.64936E-02
    9015.377     21.223   2.720  9.41340E-01  1.00602E+00 -6.46759E-02
    9016.212     22.058   2.760  9.16567E-01  1.00620E+00 -8.96344E-02
    9017.060     22.905   2.800  8.98474E-01  1.00623E+00 -1.07758E-01
    9017.919     23.765   2.840  8.88167E-01  1.00615E+00 -1.17987E-01
    9018.791     24.636   2.880  8.82988E-01  1.00594E+00 -1.22947E-01
    9019.675     25.520   2.920  8.79987E-01  1.00562E+00 -1.25635E-01
    9020.571     26.416   2.960  8.77766E-01  1.00522E+00 -1.27456E-01
    9021.479     27.325   3.000  8.76505E-01  1.00474E+00 -1.28235E-01
    9022.400     28.245   3.040  8.76961E-01  1.00418E+00 -1.27223E-01
    9023.332     29.178   3.080  8.79881E-01  1.00358E+00 -1.23698E-01
    9024.277     30.123   3.120  8.85601E-01  1.00293E+00 -1.17330E-01
    9025.234     31.080   3.160  8.93878E-01  1.00227E+00 -1.08387E-01
    9026.204     32.049   3.200  9.03952E-01  1.00154E+00 -9.75923E-02
    9027.185     33.031   3.240  9.14811E-01  1.00083E+00 -8.60238E-02
    9028.179     34.024   3.280  9.25143E-01  1.00010E+00 -7.49577E-02
    9029.185     35.030   3.320  9.34359E-01  9.99364E-01 -6.50050E-02
    9030.203     36.048   3.360  9.42789E-01  9.98651E-01 -5.58615E-02
    9031.233     37.078   3.400  9.51176E-01  9.97942E-01 -4.67665E-02
    9032.275     38.121   3.440  9.59894E-01  9.97240E-01 -3.73461E-02
    9033.330     39.175   3.480  9.68844E-01  9.96568E-01 -2.77241E-02
    9034.397     40.242   3.520  9.77600E-01  9.95909E-01 -1.83090E-02
    9035.476     41.321   3.560  9.86017E-01  9.95305E-01 -9.28852E-03
    9036.567     42.412   3.600  9.94248E-01  9.94717E-01 -4.68717E-04
    9037.670     43.516   3.640  1.00259E+00  9.94167E-01  8.42545E-03
    9038.786     44.631   3.680  1.01121E+00  9.93657E-01  1.75552E-02
    9039.913     45.759   3.720  1.02016E+00  9.93209E-01  2.69527E-02
    9041.053     46.899   3.760  1.02922E+00  9.92782E-01  3.64372E-02
    9042.206     48.051   3.800  1.03771E+00  9.92418E-01  4.52961E-02
    9043.370     49.215   3.840  1.04446E+00  9.92098E-01  5.23641E-02
    9044.546     50.392   3.880  1.04831E+00  9.91819E-01  5.64961E-02
    9045.735     51.581   3.920  1.04873E+00  9.91582E-01  5.71457E-02
    9046.936     52.781   3.960  1.04611E+00  9.91389E-01  5.47195E-02
    9048.149     53.995   4.000  1.04168E+00  9.91260E-01  5.04183E-02
    9049.374     55.220   4.040  1.03667E+00  9.91173E-01  4.54989E-02
    9050.612     56.457   4.080  1.03198E+00  9.91106E-01  4.08728E-02
    9051.862     57.707   4.120  1.02830E+00  9.91104E-01  3.72003E-02
    9053.123     58.969   4.160  1.02624E+00  9.91166E-01  3.50725E-02
    9054.398     60.243   4.200  1.02610E+00  9.91246E-01  3.48579E-02
    9055.684     61.529   4.240  1.02784E+00  9.91364E-01  3.64773E-02
    9056.982     62.828   4.280  1.03082E+00  9.91521E-01  3.92983E-02
    9058.293     64.138   4.320  1.03410E+00  9.91716E-01  4.23880E-02
    9059.616     65.461   4.360  1.03686E+00  9.91949E-01  4.49145E-02
    9060.951     66.796   4.400  1.03863E+00  9.92216E-01  4.64149E-02
    9062.298     68.143   4.440  1.03924E+00  9.92496E-01  4.67412E-02
    9063.657     69.503   4.480  1.03859E+00  9.92809E-01  4.57787E-02
    9065.029     70.874   4.520  1.03641E+00  9.93155E-01  4.32589E-02
    9066.413     72.258   4.560  1.03226E+00  9.93510E-01  3.87509E-02
    9067.809     73.654   4.600  1.02579E+00  9.93894E-01  3.18925E-02
    9069.217     75.062   4.640  1.01709E+00  9.94284E-01  2.28052E-02
    9070.637     76.483   4.680  1.00695E+00  9.94678E-01  1.22748E-02
    9072.070     77.915   4.720  9.96690E-01  9.95096E-01  1.59366E-03
    9073.514     79.360   4.760  9.87687E-01  9.95495E-01 -7.80847E-03
    9074.971     80.817   4.800  9.81115E-01  9.95918E-01 -1.48035E-02
    9076.441     82.286   4.840  9.77459E-01  9.96341E-01 -1.88829E-02
    9077.922     83.767   4.880  9.76532E-01  9.96761E-01 -2.02294E-02
    9079.415     85.261   4.920  9.77463E-01  9.97156E-01 -1.96936E-02
    9080.921     86.767   4.960  9.79023E-01  9.97569E-01 -1.85460E-02
    9082.439     88.284   5.000  9.79841E-01  9.97954E-01 -1.81130E-02
    9083.969     89.815   5.040  9.78959E-01  9.98331E-01 -1.93721E-02
    9085.511     91.357   5.080  9.76093E-01  9.98679E-01 -2.25858E-02
    9087.066     92.911   5.120  9.71792E-01  9.99018E-01 -2.72262E-02
    9088.633     94.478   5.160  9.67084E-01  9.99349E-01 -3.22650E-02
    9090.211     96.057   5.200  9.62979E-01  9.99645E-01 -3.66659E-02
    9091.802     97.648   5.240  9.60089E-01  9.99907E-01 -3.98187E-02
    9093.406     99.251   5.280  9.58553E-01  1.00016E+00 -4.16049E-02
    9095.021    100.867   5.320  9.58151E-01  1.00037E+00 -4.22214E-02
    9096.649    102.494   5.360  9.58735E-01  1.00055E+00 -4.18156E-02
    9098.289    104.134   5.400  9.60358E-01  1.00071E+00 -4.03544E-02
    9099.941    105.786   5.440  9.63112E-01  1.00081E+00 -3.77026E-02
    9101.605    107.450   5.480  9.67043E-01  1.00090E+00 -3.38597E-02
    9103.281    109.127   5.520  9.71900E-01  1.00095E+00 -2.90526E-02
    9104.970    110.815   5.560  9.77308E-01  1.00097E+00 -2.36577E-02
    9106.670    112.516   5.600  9.82992E-01  1.00096E+00 -1.79713E-02
    9108.383    114.229   5.640  9.88764E-01  1.00090E+00 -1.21348E-02
    9110.109    115.954   5.680  9.94532E-01  1.00082E+00 -6.28524E-03
    9111.846    117.691   5.720  9.99902E-01  1.00068E+00 -7.73621E-04
    9113.596    119.441   5.760  1.00438E+00  1.00052E+00  3.85844E-03
    9115.357    121.203   5.800  1.00742E+00  1.00033E+00  7.09409E-03
    9117.131    122.977   5.840  1.00877E+00  1.00010E+00  8.66963E-03
    9118.917    124.763   5.880  1.00850E+00  9.99830E-01  8.66775E-03
    9120.716    126.561   5.920  1.00709E+00  9.99556E-01  7.53622E-03
    9122.526    128.372   5.960  1.00533E+00  9.99222E-01  6.10948E-03
    9124.349    130.194   6.000  1.00436E+00  9.98858E-01  5.50485E-03
