# # comment:                                                     FEFF 9.9.1  
# # Source:
# # Structure
# # Reduced
# # space
# # abc:
# # angles:
# # sites:
# # POT  SCF 100  7.0000   0, screened core-hole, AFOLP (folp(0)= 1.150)
# # Abs   Z=29 Rmt= 1.133 Rnm= 1.261 K  shell
# # Pot 1 Z= 3 Rmt= 1.227 Rnm= 1.296
# # Pot 2 Z=29 Rmt= 1.122 Rnm= 1.252
# # Pot 3 Z= 8 Rmt= 1.003 Rnm= 1.117
# # Gam_ch=1.729E+00 H-L exch Vi= 0.000E+00 Vr= 0.000E+00
# # Mu=-7.496E+00eV kf=2.119E+00 Vint=-1.533E+01eV Rs_int= 1.711
# FMS rfms= 9.0000
# # PATH  Rmax=-1.000,  Keep_limit= 0.00, Heap_limit 0.00  Pwcrit= 2.50%
#  S02=0.950  Temp=   0.00  Debye_temp=   0.00  Global_sig2= 0.00000
#  Energy zero shift, vr, vi    0.00000E+00   0.00000E+00
#  Curved wave amplitude ratio filter   4.000%
#     file         sig2 tot  cw amp ratio   deg  nlegs   reff  inp sig2
#     0/   0 paths used
#  xsedge+ 50, used to normalize mu           2.4290E-04
#  -----------------------------------------------------------------------
#  omega    e    k    mu    mu0     chi     @#
    8983.940    -11.306  -1.000  3.49543E-02  5.58298E-02 -2.08755E-02
    8984.239    -11.007  -0.960  3.67009E-02  5.98796E-02 -2.31786E-02
    8984.525    -10.721  -0.920  3.85748E-02  6.43762E-02 -2.58014E-02
    8984.799    -10.446  -0.880  4.05886E-02  6.93848E-02 -2.87962E-02
    8985.062    -10.184  -0.840  4.27560E-02  7.49812E-02 -3.22252E-02
    8985.312     -9.934  -0.800  4.50923E-02  8.12532E-02 -3.61609E-02
    8985.549     -9.697  -0.760  4.76134E-02  8.83013E-02 -4.06879E-02
    8985.775     -9.471  -0.720  5.03364E-02  9.62390E-02 -4.59026E-02
    8985.988     -9.258  -0.680  5.32783E-02  1.05191E-01 -5.19129E-02
    8986.189     -9.056  -0.640  5.64551E-02  1.15289E-01 -5.88343E-02
    8986.378     -8.868  -0.600  5.98804E-02  1.26663E-01 -6.67824E-02
    8986.555     -8.691  -0.560  6.35624E-02  1.39421E-01 -7.58589E-02
    8986.720     -8.526  -0.520  6.75005E-02  1.53630E-01 -8.61291E-02
    8986.872     -8.374  -0.480  7.16806E-02  1.69272E-01 -9.75917E-02
    8987.012     -8.234  -0.440  7.60697E-02  1.86212E-01 -1.10143E-01
    8987.140     -8.106  -0.400  8.06119E-02  2.04157E-01 -1.23545E-01
    8987.256     -7.990  -0.360  8.52259E-02  2.22645E-01 -1.37419E-01
    8987.360     -7.886  -0.320  8.98080E-02  2.41080E-01 -1.51273E-01
    8987.451     -7.795  -0.280  9.42386E-02  2.58798E-01 -1.64559E-01
    8987.530     -7.715  -0.240  9.83927E-02  2.75158E-01 -1.76765E-01
    8987.598     -7.648  -0.200  1.02149E-01  2.89623E-01 -1.87473E-01
    8987.652     -7.593  -0.160  1.05398E-01  3.01797E-01 -1.96399E-01
    8987.695     -7.551  -0.120  1.08045E-01  3.11427E-01 -2.03382E-01
    8987.726     -7.520  -0.080  1.10012E-01  3.18368E-01 -2.08356E-01
    8987.750     -7.496   0.000  1.11667E-01  3.23947E-01 -2.12280E-01
    8987.805     -7.441   0.120  1.15449E-01  3.36537E-01 -2.21088E-01
    8987.847     -7.398   0.160  1.18411E-01  3.46329E-01 -2.27917E-01
    8987.902     -7.344   0.200  1.22302E-01  3.58834E-01 -2.36532E-01
    8987.969     -7.276   0.240  1.27272E-01  3.73915E-01 -2.46643E-01
    8988.049     -7.197   0.280  1.33391E-01  3.91248E-01 -2.57858E-01
    8988.140     -7.106   0.320  1.40873E-01  4.10434E-01 -2.69562E-01
    8988.244     -7.002   0.360  1.49932E-01  4.30951E-01 -2.81019E-01
    8988.360     -6.886   0.400  1.60834E-01  4.52198E-01 -2.91363E-01
    8988.488     -6.758   0.440  1.73951E-01  4.73685E-01 -2.99733E-01
    8988.628     -6.618   0.480  1.89564E-01  4.94994E-01 -3.05430E-01
    8988.780     -6.466   0.520  2.07797E-01  5.15853E-01 -3.08056E-01
    8988.945     -6.301   0.560  2.28349E-01  5.36144E-01 -3.07794E-01
    8989.122     -6.124   0.600  2.49900E-01  5.55809E-01 -3.05909E-01
    8989.311     -5.935   0.640  2.70082E-01  5.74904E-01 -3.04822E-01
    8989.512     -5.734   0.680  2.85988E-01  5.93515E-01 -3.07527E-01
    8989.725     -5.521   0.720  2.95930E-01  6.11681E-01 -3.15751E-01
    8989.951     -5.295   0.760  3.00653E-01  6.29500E-01 -3.28847E-01
    8990.188     -5.058   0.800  3.02257E-01  6.47041E-01 -3.44784E-01
    8990.438     -4.808   0.840  3.02682E-01  6.64337E-01 -3.61656E-01
    8990.700     -4.545   0.880  3.03700E-01  6.81450E-01 -3.77750E-01
    8990.975     -4.271   0.920  3.07125E-01  6.98364E-01 -3.91239E-01
    8991.261     -3.985   0.960  3.15027E-01  7.15115E-01 -4.00089E-01
    8991.560     -3.686   1.000  3.28812E-01  7.31687E-01 -4.02875E-01
    8991.871     -3.375   1.040  3.47379E-01  7.48054E-01 -4.00674E-01
    8992.194     -3.052   1.080  3.66614E-01  7.64224E-01 -3.97611E-01
    8992.529     -2.717   1.120  3.82679E-01  7.80139E-01 -3.97459E-01
    8992.877     -2.369   1.160  3.96896E-01  7.95774E-01 -3.98878E-01
    8993.236     -2.010   1.200  4.14543E-01  8.11125E-01 -3.96582E-01
    8993.608     -1.638   1.240  4.37357E-01  8.26122E-01 -3.88766E-01
    8993.992     -1.254   1.280  4.61159E-01  8.40755E-01 -3.79596E-01
    8994.388     -0.857   1.320  4.85647E-01  8.54950E-01 -3.69303E-01
    8994.797     -0.449   1.360  5.18742E-01  8.68716E-01 -3.49975E-01
    8995.218     -0.028   1.400  5.65418E-01  8.81982E-01 -3.16564E-01
    8995.650      0.404   1.440  6.22036E-01  8.94756E-01 -2.72720E-01
    8996.095      0.849   1.480  6.79051E-01  9.06966E-01 -2.27915E-01
    8996.553      1.307   1.520  7.24007E-01  9.18626E-01 -1.94619E-01
    8997.022      1.776   1.560  7.50034E-01  9.29708E-01 -1.79674E-01
    8997.504      2.258   1.600  7.62325E-01  9.40206E-01 -1.77882E-01
    8997.997      2.751   1.640  7.69019E-01  9.50076E-01 -1.81057E-01
    8998.503      3.257   1.680  7.76968E-01  9.59334E-01 -1.82366E-01
    8999.021      3.776   1.720  7.95350E-01  9.67982E-01 -1.72633E-01
    8999.552      4.306   1.760  8.33340E-01  9.76003E-01 -1.42663E-01
    9000.094      4.848   1.800  8.96541E-01  9.83417E-01 -8.68759E-02
    9000.649      5.403   1.840  9.81344E-01  9.90230E-01 -8.88609E-03
    9001.216      5.970   1.880  1.07264E+00  9.96427E-01  7.62156E-02
    9001.795      6.549   1.920  1.15722E+00  1.00206E+00  1.55160E-01
    9002.386      7.141   1.960  1.22908E+00  1.00711E+00  2.21968E-01
    9002.990      7.744   2.000  1.28333E+00  1.01161E+00  2.71713E-01
    9003.606      8.360   2.040  1.31485E+00  1.01560E+00  2.99249E-01
    9004.233      8.988   2.080  1.32255E+00  1.01906E+00  3.03487E-01
    9004.874      9.628   2.120  1.31091E+00  1.02205E+00  2.88861E-01
    9005.526     10.280   2.160  1.29306E+00  1.02457E+00  2.68488E-01
    9006.190     10.944   2.200  1.28350E+00  1.02667E+00  2.56825E-01
    9006.867     11.621   2.240  1.29030E+00  1.02836E+00  2.61942E-01
    9007.556     12.310   2.280  1.31600E+00  1.02967E+00  2.86333E-01
    9008.257     13.011   2.320  1.35430E+00  1.03063E+00  3.23665E-01
    9008.970     13.724   2.360  1.39162E+00  1.03124E+00  3.60383E-01
    9009.695     14.450   2.400  1.41448E+00  1.03157E+00  3.82912E-01
    9010.433     15.187   2.440  1.41551E+00  1.03159E+00  3.83911E-01
    9011.183     15.937   2.480  1.39190E+00  1.03138E+00  3.60515E-01
    9011.945     16.699   2.520  1.34008E+00  1.03093E+00  3.09146E-01
    9012.719     17.473   2.560  1.26775E+00  1.03027E+00  2.37480E-01
    9013.505     18.260   2.600  1.20368E+00  1.02944E+00  1.74241E-01
    9014.304     19.058   2.640  1.15215E+00  1.02844E+00  1.23715E-01
    9015.115     19.869   2.680  1.11253E+00  1.02730E+00  8.52253E-02
    9015.938     20.692   2.720  1.08178E+00  1.02605E+00  5.57315E-02
    9016.773     21.527   2.760  1.05717E+00  1.02467E+00  3.25000E-02
    9017.620     22.374   2.800  1.03683E+00  1.02323E+00  1.36016E-02
    9018.480     23.234   2.840  1.01935E+00  1.02169E+00 -2.34038E-03
    9019.351     24.106   2.880  1.00351E+00  1.02012E+00 -1.66192E-02
    9020.235     24.990   2.920  9.87951E-01  1.01850E+00 -3.05458E-02
    9021.132     25.886   2.960  9.72250E-01  1.01688E+00 -4.46259E-02
    9022.040     26.794   3.000  9.56755E-01  1.01521E+00 -5.84519E-02
    9022.960     27.714   3.040  9.42477E-01  1.01356E+00 -7.10799E-02
    9023.893     28.647   3.080  9.30485E-01  1.01193E+00 -8.14489E-02
    9024.838     29.592   3.120  9.21262E-01  1.01032E+00 -8.90573E-02
    9025.795     30.549   3.160  9.14597E-01  1.00872E+00 -9.41211E-02
    9026.764     31.518   3.200  9.09752E-01  1.00718E+00 -9.74252E-02
    9027.746     32.500   3.240  9.05835E-01  1.00568E+00 -9.98456E-02
    9028.739     33.493   3.280  9.01899E-01  1.00423E+00 -1.02332E-01
    9029.745     34.499   3.320  8.97456E-01  1.00285E+00 -1.05396E-01
    9030.763     35.517   3.360  8.92467E-01  1.00155E+00 -1.09079E-01
    9031.793     36.548   3.400  8.87024E-01  1.00030E+00 -1.13273E-01
    9032.836     37.590   3.440  8.81379E-01  9.99124E-01 -1.17745E-01
    9033.890     38.645   3.480  8.75944E-01  9.98033E-01 -1.22090E-01
    9034.957     39.711   3.520  8.71440E-01  9.97025E-01 -1.25586E-01
    9036.036     40.790   3.560  8.68289E-01  9.96123E-01 -1.27834E-01
    9037.127     41.881   3.600  8.66905E-01  9.95305E-01 -1.28400E-01
    9038.231     42.985   3.640  8.67550E-01  9.94551E-01 -1.27002E-01
    9039.346     44.100   3.680  8.70279E-01  9.93926E-01 -1.23647E-01
    9040.474     45.228   3.720  8.74814E-01  9.93367E-01 -1.18553E-01
    9041.614     46.368   3.760  8.81048E-01  9.92916E-01 -1.11868E-01
    9042.766     47.520   3.800  8.88909E-01  9.92550E-01 -1.03641E-01
    9043.930     48.685   3.840  8.98405E-01  9.92272E-01 -9.38667E-02
    9045.107     49.861   3.880  9.09672E-01  9.92101E-01 -8.24289E-02
    9046.296     51.050   3.920  9.22741E-01  9.91993E-01 -6.92525E-02
    9047.497     52.251   3.960  9.37508E-01  9.91994E-01 -5.44860E-02
    9048.710     53.464   4.000  9.53635E-01  9.92101E-01 -3.84664E-02
    9049.935     54.689   4.040  9.70676E-01  9.92269E-01 -2.15935E-02
    9051.172     55.927   4.080  9.88141E-01  9.92521E-01 -4.38020E-03
    9052.422     57.176   4.120  1.00547E+00  9.92875E-01  1.25913E-02
    9053.684     58.438   4.160  1.02206E+00  9.93287E-01  2.87682E-02
    9054.958     59.712   4.200  1.03743E+00  9.93776E-01  4.36496E-02
    9056.244     60.998   4.240  1.05108E+00  9.94340E-01  5.67347E-02
    9057.543     62.297   4.280  1.06261E+00  9.94958E-01  6.76487E-02
    9058.853     63.608   4.320  1.07171E+00  9.95648E-01  7.60589E-02
    9060.176     64.930   4.360  1.07814E+00  9.96408E-01  8.17291E-02
    9061.511     66.265   4.400  1.08191E+00  9.97195E-01  8.47147E-02
    9062.858     67.613   4.440  1.08349E+00  9.98049E-01  8.54462E-02
    9064.218     68.972   4.480  1.08354E+00  9.98969E-01  8.45718E-02
    9065.589     70.344   4.520  1.08259E+00  9.99907E-01  8.26872E-02
    9066.973     71.727   4.560  1.08114E+00  1.00088E+00  8.02540E-02
    9068.369     73.123   4.600  1.07927E+00  1.00189E+00  7.73826E-02
    9069.777     74.532   4.640  1.07685E+00  1.00291E+00  7.39353E-02
    9071.198     75.952   4.680  1.07363E+00  1.00396E+00  6.96667E-02
    9072.630     77.384   4.720  1.06942E+00  1.00502E+00  6.43977E-02
    9074.075     78.829   4.760  1.06424E+00  1.00611E+00  5.81324E-02
    9075.532     80.286   4.800  1.05829E+00  1.00720E+00  5.10939E-02
    9077.001     81.755   4.840  1.05188E+00  1.00829E+00  4.35891E-02
    9078.482     83.237   4.880  1.04539E+00  1.00935E+00  3.60368E-02
    9079.976     84.730   4.920  1.03946E+00  1.01043E+00  2.90298E-02
    9081.482     86.236   4.960  1.03471E+00  1.01148E+00  2.32317E-02
    9083.000     87.754   5.000  1.03165E+00  1.01249E+00  1.91623E-02
    9084.530     89.284   5.040  1.03048E+00  1.01349E+00  1.69878E-02
    9086.072     90.826   5.080  1.03086E+00  1.01446E+00  1.63989E-02
    9087.626     92.381   5.120  1.03212E+00  1.01539E+00  1.67343E-02
    9089.193     93.947   5.160  1.03345E+00  1.01630E+00  1.71549E-02
    9090.772     95.526   5.200  1.03403E+00  1.01714E+00  1.68907E-02
    9092.363     97.117   5.240  1.03339E+00  1.01794E+00  1.54459E-02
    9093.966     98.720   5.280  1.03141E+00  1.01870E+00  1.27144E-02
    9095.582    100.336   5.320  1.02841E+00  1.01941E+00  9.00346E-03
    9097.209    101.963   5.360  1.02482E+00  1.02004E+00  4.78268E-03
    9098.849    103.603   5.400  1.02098E+00  1.02060E+00  3.78138E-04
    9100.501    105.255   5.440  1.01697E+00  1.02113E+00 -4.16814E-03
    9102.165    106.919   5.480  1.01252E+00  1.02157E+00 -9.04903E-03
    9103.842    108.596   5.520  1.00737E+00  1.02195E+00 -1.45836E-02
    9105.530    110.284   5.560  1.00122E+00  1.02228E+00 -2.10647E-02
    9107.231    111.985   5.600  9.94016E-01  1.02252E+00 -2.84992E-02
    9108.944    113.698   5.640  9.86224E-01  1.02269E+00 -3.64670E-02
    9110.669    115.423   5.680  9.78656E-01  1.02279E+00 -4.41347E-02
    9112.407    117.161   5.720  9.72351E-01  1.02283E+00 -5.04835E-02
    9114.156    118.910   5.760  9.68219E-01  1.02278E+00 -5.45592E-02
    9115.918    120.672   5.800  9.66912E-01  1.02267E+00 -5.57577E-02
    9117.692    122.446   5.840  9.68581E-01  1.02249E+00 -5.39049E-02
    9119.478    124.232   5.880  9.72945E-01  1.02225E+00 -4.93074E-02
    9121.276    126.030   5.920  9.79195E-01  1.02194E+00 -4.27471E-02
    9123.087    127.841   5.960  9.86185E-01  1.02155E+00 -3.53644E-02
    9124.909    129.664   6.000  9.92722E-01  1.02102E+00 -2.83008E-02
