# # comment:                                                     FEFF 9.9.1  
# # Source:
# # Structure
# # Reduced
# # space
# # abc:
# # angles:
# # sites:
# # POT  SCF 100  7.0000   0, screened core-hole, AFOLP (folp(0)= 1.150)
# # Abs   Z=29 Rmt= 1.243 Rnm= 1.319 K  shell
# # Pot 1 Z=29 Rmt= 1.288 Rnm= 1.359
# # Pot 2 Z= 5 Rmt= 0.773 Rnm= 0.988
# # Pot 3 Z= 8 Rmt= 0.898 Rnm= 1.045
# # Gam_ch=1.729E+00 H-L exch Vi= 0.000E+00 Vr= 0.000E+00
# # Mu=-6.754E+00eV kf=2.392E+00 Vint=-1.696E+01eV Rs_int= 1.516
# FMS rfms= 9.0000
# # PATH  Rmax=-1.000,  Keep_limit= 0.00, Heap_limit 0.00  Pwcrit= 2.50%
#  S02=0.950  Temp=   0.00  Debye_temp=   0.00  Global_sig2= 0.00000
#  Energy zero shift, vr, vi    0.00000E+00   0.00000E+00
#  Curved wave amplitude ratio filter   4.000%
#     file         sig2 tot  cw amp ratio   deg  nlegs   reff  inp sig2
#     0/   0 paths used
#  xsedge+ 50, used to normalize mu           2.4794E-04
#  -----------------------------------------------------------------------
#  omega    e    k    mu    mu0     chi     @#
    8983.371    -10.564  -1.000  3.61939E-02  5.26321E-02 -1.64382E-02
    8983.670    -10.265  -0.960  3.80575E-02  5.64560E-02 -1.83985E-02
    8983.956     -9.979  -0.920  4.00685E-02  6.07073E-02 -2.06388E-02
    8984.231     -9.705  -0.880  4.22448E-02  6.54494E-02 -2.32046E-02
    8984.493     -9.442  -0.840  4.46070E-02  7.07559E-02 -2.61489E-02
    8984.743     -9.193  -0.800  4.71789E-02  7.67125E-02 -2.95336E-02
    8984.981     -8.955  -0.760  4.99874E-02  8.34174E-02 -3.34299E-02
    8985.206     -8.729  -0.720  5.30629E-02  9.09816E-02 -3.79187E-02
    8985.419     -8.516  -0.680  5.64381E-02  9.95274E-02 -4.30893E-02
    8985.621     -8.315  -0.640  6.01474E-02  1.09184E-01 -4.90369E-02
    8985.810     -8.126  -0.600  6.42234E-02  1.20079E-01 -5.58559E-02
    8985.986     -7.949  -0.560  6.86927E-02  1.32321E-01 -6.36285E-02
    8986.151     -7.784  -0.520  7.35678E-02  1.45975E-01 -7.24069E-02
    8986.303     -7.632  -0.480  7.88373E-02  1.61026E-01 -8.21888E-02
    8986.444     -7.492  -0.440  8.44542E-02  1.77343E-01 -9.28889E-02
    8986.572     -7.364  -0.400  9.03263E-02  1.94640E-01 -1.04314E-01
    8986.687     -7.248  -0.360  9.63135E-02  2.12469E-01 -1.16156E-01
    8986.791     -7.144  -0.320  1.02238E-01  2.30247E-01 -1.28009E-01
    8986.883     -7.053  -0.280  1.07903E-01  2.47327E-01 -1.39424E-01
    8986.962     -6.974  -0.240  1.13123E-01  2.63088E-01 -1.49965E-01
    8987.029     -6.907  -0.200  1.17739E-01  2.77011E-01 -1.59272E-01
    8987.084     -6.852  -0.160  1.21633E-01  2.88718E-01 -1.67085E-01
    8987.126     -6.809  -0.120  1.24718E-01  2.97969E-01 -1.73251E-01
    8987.157     -6.779  -0.080  1.26939E-01  3.04631E-01 -1.77692E-01
    8987.181     -6.754   0.000  1.28712E-01  3.09981E-01 -1.81270E-01
    8987.236     -6.699   0.120  1.33152E-01  3.22053E-01 -1.88902E-01
    8987.279     -6.657   0.160  1.36536E-01  3.31401E-01 -1.94865E-01
    8987.334     -6.602   0.200  1.40918E-01  3.43366E-01 -2.02448E-01
    8987.401     -6.535   0.240  1.46224E-01  3.57715E-01 -2.11491E-01
    8987.480     -6.455   0.280  1.52444E-01  3.74190E-01 -2.21746E-01
    8987.571     -6.364   0.320  1.59493E-01  3.92319E-01 -2.32827E-01
    8987.675     -6.260   0.360  1.67309E-01  4.11584E-01 -2.44275E-01
    8987.791     -6.145   0.400  1.75763E-01  4.31412E-01 -2.55649E-01
    8987.919     -6.017   0.440  1.84644E-01  4.51246E-01 -2.66602E-01
    8988.059     -5.876   0.480  1.93709E-01  4.70704E-01 -2.76995E-01
    8988.211     -5.724   0.520  2.02590E-01  4.89532E-01 -2.86942E-01
    8988.376     -5.559   0.560  2.10956E-01  5.07593E-01 -2.96637E-01
    8988.553     -5.383   0.600  2.18585E-01  5.24857E-01 -3.06272E-01
    8988.742     -5.194   0.640  2.25569E-01  5.41384E-01 -3.15815E-01
    8988.943     -4.992   0.680  2.32280E-01  5.57272E-01 -3.24992E-01
    8989.156     -4.779   0.720  2.39152E-01  5.72592E-01 -3.33440E-01
    8989.382     -4.554   0.760  2.46524E-01  5.87473E-01 -3.40949E-01
    8989.620     -4.316   0.800  2.54359E-01  6.01998E-01 -3.47640E-01
    8989.870     -4.066   0.840  2.62582E-01  6.16234E-01 -3.53653E-01
    8990.132     -3.804   0.880  2.71853E-01  6.30237E-01 -3.58385E-01
    8990.406     -3.529   0.920  2.83943E-01  6.44050E-01 -3.60107E-01
    8990.693     -3.243   0.960  3.01179E-01  6.57721E-01 -3.56542E-01
    8990.991     -2.944   1.000  3.25033E-01  6.71290E-01 -3.46256E-01
    8991.302     -2.633   1.040  3.54916E-01  6.84727E-01 -3.29811E-01
    8991.625     -2.310   1.080  3.89517E-01  6.98076E-01 -3.08559E-01
    8991.960     -1.975   1.120  4.29724E-01  7.11333E-01 -2.81610E-01
    8992.308     -1.627   1.160  4.77551E-01  7.24468E-01 -2.46917E-01
    8992.668     -1.268   1.200  5.30847E-01  7.37469E-01 -2.06622E-01
    8993.039     -0.896   1.240  5.83850E-01  7.50358E-01 -1.66508E-01
    8993.424     -0.512   1.280  6.32209E-01  7.63095E-01 -1.30887E-01
    8993.820     -0.116   1.320  6.73966E-01  7.75658E-01 -1.01692E-01
    8994.228      0.293   1.360  7.07685E-01  7.88042E-01 -8.03566E-02
    8994.649      0.713   1.400  7.32820E-01  8.00201E-01 -6.73813E-02
    8995.082      1.146   1.440  7.49663E-01  8.12133E-01 -6.24700E-02
    8995.527      1.591   1.480  7.58539E-01  8.23807E-01 -6.52676E-02
    8995.984      2.048   1.520  7.63396E-01  8.35216E-01 -7.18209E-02
    8996.453      2.518   1.560  7.72102E-01  8.46316E-01 -7.42139E-02
    8996.935      2.999   1.600  7.89969E-01  8.57117E-01 -6.71476E-02
    8997.429      3.493   1.640  8.17691E-01  8.67573E-01 -4.98826E-02
    8997.935      3.999   1.680  8.55727E-01  8.77698E-01 -2.19717E-02
    8998.453      4.517   1.720  9.05286E-01  8.87446E-01  1.78404E-02
    8998.983      5.048   1.760  9.65999E-01  8.96833E-01  6.91665E-02
    8999.526      5.590   1.800  1.03638E+00  9.05833E-01  1.30550E-01
    9000.080      6.145   1.840  1.11164E+00  9.14422E-01  1.97215E-01
    9000.647      6.712   1.880  1.17362E+00  9.22618E-01  2.50998E-01
    9001.226      7.291   1.920  1.20234E+00  9.30400E-01  2.71940E-01
    9001.818      7.882   1.960  1.20263E+00  9.37766E-01  2.64861E-01
    9002.421      8.486   2.000  1.20002E+00  9.44715E-01  2.55305E-01
    9003.037      9.101   2.040  1.20591E+00  9.51272E-01  2.54635E-01
    9003.665      9.729   2.080  1.21186E+00  9.57394E-01  2.54462E-01
    9004.305     10.369   2.120  1.21369E+00  9.63125E-01  2.50562E-01
    9004.957     11.022   2.160  1.22108E+00  9.68449E-01  2.52635E-01
    9005.622     11.686   2.200  1.24563E+00  9.73368E-01  2.72265E-01
    9006.298     12.363   2.240  1.28347E+00  9.77909E-01  3.05565E-01
    9006.987     13.052   2.280  1.31652E+00  9.82074E-01  3.34449E-01
    9007.688     13.753   2.320  1.33136E+00  9.85870E-01  3.45490E-01
    9008.401     14.466   2.360  1.32454E+00  9.89303E-01  3.35241E-01
    9009.127     15.191   2.400  1.29671E+00  9.92400E-01  3.04312E-01
    9009.864     15.929   2.440  1.25478E+00  9.95166E-01  2.59616E-01
    9010.614     16.679   2.480  1.20648E+00  9.97608E-01  2.08868E-01
    9011.376     17.441   2.520  1.15738E+00  9.99736E-01  1.57646E-01
    9012.150     18.215   2.560  1.11269E+00  1.00160E+00  1.11093E-01
    9012.937     19.001   2.600  1.07153E+00  1.00317E+00  6.83582E-02
    9013.735     19.800   2.640  1.02848E+00  1.00450E+00  2.39809E-02
    9014.546     20.611   2.680  9.81105E-01  1.00556E+00 -2.44584E-02
    9015.369     21.434   2.720  9.34591E-01  1.00641E+00 -7.18168E-02
    9016.204     22.269   2.760  8.96400E-01  1.00706E+00 -1.10664E-01
    9017.052     23.116   2.800  8.79160E-01  1.00750E+00 -1.28337E-01
    9017.911     23.976   2.840  8.75430E-01  1.00774E+00 -1.32307E-01
    9018.783     24.847   2.880  8.76523E-01  1.00783E+00 -1.31308E-01
    9019.667     25.731   2.920  8.79391E-01  1.00777E+00 -1.28374E-01
    9020.563     26.627   2.960  8.82611E-01  1.00757E+00 -1.24956E-01
    9021.471     27.536   3.000  8.85894E-01  1.00722E+00 -1.21330E-01
    9022.392     28.456   3.040  8.89166E-01  1.00678E+00 -1.17613E-01
    9023.324     29.389   3.080  8.92227E-01  1.00622E+00 -1.13996E-01
    9024.269     30.334   3.120  8.94979E-01  1.00558E+00 -1.10602E-01
    9025.226     31.291   3.160  8.97378E-01  1.00486E+00 -1.07480E-01
    9026.195     32.260   3.200  8.99636E-01  1.00408E+00 -1.04445E-01
    9027.177     33.242   3.240  9.02100E-01  1.00323E+00 -1.01133E-01
    9028.171     34.235   3.280  9.05131E-01  1.00234E+00 -9.72110E-02
    9029.176     35.241   3.320  9.08477E-01  1.00143E+00 -9.29561E-02
    9030.194     36.259   3.360  9.11673E-01  1.00049E+00 -8.88155E-02
    9031.225     37.289   3.400  9.14418E-01  9.99512E-01 -8.50947E-02
    9032.267     38.332   3.440  9.16616E-01  9.98530E-01 -8.19136E-02
    9033.322     39.386   3.480  9.18462E-01  9.97545E-01 -7.90831E-02
    9034.388     40.453   3.520  9.20410E-01  9.96582E-01 -7.61726E-02
    9035.467     41.532   3.560  9.22922E-01  9.95602E-01 -7.26804E-02
    9036.559     42.623   3.600  9.26311E-01  9.94649E-01 -6.83383E-02
    9037.662     43.727   3.640  9.30851E-01  9.93728E-01 -6.28774E-02
    9038.778     44.842   3.680  9.36703E-01  9.92818E-01 -5.61150E-02
    9039.905     45.970   3.720  9.43933E-01  9.91942E-01 -4.80082E-02
    9041.045     47.110   3.760  9.52444E-01  9.91103E-01 -3.86594E-02
    9042.197     48.262   3.800  9.62022E-01  9.90304E-01 -2.82825E-02
    9043.362     49.426   3.840  9.72342E-01  9.89547E-01 -1.72044E-02
    9044.538     50.603   3.880  9.83045E-01  9.88852E-01 -5.80667E-03
    9045.727     51.792   3.920  9.93797E-01  9.88179E-01  5.61836E-03
    9046.928     52.992   3.960  1.00436E+00  9.87570E-01  1.67930E-02
    9048.141     54.206   4.000  1.01440E+00  9.87006E-01  2.73986E-02
    9049.366     55.431   4.040  1.02365E+00  9.86487E-01  3.71630E-02
    9050.604     56.668   4.080  1.03192E+00  9.86036E-01  4.58838E-02
    9051.853     57.918   4.120  1.03907E+00  9.85633E-01  5.34339E-02
    9053.115     59.180   4.160  1.04510E+00  9.85297E-01  5.98036E-02
    9054.389     60.454   4.200  1.05003E+00  9.85006E-01  6.50214E-02
    9055.676     61.740   4.240  1.05380E+00  9.84762E-01  6.90346E-02
    9056.974     63.039   4.280  1.05628E+00  9.84586E-01  7.16954E-02
    9058.285     64.349   4.320  1.05749E+00  9.84455E-01  7.30377E-02
    9059.607     65.672   4.360  1.05759E+00  9.84369E-01  7.32213E-02
    9060.943     67.007   4.400  1.05684E+00  9.84347E-01  7.24884E-02
    9062.290     68.354   4.440  1.05544E+00  9.84348E-01  7.10901E-02
    9063.649     69.714   4.480  1.05362E+00  9.84415E-01  6.92032E-02
    9065.021     71.085   4.520  1.05144E+00  9.84545E-01  6.68929E-02
    9066.405     72.469   4.560  1.04884E+00  9.84695E-01  6.41412E-02
    9067.800     73.865   4.600  1.04573E+00  9.84884E-01  6.08434E-02
    9069.209     75.273   4.640  1.04189E+00  9.85111E-01  5.67806E-02
    9070.629     76.694   4.680  1.03714E+00  9.85376E-01  5.17678E-02
    9072.062     78.126   4.720  1.03146E+00  9.85679E-01  4.57798E-02
    9073.506     79.571   4.760  1.02500E+00  9.86018E-01  3.89846E-02
    9074.963     81.028   4.800  1.01811E+00  9.86391E-01  3.17181E-02
    9076.432     82.497   4.840  1.01103E+00  9.86773E-01  2.42599E-02
    9077.914     83.978   4.880  1.00378E+00  9.87161E-01  1.66140E-02
    9079.407     85.472   4.920  9.96163E-01  9.87579E-01  8.58365E-03
    9080.913     86.978   4.960  9.87989E-01  9.88005E-01 -1.61344E-05
    9082.431     88.495   5.000  9.79344E-01  9.88456E-01 -9.11240E-03
    9083.961     90.026   5.040  9.70622E-01  9.88911E-01 -1.82890E-02
    9085.503     91.568   5.080  9.62455E-01  9.89366E-01 -2.69105E-02
    9087.058     93.122   5.120  9.55510E-01  9.89798E-01 -3.42877E-02
    9088.624     94.689   5.160  9.50348E-01  9.90250E-01 -3.99022E-02
    9090.203     96.268   5.200  9.47198E-01  9.90700E-01 -4.35016E-02
    9091.794     97.859   5.240  9.46016E-01  9.91124E-01 -4.51082E-02
    9093.397     99.462   5.280  9.46635E-01  9.91564E-01 -4.49295E-02
    9095.013    101.078   5.320  9.48647E-01  9.91954E-01 -4.33068E-02
    9096.641    102.705   5.360  9.51633E-01  9.92356E-01 -4.07229E-02
    9098.280    104.345   5.400  9.54994E-01  9.92726E-01 -3.77319E-02
    9099.932    105.997   5.440  9.58213E-01  9.93061E-01 -3.48479E-02
    9101.597    107.661   5.480  9.60952E-01  9.93361E-01 -3.24089E-02
    9103.273    109.338   5.520  9.63116E-01  9.93648E-01 -3.05318E-02
    9104.962    111.026   5.560  9.64738E-01  9.93901E-01 -2.91630E-02
    9106.662    112.727   5.600  9.65917E-01  9.94140E-01 -2.82230E-02
    9108.375    114.440   5.640  9.66626E-01  9.94319E-01 -2.76931E-02
    9110.100    116.165   5.680  9.66895E-01  9.94479E-01 -2.75841E-02
    9111.838    117.902   5.720  9.66691E-01  9.94578E-01 -2.78869E-02
    9113.587    119.652   5.760  9.66098E-01  9.94659E-01 -2.85604E-02
    9115.349    121.414   5.800  9.65161E-01  9.94677E-01 -2.95167E-02
    9117.123    123.188   5.840  9.64105E-01  9.94678E-01 -3.05726E-02
    9118.909    124.974   5.880  9.63161E-01  9.94615E-01 -3.14546E-02
    9120.707    126.772   5.920  9.62669E-01  9.94511E-01 -3.18420E-02
    9122.518    128.583   5.960  9.63055E-01  9.94389E-01 -3.13342E-02
    9124.341    130.405   6.000  9.64918E-01  9.94173E-01 -2.92546E-02
