# # comment:                                                     FEFF 9.9.1  
# # Source:
# # Structure
# # Reduced
# # space
# # abc:
# # angles:
# # sites:
# # POT  SCF 100  7.0000   0, screened core-hole, AFOLP (folp(0)= 1.150)
# # Abs   Z=29 Rmt= 1.248 Rnm= 1.310 K  shell
# # Pot 1 Z=24 Rmt= 1.162 Rnm= 1.351
# # Pot 2 Z=29 Rmt= 1.237 Rnm= 1.305
# # Pot 3 Z= 8 Rmt= 0.799 Rnm= 0.987
# # Pot 4 Z= 9 Rmt= 1.025 Rnm= 1.153
# # Gam_ch=1.729E+00 H-L exch Vi= 0.000E+00 Vr= 0.000E+00
# # Mu=-7.130E+00eV kf=2.326E+00 Vint=-1.488E+01eV Rs_int= 1.559
# FMS rfms= 9.0000
# # PATH  Rmax=-1.000,  Keep_limit= 0.00, Heap_limit 0.00  Pwcrit= 2.50%
#  S02=0.950  Temp=   0.00  Debye_temp=   0.00  Global_sig2= 0.00000
#  Energy zero shift, vr, vi    0.00000E+00   0.00000E+00
#  Curved wave amplitude ratio filter   4.000%
#     file         sig2 tot  cw amp ratio   deg  nlegs   reff  inp sig2
#     0/   0 paths used
#  xsedge+ 50, used to normalize mu           2.4436E-04
#  -----------------------------------------------------------------------
#  omega    e    k    mu    mu0     chi     @#
    8983.333    -10.940  -1.000  3.64856E-02  5.65869E-02 -2.01013E-02
    8983.632    -10.641  -0.960  3.82209E-02  6.07416E-02 -2.25208E-02
    8983.918    -10.355  -0.920  4.00670E-02  6.53591E-02 -2.52921E-02
    8984.193    -10.081  -0.880  4.20341E-02  7.05073E-02 -2.84732E-02
    8984.455     -9.819  -0.840  4.41331E-02  7.62650E-02 -3.21319E-02
    8984.705     -9.569  -0.800  4.63765E-02  8.27237E-02 -3.63472E-02
    8984.942     -9.331  -0.760  4.87778E-02  8.99883E-02 -4.12104E-02
    8985.168     -9.105  -0.720  5.13518E-02  9.81770E-02 -4.68252E-02
    8985.381     -8.892  -0.680  5.41138E-02  1.07420E-01 -5.33062E-02
    8985.583     -8.691  -0.640  5.70790E-02  1.17855E-01 -6.07759E-02
    8985.772     -8.502  -0.600  6.02608E-02  1.29616E-01 -6.93553E-02
    8985.948     -8.325  -0.560  6.36682E-02  1.42819E-01 -7.91505E-02
    8986.113     -8.160  -0.520  6.73022E-02  1.57531E-01 -9.02285E-02
    8986.265     -8.008  -0.480  7.11504E-02  1.73736E-01 -1.02586E-01
    8986.406     -7.868  -0.440  7.51816E-02  1.91294E-01 -1.16112E-01
    8986.534     -7.740  -0.400  7.93401E-02  2.09898E-01 -1.30558E-01
    8986.649     -7.624  -0.360  8.35452E-02  2.29072E-01 -1.45527E-01
    8986.753     -7.520  -0.320  8.76938E-02  2.48193E-01 -1.60499E-01
    8986.844     -7.429  -0.280  9.16706E-02  2.66570E-01 -1.74899E-01
    8986.924     -7.350  -0.240  9.53600E-02  2.83539E-01 -1.88179E-01
    8986.991     -7.283  -0.200  9.86574E-02  2.98540E-01 -1.99883E-01
    8987.046     -7.228  -0.160  1.01476E-01  3.11165E-01 -2.09689E-01
    8987.088     -7.185  -0.120  1.03748E-01  3.21149E-01 -2.17400E-01
    8987.119     -7.155  -0.080  1.05425E-01  3.28344E-01 -2.22920E-01
    8987.143     -7.130   0.000  1.06831E-01  3.34127E-01 -2.27296E-01
    8987.198     -7.075   0.120  1.09962E-01  3.47178E-01 -2.37215E-01
    8987.241     -7.033   0.160  1.12370E-01  3.57315E-01 -2.44945E-01
    8987.296     -6.978   0.200  1.15489E-01  3.70275E-01 -2.54786E-01
    8987.363     -6.911   0.240  1.19338E-01  3.85870E-01 -2.66532E-01
    8987.442     -6.832   0.280  1.23958E-01  4.03823E-01 -2.79865E-01
    8987.533     -6.740   0.320  1.29341E-01  4.23654E-01 -2.94313E-01
    8987.637     -6.636   0.360  1.35508E-01  4.44835E-01 -3.09327E-01
    8987.753     -6.521   0.400  1.42482E-01  4.66760E-01 -3.24278E-01
    8987.881     -6.393   0.440  1.50294E-01  4.88873E-01 -3.38579E-01
    8988.021     -6.252   0.480  1.58983E-01  5.10737E-01 -3.51754E-01
    8988.173     -6.100   0.520  1.68663E-01  5.32086E-01 -3.63423E-01
    8988.338     -5.935   0.560  1.79410E-01  5.52774E-01 -3.73365E-01
    8988.515     -5.759   0.600  1.91270E-01  5.72763E-01 -3.81493E-01
    8988.704     -5.570   0.640  2.04211E-01  5.92106E-01 -3.87895E-01
    8988.905     -5.368   0.680  2.17801E-01  6.10831E-01 -3.93030E-01
    8989.118     -5.155   0.720  2.31185E-01  6.29020E-01 -3.97836E-01
    8989.344     -4.930   0.760  2.43303E-01  6.46775E-01 -4.03472E-01
    8989.582     -4.692   0.800  2.53817E-01  6.64165E-01 -4.10348E-01
    8989.831     -4.442   0.840  2.64064E-01  6.81207E-01 -4.17143E-01
    8990.094     -4.180   0.880  2.76350E-01  6.97942E-01 -4.21592E-01
    8990.368     -3.905   0.920  2.92529E-01  7.14418E-01 -4.21889E-01
    8990.654     -3.619   0.960  3.13269E-01  7.30592E-01 -4.17323E-01
    8990.953     -3.320   1.000  3.38599E-01  7.46508E-01 -4.07909E-01
    8991.264     -3.009   1.040  3.68692E-01  7.62144E-01 -3.93452E-01
    8991.587     -2.686   1.080  4.04553E-01  7.77448E-01 -3.72895E-01
    8991.922     -2.351   1.120  4.47514E-01  7.92424E-01 -3.44910E-01
    8992.270     -2.003   1.160  4.97308E-01  8.07032E-01 -3.09724E-01
    8992.630     -1.644   1.200  5.52043E-01  8.21249E-01 -2.69206E-01
    8993.001     -1.272   1.240  6.12360E-01  8.35048E-01 -2.22689E-01
    8993.385     -0.888   1.280  6.83248E-01  8.48405E-01 -1.65157E-01
    8993.782     -0.492   1.320  7.67710E-01  8.61269E-01 -9.35595E-02
    8994.190     -0.083   1.360  8.58912E-01  8.73634E-01 -1.47215E-02
    8994.611      0.337   1.400  9.34657E-01  8.85454E-01  4.92031E-02
    8995.044      0.770   1.440  9.67147E-01  8.96742E-01  7.04045E-02
    8995.489      1.215   1.480  9.61220E-01  9.07454E-01  5.37660E-02
    8995.946      1.672   1.520  9.49682E-01  9.17588E-01  3.20936E-02
    8996.415      2.142   1.560  9.50339E-01  9.27140E-01  2.31990E-02
    8996.897      2.623   1.600  9.61842E-01  9.36092E-01  2.57508E-02
    8997.390      3.117   1.640  9.79761E-01  9.44464E-01  3.52971E-02
    8997.896      3.623   1.680  1.00350E+00  9.52240E-01  5.12564E-02
    8998.415      4.141   1.720  1.03528E+00  9.59426E-01  7.58564E-02
    8998.945      4.672   1.760  1.07534E+00  9.66046E-01  1.09294E-01
    8999.487      5.214   1.800  1.12193E+00  9.72111E-01  1.49819E-01
    9000.042      5.769   1.840  1.17469E+00  9.77628E-01  1.97067E-01
    9000.609      6.336   1.880  1.22821E+00  9.82606E-01  2.45607E-01
    9001.188      6.915   1.920  1.26904E+00  9.87097E-01  2.81940E-01
    9001.780      7.506   1.960  1.29104E+00  9.91093E-01  2.99947E-01
    9002.383      8.110   2.000  1.29679E+00  9.94605E-01  3.02182E-01
    9002.999      8.725   2.040  1.28594E+00  9.97708E-01  2.88229E-01
    9003.627      9.353   2.080  1.26113E+00  1.00039E+00  2.60736E-01
    9004.267      9.993   2.120  1.23089E+00  1.00268E+00  2.28208E-01
    9004.919     10.646   2.160  1.20083E+00  1.00461E+00  1.96223E-01
    9005.583     11.310   2.200  1.17840E+00  1.00618E+00  1.72220E-01
    9006.260     11.987   2.240  1.17512E+00  1.00746E+00  1.67667E-01
    9006.949     12.676   2.280  1.19356E+00  1.00846E+00  1.85105E-01
    9007.650     13.377   2.320  1.21908E+00  1.00918E+00  2.09899E-01
    9008.363     14.090   2.360  1.23056E+00  1.00966E+00  2.20901E-01
    9009.089     14.815   2.400  1.21843E+00  1.00995E+00  2.08474E-01
    9009.826     15.553   2.440  1.19082E+00  1.01004E+00  1.80781E-01
    9010.576     16.303   2.480  1.15866E+00  1.00993E+00  1.48730E-01
    9011.338     17.065   2.520  1.12373E+00  1.00969E+00  1.14046E-01
    9012.112     17.839   2.560  1.08744E+00  1.00932E+00  7.81202E-02
    9012.899     18.625   2.600  1.05615E+00  1.00885E+00  4.73032E-02
    9013.697     19.424   2.640  1.03441E+00  1.00827E+00  2.61491E-02
    9014.508     20.235   2.680  1.02074E+00  1.00760E+00  1.31342E-02
    9015.331     21.058   2.720  1.00948E+00  1.00689E+00  2.59586E-03
    9016.166     21.893   2.760  9.95632E-01  1.00612E+00 -1.04911E-02
    9017.013     22.740   2.800  9.79957E-01  1.00532E+00 -2.53647E-02
    9017.873     23.600   2.840  9.64605E-01  1.00451E+00 -3.99029E-02
    9018.745     24.471   2.880  9.50454E-01  1.00367E+00 -5.32124E-02
    9019.629     25.355   2.920  9.37817E-01  1.00284E+00 -6.50265E-02
    9020.525     26.251   2.960  9.26823E-01  1.00200E+00 -7.51801E-02
    9021.433     27.160   3.000  9.17513E-01  1.00121E+00 -8.36986E-02
    9022.353     28.080   3.040  9.09695E-01  1.00041E+00 -9.07156E-02
    9023.286     29.013   3.080  9.03456E-01  9.99667E-01 -9.62111E-02
    9024.231     29.958   3.120  8.98909E-01  9.98963E-01 -1.00054E-01
    9025.188     30.915   3.160  8.96296E-01  9.98300E-01 -1.02004E-01
    9026.157     31.884   3.200  8.96037E-01  9.97682E-01 -1.01645E-01
    9027.139     32.865   3.240  8.98601E-01  9.97132E-01 -9.85304E-02
    9028.132     33.859   3.280  9.04200E-01  9.96629E-01 -9.24289E-02
    9029.138     34.865   3.320  9.11997E-01  9.96176E-01 -8.41791E-02
    9030.156     35.883   3.360  9.21012E-01  9.95815E-01 -7.48035E-02
    9031.187     36.913   3.400  9.30090E-01  9.95486E-01 -6.53956E-02
    9032.229     37.956   3.440  9.38163E-01  9.95251E-01 -5.70875E-02
    9033.284     39.010   3.480  9.44491E-01  9.95068E-01 -5.05762E-02
    9034.350     40.077   3.520  9.49090E-01  9.94958E-01 -4.58679E-02
    9035.429     41.156   3.560  9.52279E-01  9.94900E-01 -4.26216E-02
    9036.521     42.247   3.600  9.54624E-01  9.94916E-01 -4.02912E-02
    9037.624     43.351   3.640  9.56544E-01  9.95005E-01 -3.84603E-02
    9038.739     44.466   3.680  9.58279E-01  9.95146E-01 -3.68666E-02
    9039.867     45.594   3.720  9.60005E-01  9.95357E-01 -3.53518E-02
    9041.007     46.734   3.760  9.62005E-01  9.95617E-01 -3.36125E-02
    9042.159     47.886   3.800  9.64661E-01  9.95948E-01 -3.12868E-02
    9043.324     49.050   3.840  9.68239E-01  9.96327E-01 -2.80879E-02
    9044.500     50.227   3.880  9.73037E-01  9.96771E-01 -2.37342E-02
    9045.689     51.416   3.920  9.79200E-01  9.97238E-01 -1.80380E-02
    9046.890     52.616   3.960  9.86743E-01  9.97768E-01 -1.10247E-02
    9048.103     53.830   4.000  9.95461E-01  9.98340E-01 -2.87833E-03
    9049.328     55.055   4.040  1.00498E+00  9.98950E-01  6.03453E-03
    9050.566     56.292   4.080  1.01469E+00  9.99575E-01  1.51174E-02
    9051.815     57.542   4.120  1.02395E+00  1.00026E+00  2.36943E-02
    9053.077     58.804   4.160  1.03200E+00  1.00095E+00  3.10534E-02
    9054.351     60.078   4.200  1.03811E+00  1.00165E+00  3.64636E-02
    9055.638     61.364   4.240  1.04175E+00  1.00238E+00  3.93728E-02
    9056.936     62.663   4.280  1.04292E+00  1.00314E+00  3.97785E-02
    9058.247     63.973   4.320  1.04209E+00  1.00388E+00  3.82036E-02
    9059.569     65.296   4.360  1.04017E+00  1.00465E+00  3.55253E-02
    9060.904     66.631   4.400  1.03809E+00  1.00541E+00  3.26806E-02
    9062.252     67.978   4.440  1.03656E+00  1.00615E+00  3.04122E-02
    9063.611     69.338   4.480  1.03606E+00  1.00690E+00  2.91629E-02
    9064.983     70.709   4.520  1.03670E+00  1.00763E+00  2.90688E-02
    9066.366     72.093   4.560  1.03830E+00  1.00835E+00  2.99513E-02
    9067.762     73.489   4.600  1.04049E+00  1.00903E+00  3.14548E-02
    9069.171     74.897   4.640  1.04291E+00  1.00968E+00  3.32332E-02
    9070.591     76.318   4.680  1.04536E+00  1.01032E+00  3.50397E-02
    9072.023     77.750   4.720  1.04765E+00  1.01094E+00  3.67103E-02
    9073.468     79.195   4.760  1.04970E+00  1.01151E+00  3.81909E-02
    9074.925     80.652   4.800  1.05154E+00  1.01205E+00  3.94863E-02
    9076.394     82.121   4.840  1.05299E+00  1.01253E+00  4.04568E-02
    9077.876     83.602   4.880  1.05374E+00  1.01299E+00  4.07493E-02
    9079.369     85.096   4.920  1.05322E+00  1.01338E+00  3.98338E-02
    9080.875     86.601   4.960  1.05091E+00  1.01373E+00  3.71750E-02
    9082.393     88.119   5.000  1.04657E+00  1.01404E+00  3.25332E-02
    9083.923     89.649   5.040  1.04041E+00  1.01430E+00  2.61173E-02
    9085.465     91.192   5.080  1.03300E+00  1.01451E+00  1.84887E-02
    9087.020     92.746   5.120  1.02499E+00  1.01466E+00  1.03321E-02
    9088.586     94.313   5.160  1.01703E+00  1.01475E+00  2.27305E-03
    9090.165     95.892   5.200  1.00963E+00  1.01480E+00 -5.17061E-03
    9091.756     97.483   5.240  1.00312E+00  1.01478E+00 -1.16646E-02
    9093.359     99.086   5.280  9.97654E-01  1.01474E+00 -1.70892E-02
    9094.975    100.701   5.320  9.93130E-01  1.01463E+00 -2.15016E-02
    9096.602    102.329   5.360  9.89457E-01  1.01445E+00 -2.49937E-02
    9098.242    103.969   5.400  9.86611E-01  1.01424E+00 -2.76341E-02
    9099.894    105.621   5.440  9.84544E-01  1.01397E+00 -2.94291E-02
    9101.558    107.285   5.480  9.83245E-01  1.01366E+00 -3.04119E-02
    9103.235    108.962   5.520  9.82615E-01  1.01330E+00 -3.06808E-02
    9104.923    110.650   5.560  9.82409E-01  1.01289E+00 -3.04830E-02
    9106.624    112.351   5.600  9.82329E-01  1.01242E+00 -3.00936E-02
    9108.337    114.064   5.640  9.82222E-01  1.01194E+00 -2.97155E-02
    9110.062    115.789   5.680  9.81982E-01  1.01141E+00 -2.94330E-02
    9111.800    117.526   5.720  9.81485E-01  1.01085E+00 -2.93685E-02
    9113.549    119.276   5.760  9.80429E-01  1.01026E+00 -2.98269E-02
    9115.311    121.038   5.800  9.78389E-01  1.00965E+00 -3.12607E-02
    9117.085    122.812   5.840  9.75140E-01  1.00901E+00 -3.38720E-02
    9118.871    124.598   5.880  9.71057E-01  1.00835E+00 -3.72882E-02
    9120.669    126.396   5.920  9.67088E-01  1.00768E+00 -4.05892E-02
    9122.480    128.207   5.960  9.64392E-01  1.00699E+00 -4.25985E-02
    9124.303    130.029   6.000  9.64122E-01  1.00629E+00 -4.21644E-02
