# # comment:                                                     FEFF 9.9.1  
# # Source:
# # Structure
# # Reduced
# # space
# # abc:
# # angles:
# # sites:
# # POT  SCF 100  7.0000   0, screened core-hole, AFOLP (folp(0)= 1.150)
# # Abs   Z=29 Rmt= 1.183 Rnm= 1.328 K  shell
# # Pot 1 Z=66 Rmt= 1.596 Rnm= 1.680
# # Pot 2 Z=29 Rmt= 1.174 Rnm= 1.290
# # Pot 3 Z= 8 Rmt= 1.037 Rnm= 1.110
# # Gam_ch=1.729E+00 H-L exch Vi= 0.000E+00 Vr= 0.000E+00
# # Mu=-7.394E+00eV kf=2.113E+00 Vint=-1.684E+01eV Rs_int= 1.716
# FMS rfms= 9.0000
# # PATH  Rmax=-1.000,  Keep_limit= 0.00, Heap_limit 0.00  Pwcrit= 2.50%
#  S02=0.950  Temp=   0.00  Debye_temp=   0.00  Global_sig2= 0.00000
#  Energy zero shift, vr, vi    0.00000E+00   0.00000E+00
#  Curved wave amplitude ratio filter   4.000%
#     file         sig2 tot  cw amp ratio   deg  nlegs   reff  inp sig2
#     0/   0 paths used
#  xsedge+ 50, used to normalize mu           2.4797E-04
#  -----------------------------------------------------------------------
#  omega    e    k    mu    mu0     chi     @#
    8983.774    -11.204  -1.000  4.00550E-02  5.34853E-02 -1.34303E-02
    8984.073    -10.905  -0.960  4.23631E-02  5.73736E-02 -1.50105E-02
    8984.359    -10.618  -0.920  4.48819E-02  6.16954E-02 -1.68136E-02
    8984.634    -10.344  -0.880  4.76401E-02  6.65147E-02 -1.88746E-02
    8984.896    -10.082  -0.840  5.06713E-02  7.19060E-02 -2.12346E-02
    8985.146     -9.832  -0.800  5.40145E-02  7.79556E-02 -2.39411E-02
    8985.383     -9.594  -0.760  5.77145E-02  8.47627E-02 -2.70482E-02
    8985.609     -9.369  -0.720  6.18222E-02  9.24393E-02 -3.06171E-02
    8985.822     -9.155  -0.680  6.63938E-02  1.01109E-01 -3.47151E-02
    8986.023     -8.954  -0.640  7.14889E-02  1.10902E-01 -3.94129E-02
    8986.212     -8.765  -0.600  7.71663E-02  1.21946E-01 -4.47798E-02
    8986.389     -8.588  -0.560  8.34767E-02  1.34351E-01 -5.08744E-02
    8986.554     -8.424  -0.520  9.04512E-02  1.48182E-01 -5.77308E-02
    8986.706     -8.271  -0.480  9.80852E-02  1.63425E-01 -6.53394E-02
    8986.846     -8.131  -0.440  1.06320E-01  1.79945E-01 -7.36248E-02
    8986.974     -8.003  -0.400  1.15027E-01  1.97455E-01 -8.24278E-02
    8987.090     -7.887  -0.360  1.24000E-01  2.15502E-01 -9.15021E-02
    8987.194     -7.784  -0.320  1.32964E-01  2.33497E-01 -1.00533E-01
    8987.285     -7.692  -0.280  1.41608E-01  2.50787E-01 -1.09179E-01
    8987.365     -7.613  -0.240  1.49621E-01  2.66744E-01 -1.17123E-01
    8987.432     -7.546  -0.200  1.56734E-01  2.80844E-01 -1.24110E-01
    8987.486     -7.491  -0.160  1.62740E-01  2.92703E-01 -1.29963E-01
    8987.529     -7.448  -0.120  1.67496E-01  3.02075E-01 -1.34578E-01
    8987.560     -7.418  -0.080  1.70916E-01  3.08826E-01 -1.37910E-01
    8987.584     -7.394   0.000  1.73616E-01  3.14249E-01 -1.40633E-01
    8987.639     -7.339   0.120  1.79869E-01  3.26477E-01 -1.46609E-01
    8987.681     -7.296   0.160  1.84792E-01  3.35980E-01 -1.51187E-01
    8987.736     -7.241   0.200  1.91058E-01  3.48092E-01 -1.57034E-01
    8987.803     -7.174   0.240  1.98561E-01  3.62666E-01 -1.64105E-01
    8987.883     -7.095   0.280  2.07032E-01  3.79405E-01 -1.72373E-01
    8987.974     -7.003   0.320  2.15970E-01  3.97839E-01 -1.81869E-01
    8988.078     -6.900   0.360  2.24786E-01  4.17471E-01 -1.92685E-01
    8988.194     -6.784   0.400  2.32699E-01  4.37691E-01 -2.04992E-01
    8988.322     -6.656   0.440  2.39066E-01  4.57980E-01 -2.18914E-01
    8988.462     -6.516   0.480  2.43582E-01  4.77955E-01 -2.34373E-01
    8988.614     -6.363   0.520  2.46422E-01  4.97302E-01 -2.50880E-01
    8988.779     -6.199   0.560  2.48459E-01  5.15924E-01 -2.67466E-01
    8988.956     -6.022   0.600  2.50877E-01  5.33810E-01 -2.82932E-01
    8989.145     -5.833   0.640  2.54973E-01  5.50997E-01 -2.96024E-01
    8989.346     -5.632   0.680  2.61859E-01  5.67541E-01 -3.05682E-01
    8989.559     -5.419   0.720  2.72389E-01  5.83572E-01 -3.11183E-01
    8989.785     -5.193   0.760  2.87034E-01  5.99176E-01 -3.12142E-01
    8990.022     -4.955   0.800  3.05873E-01  6.14412E-01 -3.08539E-01
    8990.272     -4.705   0.840  3.28765E-01  6.29386E-01 -3.00621E-01
    8990.534     -4.443   0.880  3.55370E-01  6.44129E-01 -2.88759E-01
    8990.809     -4.169   0.920  3.85336E-01  6.58680E-01 -2.73343E-01
    8991.095     -3.882   0.960  4.18465E-01  6.73087E-01 -2.54621E-01
    8991.394     -3.584   1.000  4.54624E-01  6.87344E-01 -2.32720E-01
    8991.705     -3.273   1.040  4.93176E-01  7.01458E-01 -2.08283E-01
    8992.028     -2.950   1.080  5.32103E-01  7.15472E-01 -1.83369E-01
    8992.363     -2.614   1.120  5.67802E-01  7.29316E-01 -1.61513E-01
    8992.711     -2.267   1.160  5.96324E-01  7.43017E-01 -1.46692E-01
    8993.070     -1.907   1.200  6.16424E-01  7.56561E-01 -1.40138E-01
    8993.442     -1.535   1.240  6.31265E-01  7.69908E-01 -1.38644E-01
    8993.826     -1.151   1.280  6.44694E-01  7.83055E-01 -1.38361E-01
    8994.222     -0.755   1.320  6.59889E-01  7.95958E-01 -1.36069E-01
    8994.631     -0.347   1.360  6.84353E-01  8.08610E-01 -1.24257E-01
    8995.052      0.074   1.400  7.27754E-01  8.20986E-01 -9.32324E-02
    8995.484      0.507   1.440  7.93389E-01  8.33078E-01 -3.96897E-02
    8995.929      0.952   1.480  8.70933E-01  8.44820E-01  2.61131E-02
    8996.387      1.409   1.520  9.34886E-01  8.56244E-01  7.86417E-02
    8996.856      1.878   1.560  9.65121E-01  8.67281E-01  9.78402E-02
    8997.338      2.360   1.600  9.68426E-01  8.77946E-01  9.04804E-02
    8997.831      2.854   1.640  9.60009E-01  8.88213E-01  7.17968E-02
    8998.337      3.360   1.680  9.47235E-01  8.98075E-01  4.91592E-02
    8998.855      3.878   1.720  9.32843E-01  9.07489E-01  2.53530E-02
    8999.386      4.408   1.760  9.16170E-01  9.16493E-01 -3.23041E-04
    8999.928      4.951   1.800  9.00494E-01  9.25041E-01 -2.45466E-02
    9000.483      5.505   1.840  8.95344E-01  9.33132E-01 -3.77880E-02
    9001.050      6.072   1.880  9.09313E-01  9.40789E-01 -3.14757E-02
    9001.629      6.652   1.920  9.42518E-01  9.47970E-01 -5.45141E-03
    9002.220      7.243   1.960  9.86240E-01  9.54737E-01  3.15032E-02
    9002.824      7.846   2.000  1.03055E+00  9.61032E-01  6.95189E-02
    9003.440      8.462   2.040  1.07168E+00  9.66899E-01  1.04777E-01
    9004.067      9.090   2.080  1.11123E+00  9.72323E-01  1.38911E-01
    9004.708      9.730   2.120  1.15181E+00  9.77327E-01  1.74479E-01
    9005.360     10.382   2.160  1.19685E+00  9.81918E-01  2.14936E-01
    9006.024     11.047   2.200  1.24319E+00  9.86123E-01  2.57064E-01
    9006.701     11.723   2.240  1.27358E+00  9.89929E-01  2.83656E-01
    9007.390     12.412   2.280  1.27301E+00  9.93361E-01  2.79654E-01
    9008.091     13.113   2.320  1.24672E+00  9.96426E-01  2.50293E-01
    9008.804     13.826   2.360  1.21367E+00  9.99132E-01  2.14534E-01
    9009.529     14.552   2.400  1.19329E+00  1.00153E+00  1.91763E-01
    9010.267     15.290   2.440  1.19144E+00  1.00361E+00  1.87832E-01
    9011.017     16.039   2.480  1.19175E+00  1.00537E+00  1.86379E-01
    9011.779     16.801   2.520  1.16996E+00  1.00687E+00  1.63094E-01
    9012.553     17.576   2.560  1.12729E+00  1.00812E+00  1.19179E-01
    9013.339     18.362   2.600  1.08291E+00  1.00909E+00  7.38158E-02
    9014.138     19.160   2.640  1.04350E+00  1.00985E+00  3.36482E-02
    9014.949     19.971   2.680  1.01050E+00  1.01040E+00  9.48699E-05
    9015.772     20.794   2.720  9.84018E-01  1.01073E+00 -2.67120E-02
    9016.607     21.629   2.760  9.63687E-01  1.01090E+00 -4.72167E-02
    9017.454     22.477   2.800  9.48302E-01  1.01089E+00 -6.25900E-02
    9018.314     23.336   2.840  9.37040E-01  1.01074E+00 -7.37012E-02
    9019.185     24.208   2.880  9.28726E-01  1.01044E+00 -8.17135E-02
    9020.069     25.092   2.920  9.22299E-01  1.01001E+00 -8.77144E-02
    9020.966     25.988   2.960  9.17619E-01  1.00949E+00 -9.18728E-02
    9021.874     26.896   3.000  9.15004E-01  1.00886E+00 -9.38542E-02
    9022.794     27.817   3.040  9.14884E-01  1.00816E+00 -9.32781E-02
    9023.727     28.749   3.080  9.17310E-01  1.00737E+00 -9.00566E-02
    9024.672     29.694   3.120  9.22036E-01  1.00652E+00 -8.44829E-02
    9025.629     30.651   3.160  9.28267E-01  1.00562E+00 -7.73570E-02
    9026.598     31.621   3.200  9.35380E-01  1.00469E+00 -6.93072E-02
    9027.580     32.602   3.240  9.43016E-01  1.00371E+00 -6.06956E-02
    9028.573     33.596   3.280  9.50706E-01  1.00270E+00 -5.19963E-02
    9029.579     34.602   3.320  9.57709E-01  1.00171E+00 -4.39973E-02
    9030.597     35.620   3.360  9.62962E-01  1.00068E+00 -3.77224E-02
    9031.627     36.650   3.400  9.65645E-01  9.99660E-01 -3.40150E-02
    9032.670     37.692   3.440  9.65365E-01  9.98637E-01 -3.32719E-02
    9033.724     38.747   3.480  9.62379E-01  9.97640E-01 -3.52603E-02
    9034.791     39.814   3.520  9.57308E-01  9.96650E-01 -3.93419E-02
    9035.870     40.893   3.560  9.51034E-01  9.95670E-01 -4.46365E-02
    9036.961     41.984   3.600  9.44574E-01  9.94743E-01 -5.01698E-02
    9038.065     43.087   3.640  9.38870E-01  9.93831E-01 -5.49602E-02
    9039.180     44.203   3.680  9.34869E-01  9.92956E-01 -5.80869E-02
    9040.308     45.330   3.720  9.33240E-01  9.92119E-01 -5.88787E-02
    9041.448     46.470   3.760  9.34459E-01  9.91324E-01 -5.68640E-02
    9042.600     47.623   3.800  9.38793E-01  9.90590E-01 -5.17969E-02
    9043.764     48.787   3.840  9.46115E-01  9.89877E-01 -4.37613E-02
    9044.941     49.963   3.880  9.56043E-01  9.89225E-01 -3.31825E-02
    9046.130     51.152   3.920  9.67812E-01  9.88599E-01 -2.07863E-02
    9047.331     52.353   3.960  9.80476E-01  9.88058E-01 -7.58187E-03
    9048.544     53.566   4.000  9.92778E-01  9.87541E-01  5.23785E-03
    9049.769     54.791   4.040  1.00366E+00  9.87089E-01  1.65752E-02
    9051.006     56.029   4.080  1.01232E+00  9.86682E-01  2.56358E-02
    9052.256     57.279   4.120  1.01839E+00  9.86319E-01  3.20701E-02
    9053.518     58.540   4.160  1.02218E+00  9.86021E-01  3.61556E-02
    9054.792     59.815   4.200  1.02429E+00  9.85745E-01  3.85422E-02
    9056.078     61.101   4.240  1.02546E+00  9.85535E-01  3.99255E-02
    9057.377     62.399   4.280  1.02618E+00  9.85390E-01  4.07919E-02
    9058.687     63.710   4.320  1.02660E+00  9.85268E-01  4.13274E-02
    9060.010     65.033   4.360  1.02666E+00  9.85207E-01  4.14547E-02
    9061.345     66.368   4.400  1.02607E+00  9.85167E-01  4.09049E-02
    9062.692     67.715   4.440  1.02464E+00  9.85189E-01  3.94539E-02
    9064.052     69.074   4.480  1.02223E+00  9.85250E-01  3.69788E-02
    9065.423     70.446   4.520  1.01891E+00  9.85350E-01  3.35587E-02
    9066.807     71.830   4.560  1.01490E+00  9.85466E-01  2.94375E-02
    9068.203     73.226   4.600  1.01054E+00  9.85639E-01  2.49000E-02
    9069.611     74.634   4.640  1.00599E+00  9.85826E-01  2.01662E-02
    9071.032     76.054   4.680  1.00147E+00  9.86045E-01  1.54273E-02
    9072.464     77.487   4.720  9.97239E-01  9.86274E-01  1.09648E-02
    9073.909     78.931   4.760  9.93798E-01  9.86537E-01  7.26058E-03
    9075.366     80.388   4.800  9.91828E-01  9.86831E-01  4.99688E-03
    9076.835     81.858   4.840  9.91985E-01  9.87133E-01  4.85262E-03
    9078.316     83.339   4.880  9.94719E-01  9.87462E-01  7.25743E-03
    9079.810     84.832   4.920  9.99942E-01  9.87773E-01  1.21682E-02
    9081.316     86.338   4.960  1.00707E+00  9.88110E-01  1.89637E-02
    9082.834     87.856   5.000  1.01498E+00  9.88450E-01  2.65251E-02
    9084.364     89.386   5.040  1.02228E+00  9.88813E-01  3.34658E-02
    9085.906     90.928   5.080  1.02756E+00  9.89153E-01  3.84105E-02
    9087.460     92.483   5.120  1.02969E+00  9.89491E-01  4.01988E-02
    9089.027     94.050   5.160  1.02790E+00  9.89826E-01  3.80694E-02
    9090.606     95.628   5.200  1.02200E+00  9.90156E-01  3.18465E-02
    9092.197     97.219   5.240  1.01256E+00  9.90460E-01  2.20998E-02
    9093.800     98.823   5.280  1.00084E+00  9.90780E-01  1.00549E-02
    9095.416    100.438   5.320  9.88321E-01  9.91071E-01 -2.75022E-03
    9097.043    102.066   5.360  9.76430E-01  9.91331E-01 -1.49012E-02
    9098.683    103.706   5.400  9.66186E-01  9.91582E-01 -2.53959E-02
    9100.335    105.358   5.440  9.58119E-01  9.91825E-01 -3.37061E-02
    9101.999    107.022   5.480  9.52391E-01  9.92033E-01 -3.96420E-02
    9103.676    108.698   5.520  9.49096E-01  9.92209E-01 -4.31130E-02
    9105.364    110.387   5.560  9.48348E-01  9.92373E-01 -4.40244E-02
    9107.065    112.087   5.600  9.50101E-01  9.92502E-01 -4.24010E-02
    9108.778    113.800   5.640  9.53996E-01  9.92595E-01 -3.85989E-02
    9110.503    115.526   5.680  9.59276E-01  9.92675E-01 -3.33990E-02
    9112.241    117.263   5.720  9.64858E-01  9.92721E-01 -2.78625E-02
    9113.990    119.013   5.760  9.69822E-01  9.92729E-01 -2.29077E-02
    9115.752    120.774   5.800  9.73795E-01  9.92702E-01 -1.89068E-02
    9117.526    122.548   5.840  9.77004E-01  9.92660E-01 -1.56567E-02
    9119.312    124.334   5.880  9.79815E-01  9.92559E-01 -1.27445E-02
    9121.110    126.133   5.920  9.82536E-01  9.92445E-01 -9.90957E-03
    9122.921    127.943   5.960  9.85208E-01  9.92295E-01 -7.08692E-03
    9124.743    129.766   6.000  9.87860E-01  9.92087E-01 -4.22743E-03
