# # comment:                                                     FEFF 9.9.1  
# # Source:
# # Structure
# # Reduced
# # space
# # abc:
# # angles:
# # sites:
# # POT  SCF 100  7.0000   0, screened core-hole, AFOLP (folp(0)= 1.150)
# # Abs   Z=29 Rmt= 1.269 Rnm= 1.343 K  shell
# # Pot 1 Z= 3 Rmt= 1.313 Rnm= 1.371
# # Pot 2 Z=29 Rmt= 1.269 Rnm= 1.343
# # Pot 3 Z=15 Rmt= 0.939 Rnm= 1.153
# # Pot 4 Z= 8 Rmt= 0.875 Rnm= 1.039
# # Gam_ch=1.729E+00 H-L exch Vi= 0.000E+00 Vr= 0.000E+00
# # Mu=-6.327E+00eV kf=2.470E+00 Vint=-1.701E+01eV Rs_int= 1.468
# FMS rfms= 9.0000
# # PATH  Rmax=-1.000,  Keep_limit= 0.00, Heap_limit 0.00  Pwcrit= 2.50%
#  S02=0.950  Temp=   0.00  Debye_temp=   0.00  Global_sig2= 0.00000
#  Energy zero shift, vr, vi    0.00000E+00   0.00000E+00
#  Curved wave amplitude ratio filter   4.000%
#     file         sig2 tot  cw amp ratio   deg  nlegs   reff  inp sig2
#     0/   0 paths used
#  xsedge+ 50, used to normalize mu           2.4801E-04
#  -----------------------------------------------------------------------
#  omega    e    k    mu    mu0     chi     @#
    8983.415    -10.137  -1.000  4.11578E-02  5.31419E-02 -1.19841E-02
    8983.713     -9.838  -0.960  4.33158E-02  5.70248E-02 -1.37090E-02
    8984.000     -9.552  -0.920  4.56170E-02  6.13439E-02 -1.57268E-02
    8984.274     -9.277  -0.880  4.80720E-02  6.61640E-02 -1.80920E-02
    8984.536     -9.015  -0.840  5.06917E-02  7.15608E-02 -2.08691E-02
    8984.786     -8.765  -0.800  5.34876E-02  7.76218E-02 -2.41342E-02
    8985.024     -8.528  -0.760  5.64713E-02  8.44477E-02 -2.79765E-02
    8985.250     -8.302  -0.720  5.96543E-02  9.21525E-02 -3.24982E-02
    8985.463     -8.089  -0.680  6.30472E-02  1.00862E-01 -3.78144E-02
    8985.664     -7.887  -0.640  6.66592E-02  1.10708E-01 -4.40486E-02
    8985.853     -7.698  -0.600  7.04957E-02  1.21822E-01 -5.13259E-02
    8986.030     -7.522  -0.560  7.45568E-02  1.34315E-01 -5.97577E-02
    8986.195     -7.357  -0.520  7.88335E-02  1.48254E-01 -6.94201E-02
    8986.347     -7.205  -0.480  8.33036E-02  1.63625E-01 -8.03213E-02
    8986.487     -7.064  -0.440  8.79274E-02  1.80293E-01 -9.23659E-02
    8986.615     -6.936  -0.400  9.26431E-02  1.97966E-01 -1.05323E-01
    8986.731     -6.821  -0.360  9.73666E-02  2.16185E-01 -1.18819E-01
    8986.835     -6.717  -0.320  1.01994E-01  2.34353E-01 -1.32358E-01
    8986.926     -6.626  -0.280  1.06411E-01  2.51806E-01 -1.45395E-01
    8987.005     -6.546  -0.240  1.10502E-01  2.67911E-01 -1.57408E-01
    8987.072     -6.479  -0.200  1.14159E-01  2.82135E-01 -1.67976E-01
    8987.127     -6.424  -0.160  1.17288E-01  2.94093E-01 -1.76805E-01
    8987.170     -6.382  -0.120  1.19812E-01  3.03540E-01 -1.83728E-01
    8987.200     -6.351  -0.080  1.21670E-01  3.10342E-01 -1.88672E-01
    8987.225     -6.327   0.000  1.23214E-01  3.15804E-01 -1.92590E-01
    8987.280     -6.272   0.120  1.26732E-01  3.28111E-01 -2.01379E-01
    8987.322     -6.229   0.160  1.29486E-01  3.37668E-01 -2.08182E-01
    8987.377     -6.174   0.200  1.33092E-01  3.49862E-01 -2.16770E-01
    8987.444     -6.107   0.240  1.37617E-01  3.64514E-01 -2.26897E-01
    8987.523     -6.028   0.280  1.43144E-01  3.81294E-01 -2.38150E-01
    8987.615     -5.937   0.320  1.49780E-01  3.99752E-01 -2.49972E-01
    8987.719     -5.833   0.360  1.57738E-01  4.19354E-01 -2.61617E-01
    8987.834     -5.717   0.400  1.67188E-01  4.39471E-01 -2.72283E-01
    8987.962     -5.589   0.440  1.78466E-01  4.59587E-01 -2.81120E-01
    8988.103     -5.449   0.480  1.91924E-01  4.79266E-01 -2.87342E-01
    8988.255     -5.297   0.520  2.08059E-01  4.98248E-01 -2.90188E-01
    8988.420     -5.132   0.560  2.27361E-01  5.16391E-01 -2.89030E-01
    8988.596     -4.955   0.600  2.50474E-01  5.33707E-01 -2.83232E-01
    8988.785     -4.766   0.640  2.77957E-01  5.50217E-01 -2.72260E-01
    8988.987     -4.565   0.680  3.10242E-01  5.66023E-01 -2.55780E-01
    8989.200     -4.352   0.720  3.47306E-01  5.81239E-01 -2.33933E-01
    8989.425     -4.126   0.760  3.88301E-01  5.95960E-01 -2.07659E-01
    8989.663     -3.888   0.800  4.31495E-01  6.10270E-01 -1.78775E-01
    8989.913     -3.639   0.840  4.74207E-01  6.24243E-01 -1.50036E-01
    8990.175     -3.376   0.880  5.12949E-01  6.37978E-01 -1.25030E-01
    8990.450     -3.102   0.920  5.44430E-01  6.51501E-01 -1.07071E-01
    8990.736     -2.816   0.960  5.68247E-01  6.64842E-01 -9.65949E-02
    8991.035     -2.517   1.000  5.88574E-01  6.78065E-01 -8.94914E-02
    8991.346     -2.206   1.040  6.12528E-01  6.91144E-01 -7.86155E-02
    8991.669     -1.883   1.080  6.45990E-01  7.04122E-01 -5.81317E-02
    8992.004     -1.548   1.120  6.88762E-01  7.16979E-01 -2.82178E-02
    8992.351     -1.200   1.160  7.34776E-01  7.29728E-01  5.04822E-03
    8992.711     -0.841   1.200  7.76447E-01  7.42336E-01  3.41108E-02
    8993.083     -0.469   1.240  8.08576E-01  7.54829E-01  5.37471E-02
    8993.467     -0.085   1.280  8.28458E-01  7.67169E-01  6.12891E-02
    8993.863      0.312   1.320  8.37077E-01  7.79334E-01  5.77430E-02
    8994.272      0.720   1.360  8.39283E-01  7.91342E-01  4.79408E-02
    8994.692      1.141   1.400  8.41559E-01  8.03130E-01  3.84296E-02
    8995.125      1.573   1.440  8.52251E-01  8.14690E-01  3.75609E-02
    8995.570      2.019   1.480  8.75803E-01  8.26020E-01  4.97829E-02
    8996.027      2.476   1.520  9.08308E-01  8.37092E-01  7.12168E-02
    8996.497      2.945   1.560  9.46254E-01  8.47878E-01  9.83756E-02
    8996.978      3.427   1.600  9.97269E-01  8.58354E-01  1.38914E-01
    8997.472      3.920   1.640  1.07184E+00  8.68533E-01  2.03310E-01
    8997.978      4.426   1.680  1.14966E+00  8.78389E-01  2.71272E-01
    8998.496      4.945   1.720  1.18609E+00  8.87878E-01  2.98210E-01
    8999.027      5.475   1.760  1.17865E+00  8.97034E-01  2.81613E-01
    8999.569      6.017   1.800  1.16230E+00  9.05812E-01  2.56490E-01
    9000.124      6.572   1.840  1.15448E+00  9.14210E-01  2.40269E-01
    9000.691      7.139   1.880  1.14830E+00  9.22224E-01  2.26072E-01
    9001.270      7.718   1.920  1.13608E+00  9.29874E-01  2.06206E-01
    9001.861      8.310   1.960  1.12166E+00  9.37098E-01  1.84564E-01
    9002.465      8.913   2.000  1.11251E+00  9.43956E-01  1.68551E-01
    9003.080      9.529   2.040  1.11049E+00  9.50386E-01  1.60106E-01
    9003.708     10.157   2.080  1.10971E+00  9.56452E-01  1.53258E-01
    9004.348     10.797   2.120  1.10229E+00  9.62115E-01  1.40177E-01
    9005.001     11.449   2.160  1.08869E+00  9.67378E-01  1.21316E-01
    9005.665     12.113   2.200  1.07594E+00  9.72283E-01  1.03658E-01
    9006.342     12.790   2.240  1.06436E+00  9.76794E-01  8.75633E-02
    9007.031     13.479   2.280  1.05190E+00  9.80937E-01  7.09600E-02
    9007.732     14.180   2.320  1.04309E+00  9.84738E-01  5.83552E-02
    9008.445     14.893   2.360  1.04135E+00  9.88199E-01  5.31524E-02
    9009.170     15.619   2.400  1.04357E+00  9.91309E-01  5.22586E-02
    9009.908     16.356   2.440  1.04845E+00  9.94094E-01  5.43603E-02
    9010.658     17.106   2.480  1.05646E+00  9.96578E-01  5.98843E-02
    9011.420     17.868   2.520  1.06480E+00  9.98771E-01  6.60334E-02
    9012.194     18.642   2.560  1.06732E+00  1.00068E+00  6.66410E-02
    9012.980     19.429   2.600  1.05824E+00  1.00231E+00  5.59382E-02
    9013.779     20.227   2.640  1.03756E+00  1.00368E+00  3.38747E-02
    9014.590     21.038   2.680  1.01084E+00  1.00481E+00  6.02626E-03
    9015.413     21.861   2.720  9.85597E-01  1.00571E+00 -2.01131E-02
    9016.248     22.696   2.760  9.66479E-01  1.00642E+00 -3.99374E-02
    9017.095     23.543   2.800  9.51006E-01  1.00690E+00 -5.58959E-02
    9017.955     24.403   2.840  9.33782E-01  1.00723E+00 -7.34528E-02
    9018.826     25.275   2.880  9.17233E-01  1.00738E+00 -9.01449E-02
    9019.710     26.159   2.920  9.04655E-01  1.00736E+00 -1.02705E-01
    9020.606     27.055   2.960  8.97526E-01  1.00721E+00 -1.09683E-01
    9021.515     27.963   3.000  8.95123E-01  1.00691E+00 -1.11787E-01
    9022.435     28.883   3.040  8.96096E-01  1.00651E+00 -1.10415E-01
    9023.368     29.816   3.080  8.99080E-01  1.00600E+00 -1.06918E-01
    9024.313     30.761   3.120  9.03302E-01  1.00540E+00 -1.02095E-01
    9025.270     31.718   3.160  9.08351E-01  1.00471E+00 -9.63624E-02
    9026.239     32.687   3.200  9.14079E-01  1.00397E+00 -8.98960E-02
    9027.220     33.669   3.240  9.20481E-01  1.00316E+00 -8.26819E-02
    9028.214     34.662   3.280  9.27531E-01  1.00228E+00 -7.47527E-02
    9029.220     35.668   3.320  9.34827E-01  1.00138E+00 -6.65552E-02
    9030.238     36.686   3.360  9.42046E-01  1.00045E+00 -5.83996E-02
    9031.268     37.717   3.400  9.49124E-01  9.99498E-01 -5.03739E-02
    9032.311     38.759   3.440  9.55977E-01  9.98521E-01 -4.25437E-02
    9033.365     39.814   3.480  9.62618E-01  9.97539E-01 -3.49214E-02
    9034.432     40.880   3.520  9.69107E-01  9.96576E-01 -2.74692E-02
    9035.511     41.959   3.560  9.75582E-01  9.95595E-01 -2.00129E-02
    9036.602     43.051   3.600  9.82341E-01  9.94640E-01 -1.22992E-02
    9037.706     44.154   3.640  9.89633E-01  9.93693E-01 -4.05928E-03
    9038.821     45.269   3.680  9.97438E-01  9.92776E-01  4.66204E-03
    9039.949     46.397   3.720  1.00529E+00  9.91893E-01  1.33949E-02
    9041.089     47.537   3.760  1.01248E+00  9.91023E-01  2.14575E-02
    9042.241     48.689   3.800  1.01844E+00  9.90191E-01  2.82468E-02
    9043.405     49.854   3.840  1.02276E+00  9.89419E-01  3.33373E-02
    9044.582     51.030   3.880  1.02531E+00  9.88667E-01  3.66409E-02
    9045.771     52.219   3.920  1.02638E+00  9.87979E-01  3.84057E-02
    9046.971     53.420   3.960  1.02644E+00  9.87333E-01  3.91106E-02
    9048.185     54.633   4.000  1.02598E+00  9.86730E-01  3.92515E-02
    9049.410     55.858   4.040  1.02543E+00  9.86172E-01  3.92628E-02
    9050.647     57.096   4.080  1.02506E+00  9.85681E-01  3.93774E-02
    9051.897     58.345   4.120  1.02485E+00  9.85236E-01  3.96102E-02
    9053.159     59.607   4.160  1.02462E+00  9.84857E-01  3.97592E-02
    9054.433     60.881   4.200  1.02394E+00  9.84504E-01  3.94384E-02
    9055.719     62.167   4.240  1.02241E+00  9.84239E-01  3.81748E-02
    9057.018     63.466   4.280  1.01962E+00  9.83998E-01  3.56225E-02
    9058.328     64.777   4.320  1.01559E+00  9.83823E-01  3.17694E-02
    9059.651     66.099   4.360  1.01056E+00  9.83692E-01  2.68675E-02
    9060.986     67.434   4.400  1.00498E+00  9.83607E-01  2.13732E-02
    9062.333     68.782   4.440  9.99405E-01  9.83587E-01  1.58174E-02
    9063.693     70.141   4.480  9.94228E-01  9.83611E-01  1.06165E-02
    9065.064     71.513   4.520  9.89650E-01  9.83677E-01  5.97263E-03
    9066.448     72.896   4.560  9.85666E-01  9.83784E-01  1.88163E-03
    9067.844     74.292   4.600  9.82165E-01  9.83932E-01 -1.76661E-03
    9069.252     75.701   4.640  9.79119E-01  9.84120E-01 -5.00078E-03
    9070.673     77.121   4.680  9.76736E-01  9.84368E-01 -7.63207E-03
    9072.105     78.553   4.720  9.75363E-01  9.84631E-01 -9.26730E-03
    9073.550     79.998   4.760  9.75466E-01  9.84907E-01 -9.44113E-03
    9075.007     81.455   4.800  9.77405E-01  9.85239E-01 -7.83310E-03
    9076.476     82.924   4.840  9.81048E-01  9.85583E-01 -4.53477E-03
    9077.957     84.406   4.880  9.85832E-01  9.85957E-01 -1.25504E-04
    9079.451     85.899   4.920  9.90785E-01  9.86339E-01  4.44579E-03
    9080.956     87.405   4.960  9.94912E-01  9.86728E-01  8.18374E-03
    9082.474     88.923   5.000  9.97532E-01  9.87146E-01  1.03855E-02
    9084.004     90.453   5.040  9.98402E-01  9.87592E-01  1.08107E-02
    9085.547     91.995   5.080  9.97613E-01  9.88018E-01  9.59453E-03
    9087.101     93.550   5.120  9.95463E-01  9.88465E-01  6.99801E-03
    9088.668     95.116   5.160  9.92124E-01  9.88892E-01  3.23150E-03
    9090.247     96.695   5.200  9.87799E-01  9.89338E-01 -1.53878E-03
    9091.838     98.286   5.240  9.82664E-01  9.89758E-01 -7.09356E-03
    9093.441     99.889   5.280  9.77117E-01  9.90172E-01 -1.30552E-02
    9095.056    101.505   5.320  9.71759E-01  9.90580E-01 -1.88218E-02
    9096.684    103.132   5.360  9.67365E-01  9.90959E-01 -2.35943E-02
    9098.324    104.772   5.400  9.64749E-01  9.91329E-01 -2.65796E-02
    9099.976    106.424   5.440  9.64335E-01  9.91666E-01 -2.73303E-02
    9101.640    108.088   5.480  9.66035E-01  9.91993E-01 -2.59574E-02
    9103.317    109.765   5.520  9.69218E-01  9.92288E-01 -2.30707E-02
    9105.005    111.453   5.560  9.73072E-01  9.92571E-01 -1.94981E-02
    9106.706    113.154   5.600  9.76886E-01  9.92815E-01 -1.59285E-02
    9108.419    114.867   5.640  9.80265E-01  9.92999E-01 -1.27346E-02
    9110.144    116.592   5.680  9.83170E-01  9.93169E-01 -9.99853E-03
    9111.881    118.330   5.720  9.85663E-01  9.93324E-01 -7.66082E-03
    9113.631    120.079   5.760  9.87764E-01  9.93419E-01 -5.65505E-03
    9115.393    121.841   5.800  9.89519E-01  9.93473E-01 -3.95395E-03
    9117.167    123.615   5.840  9.90960E-01  9.93511E-01 -2.55053E-03
    9118.953    125.401   5.880  9.92065E-01  9.93486E-01 -1.42043E-03
    9120.751    127.199   5.920  9.92906E-01  9.93419E-01 -5.12554E-04
    9122.561    129.010   5.960  9.93573E-01  9.93309E-01  2.64519E-04
    9124.384    130.833   6.000  9.94259E-01  9.93164E-01  1.09547E-03
