# # comment:                                                     FEFF 9.9.1  
# # Source:
# # Structure
# # Reduced
# # space
# # abc:
# # angles:145.146053
# # sites:
# # POT  SCF 100  7.0000   0, screened core-hole, AFOLP (folp(0)= 1.150)
# # Abs   Z=29 Rmt= 1.297 Rnm= 1.365 K  shell
# # Pot 1 Z=58 Rmt= 1.671 Rnm= 1.765
# # Pot 2 Z=29 Rmt= 1.311 Rnm= 1.381
# # Pot 3 Z=16 Rmt= 1.419 Rnm= 1.488
# # Pot 4 Z= 8 Rmt= 1.027 Rnm= 1.100
# # Gam_ch=1.729E+00 H-L exch Vi= 0.000E+00 Vr= 0.000E+00
# # Mu=-7.378E+00eV kf=1.995E+00 Vint=-1.715E+01eV Rs_int= 1.818
# FMS rfms= 9.0000
# # PATH  Rmax=-1.000,  Keep_limit= 0.00, Heap_limit 0.00  Pwcrit= 2.50%
#  S02=0.950  Temp=   0.00  Debye_temp=   0.00  Global_sig2= 0.00000
#  Energy zero shift, vr, vi    0.00000E+00   0.00000E+00
#  Curved wave amplitude ratio filter   4.000%
#     file         sig2 tot  cw amp ratio   deg  nlegs   reff  inp sig2
#     0/   0 paths used
#  xsedge+ 50, used to normalize mu           2.4530E-04
#  -----------------------------------------------------------------------
#  omega    e    k    mu    mu0     chi     @#
    8984.335    -11.188  -1.000  5.04548E-02  6.05791E-02 -1.01243E-02
    8984.633    -10.889  -0.960  5.35949E-02  6.51843E-02 -1.15894E-02
    8984.920    -10.602  -0.920  5.70138E-02  7.03185E-02 -1.33047E-02
    8985.194    -10.328  -0.880  6.07443E-02  7.60612E-02 -1.53168E-02
    8985.456    -10.066  -0.840  6.48239E-02  8.25047E-02 -1.76808E-02
    8985.706     -9.816  -0.800  6.92949E-02  8.97564E-02 -2.04615E-02
    8985.944     -9.578  -0.760  7.42047E-02  9.79395E-02 -2.37348E-02
    8986.169     -9.353  -0.720  7.96058E-02  1.07194E-01 -2.75879E-02
    8986.383     -9.139  -0.680  8.55543E-02  1.17673E-01 -3.21183E-02
    8986.584     -8.938  -0.640  9.21081E-02  1.29539E-01 -3.74310E-02
    8986.773     -8.749  -0.600  9.93210E-02  1.42953E-01 -4.36324E-02
    8986.950     -8.572  -0.560  1.07235E-01  1.58053E-01 -5.08175E-02
    8987.114     -8.408  -0.520  1.15868E-01  1.74920E-01 -5.90520E-02
    8987.267     -8.255  -0.480  1.25193E-01  1.93539E-01 -6.83455E-02
    8987.407     -8.115  -0.440  1.35124E-01  2.13745E-01 -7.86217E-02
    8987.535     -7.987  -0.400  1.45493E-01  2.35184E-01 -8.96912E-02
    8987.651     -7.871  -0.360  1.56053E-01  2.57296E-01 -1.01243E-01
    8987.754     -7.768  -0.320  1.66488E-01  2.79352E-01 -1.12863E-01
    8987.846     -7.676  -0.280  1.76456E-01  3.00545E-01 -1.24089E-01
    8987.925     -7.597  -0.240  1.85629E-01  3.20100E-01 -1.34471E-01
    8987.992     -7.530  -0.200  1.93734E-01  3.37372E-01 -1.43638E-01
    8988.047     -7.475  -0.160  2.00564E-01  3.51890E-01 -1.51326E-01
    8988.090     -7.432  -0.120  2.05980E-01  3.63359E-01 -1.57379E-01
    8988.120     -7.402  -0.080  2.09894E-01  3.71615E-01 -1.61721E-01
    8988.145     -7.378   0.000  2.13050E-01  3.78244E-01 -1.65194E-01
    8988.199     -7.323   0.120  2.20345E-01  3.93187E-01 -1.72842E-01
    8988.242     -7.280   0.160  2.26001E-01  4.04781E-01 -1.78780E-01
    8988.297     -7.225   0.200  2.33274E-01  4.19560E-01 -1.86286E-01
    8988.364     -7.158   0.240  2.42169E-01  4.37303E-01 -1.95134E-01
    8988.443     -7.079   0.280  2.52623E-01  4.57610E-01 -2.04987E-01
    8988.535     -6.987   0.320  2.64636E-01  4.79949E-01 -2.15313E-01
    8988.638     -6.884   0.360  2.78139E-01  5.03598E-01 -2.25459E-01
    8988.754     -6.768   0.400  2.93255E-01  5.27854E-01 -2.34598E-01
    8988.882     -6.640   0.440  3.10139E-01  5.52015E-01 -2.41875E-01
    8989.022     -6.500   0.480  3.29127E-01  5.75570E-01 -2.46442E-01
    8989.175     -6.347   0.520  3.50607E-01  5.98173E-01 -2.47566E-01
    8989.339     -6.183   0.560  3.74987E-01  6.19651E-01 -2.44665E-01
    8989.516     -6.006   0.600  4.02617E-01  6.39988E-01 -2.37371E-01
    8989.705     -5.817   0.640  4.33570E-01  6.59211E-01 -2.25641E-01
    8989.906     -5.616   0.680  4.67391E-01  6.77437E-01 -2.10047E-01
    8990.120     -5.403   0.720  5.02740E-01  6.94782E-01 -1.92042E-01
    8990.345     -5.177   0.760  5.37691E-01  7.11337E-01 -1.73646E-01
    8990.583     -4.939   0.800  5.70357E-01  7.27226E-01 -1.56869E-01
    8990.833     -4.689   0.840  5.98866E-01  7.42534E-01 -1.43668E-01
    8991.095     -4.427   0.880  6.21075E-01  7.57291E-01 -1.36217E-01
    8991.369     -4.153   0.920  6.36165E-01  7.71593E-01 -1.35428E-01
    8991.656     -3.866   0.960  6.47792E-01  7.85479E-01 -1.37687E-01
    8991.954     -3.568   1.000  6.64109E-01  7.98935E-01 -1.34826E-01
    8992.265     -3.257   1.040  6.91546E-01  8.11998E-01 -1.20452E-01
    8992.588     -2.934   1.080  7.29668E-01  8.24679E-01 -9.50107E-02
    8992.924     -2.598   1.120  7.75478E-01  8.36955E-01 -6.14767E-02
    8993.271     -2.251   1.160  8.32121E-01  8.48865E-01 -1.67440E-02
    8993.631     -1.891   1.200  9.08083E-01  8.60356E-01  4.77264E-02
    8994.003     -1.519   1.240  1.00793E+00  8.71459E-01  1.36472E-01
    8994.387     -1.135   1.280  1.11970E+00  8.82138E-01  2.37561E-01
    8994.783     -0.739   1.320  1.20762E+00  8.92377E-01  3.15238E-01
    8995.191     -0.331   1.360  1.24073E+00  9.02179E-01  3.38547E-01
    8995.612      0.090   1.400  1.22710E+00  9.11545E-01  3.15553E-01
    8996.045      0.523   1.440  1.19192E+00  9.20437E-01  2.71488E-01
    8996.490      0.968   1.480  1.15128E+00  9.28878E-01  2.22399E-01
    8996.947      1.425   1.520  1.10941E+00  9.36847E-01  1.72560E-01
    8997.416      1.894   1.560  1.06551E+00  9.44350E-01  1.21160E-01
    8997.898      2.376   1.600  1.02158E+00  9.51388E-01  7.01923E-02
    8998.392      2.870   1.640  9.86293E-01  9.57947E-01  2.83465E-02
    8998.898      3.376   1.680  9.71515E-01  9.64050E-01  7.46465E-03
    8999.416      3.894   1.720  9.82373E-01  9.69703E-01  1.26704E-02
    8999.946      4.424   1.760  1.01272E+00  9.74911E-01  3.78053E-02
    9000.489      4.967   1.800  1.04372E+00  9.79664E-01  6.40541E-02
    9001.044      5.521   1.840  1.05487E+00  9.84008E-01  7.08658E-02
    9001.611      6.088   1.880  1.05097E+00  9.87930E-01  6.30421E-02
    9002.190      6.668   1.920  1.05039E+00  9.91480E-01  5.89138E-02
    9002.781      7.259   1.960  1.05480E+00  9.94627E-01  6.01729E-02
    9003.384      7.862   2.000  1.05395E+00  9.97421E-01  5.65292E-02
    9004.000      8.478   2.040  1.04266E+00  9.99849E-01  4.28105E-02
    9004.628      9.106   2.080  1.01823E+00  1.00197E+00  1.62646E-02
    9005.268      9.746   2.120  9.82879E-01  1.00378E+00 -2.08998E-02
    9005.920     10.398   2.160  9.52253E-01  1.00530E+00 -5.30456E-02
    9006.585     11.063   2.200  9.45316E-01  1.00656E+00 -6.12424E-02
    9007.261     11.739   2.240  9.71298E-01  1.00757E+00 -3.62675E-02
    9007.950     12.428   2.280  1.02881E+00  1.00835E+00  2.04619E-02
    9008.651     13.129   2.320  1.10525E+00  1.00890E+00  9.63468E-02
    9009.365     13.842   2.360  1.18465E+00  1.00927E+00  1.75383E-01
    9010.090     14.568   2.400  1.24705E+00  1.00947E+00  2.37583E-01
    9010.828     15.306   2.440  1.25620E+00  1.00950E+00  2.46700E-01
    9011.577     16.055   2.480  1.21950E+00  1.00940E+00  2.10104E-01
    9012.339     16.817   2.520  1.16125E+00  1.00917E+00  1.52084E-01
    9013.114     17.592   2.560  1.10032E+00  1.00882E+00  9.15071E-02
    9013.900     18.378   2.600  1.04618E+00  1.00838E+00  3.78085E-02
    9014.699     19.176   2.640  1.00098E+00  1.00787E+00 -6.89525E-03
    9015.509     19.987   2.680  9.64046E-01  1.00727E+00 -4.32262E-02
    9016.332     20.810   2.720  9.34900E-01  1.00664E+00 -7.17412E-02
    9017.167     21.645   2.760  9.12978E-01  1.00595E+00 -9.29685E-02
    9018.015     22.493   2.800  8.98480E-01  1.00523E+00 -1.06753E-01
    9018.874     23.352   2.840  8.91399E-01  1.00451E+00 -1.13109E-01
    9019.746     24.224   2.880  8.90763E-01  1.00375E+00 -1.12990E-01
    9020.630     25.108   2.920  8.94031E-01  1.00299E+00 -1.08964E-01
    9021.526     26.004   2.960  8.98802E-01  1.00224E+00 -1.03435E-01
    9022.434     26.912   3.000  9.03793E-01  1.00150E+00 -9.77107E-02
    9023.355     27.833   3.040  9.09185E-01  1.00078E+00 -9.15922E-02
    9024.288     28.765   3.080  9.16116E-01  1.00008E+00 -8.39659E-02
    9025.232     29.710   3.120  9.25283E-01  9.99399E-01 -7.41166E-02
    9026.189     30.667   3.160  9.36861E-01  9.98774E-01 -6.19129E-02
    9027.159     31.637   3.200  9.49628E-01  9.98168E-01 -4.85400E-02
    9028.140     32.618   3.240  9.62046E-01  9.97623E-01 -3.55772E-02
    9029.134     33.612   3.280  9.72651E-01  9.97120E-01 -2.44694E-02
    9030.140     34.618   3.320  9.80524E-01  9.96661E-01 -1.61368E-02
    9031.158     35.636   3.360  9.85148E-01  9.96247E-01 -1.10983E-02
    9032.188     36.666   3.400  9.86703E-01  9.95899E-01 -9.19603E-03
    9033.230     37.708   3.440  9.85773E-01  9.95598E-01 -9.82537E-03
    9034.285     38.763   3.480  9.83239E-01  9.95363E-01 -1.21243E-02
    9035.352     39.830   3.520  9.79964E-01  9.95154E-01 -1.51904E-02
    9036.431     40.909   3.560  9.76775E-01  9.95035E-01 -1.82597E-02
    9037.522     42.000   3.600  9.74071E-01  9.94942E-01 -2.08708E-02
    9038.625     43.103   3.640  9.72272E-01  9.94916E-01 -2.26436E-02
    9039.741     44.219   3.680  9.71912E-01  9.94958E-01 -2.30453E-02
    9040.869     45.346   3.720  9.73832E-01  9.95047E-01 -2.12148E-02
    9042.009     46.486   3.760  9.78964E-01  9.95179E-01 -1.62149E-02
    9043.161     47.639   3.800  9.87969E-01  9.95353E-01 -7.38422E-03
    9044.325     48.803   3.840  1.00085E+00  9.95570E-01  5.28005E-03
    9045.502     49.979   3.880  1.01682E+00  9.95851E-01  2.09688E-02
    9046.690     51.168   3.920  1.03455E+00  9.96152E-01  3.84015E-02
    9047.891     52.369   3.960  1.05250E+00  9.96513E-01  5.59894E-02
    9049.104     53.582   4.000  1.06902E+00  9.96914E-01  7.21020E-02
    9050.330     54.807   4.040  1.08252E+00  9.97328E-01  8.51940E-02
    9051.567     56.045   4.080  1.09168E+00  9.97775E-01  9.39072E-02
    9052.817     57.295   4.120  1.09556E+00  9.98257E-01  9.73020E-02
    9054.079     58.556   4.160  1.09408E+00  9.98748E-01  9.53308E-02
    9055.353     59.831   4.200  1.08819E+00  9.99269E-01  8.89193E-02
    9056.639     61.117   4.240  1.07935E+00  9.99799E-01  7.95509E-02
    9057.937     62.415   4.280  1.06884E+00  1.00036E+00  6.84864E-02
    9059.248     63.726   4.320  1.05735E+00  1.00092E+00  5.64337E-02
    9060.571     65.049   4.360  1.04523E+00  1.00148E+00  4.37568E-02
    9061.906     66.384   4.400  1.03275E+00  1.00204E+00  3.07108E-02
    9063.253     67.731   4.440  1.02024E+00  1.00260E+00  1.76393E-02
    9064.612     69.090   4.480  1.00800E+00  1.00316E+00  4.84432E-03
    9065.984     70.462   4.520  9.96166E-01  1.00371E+00 -7.54127E-03
    9067.368     71.846   4.560  9.84856E-01  1.00423E+00 -1.93748E-02
    9068.764     73.242   4.600  9.74456E-01  1.00475E+00 -3.02913E-02
    9070.172     74.650   4.640  9.65519E-01  1.00525E+00 -3.97357E-02
    9071.592     76.070   4.680  9.58426E-01  1.00573E+00 -4.73041E-02
    9073.025     77.503   4.720  9.53218E-01  1.00619E+00 -5.29754E-02
    9074.470     78.947   4.760  9.49600E-01  1.00662E+00 -5.70228E-02
    9075.927     80.404   4.800  9.47224E-01  1.00702E+00 -5.97928E-02
    9077.396     81.874   4.840  9.45768E-01  1.00740E+00 -6.16266E-02
    9078.877     83.355   4.880  9.44854E-01  1.00773E+00 -6.28794E-02
    9080.371     84.848   4.920  9.44122E-01  1.00801E+00 -6.38887E-02
    9081.876     86.354   4.960  9.43405E-01  1.00827E+00 -6.48648E-02
    9083.394     87.872   5.000  9.42735E-01  1.00849E+00 -6.57544E-02
    9084.924     89.402   5.040  9.42382E-01  1.00867E+00 -6.62891E-02
    9086.466     90.944   5.080  9.42690E-01  1.00883E+00 -6.61442E-02
    9088.021     92.499   5.120  9.43940E-01  1.00893E+00 -6.49923E-02
    9089.588     94.066   5.160  9.46674E-01  1.00899E+00 -6.23128E-02
    9091.166     95.644   5.200  9.51784E-01  1.00900E+00 -5.72147E-02
    9092.758     97.235   5.240  9.60223E-01  1.00897E+00 -4.87436E-02
    9094.361     98.839   5.280  9.72585E-01  1.00887E+00 -3.62846E-02
    9095.976    100.454   5.320  9.88810E-01  1.00875E+00 -1.99431E-02
    9097.604    102.082   5.360  1.00795E+00  1.00860E+00 -6.51409E-04
    9099.244    103.722   5.400  1.02841E+00  1.00840E+00  2.00068E-02
    9100.896    105.374   5.440  1.04827E+00  1.00816E+00  4.01043E-02
    9102.560    107.038   5.480  1.06568E+00  1.00789E+00  5.77933E-02
    9104.236    108.714   5.520  1.07941E+00  1.00757E+00  7.18421E-02
    9105.925    110.403   5.560  1.08913E+00  1.00721E+00  8.19217E-02
    9107.626    112.103   5.600  1.09517E+00  1.00681E+00  8.83539E-02
    9109.339    113.816   5.640  1.09811E+00  1.00638E+00  9.17297E-02
    9111.064    115.542   5.680  1.09853E+00  1.00593E+00  9.26009E-02
    9112.801    117.279   5.720  1.09667E+00  1.00545E+00  9.12237E-02
    9114.551    119.029   5.760  1.09237E+00  1.00493E+00  8.74386E-02
    9116.312    120.790   5.800  1.08524E+00  1.00438E+00  8.08606E-02
    9118.086    122.564   5.840  1.07515E+00  1.00382E+00  7.13219E-02
    9119.872    124.350   5.880  1.06241E+00  1.00327E+00  5.91456E-02
    9121.671    126.149   5.920  1.04783E+00  1.00268E+00  4.51460E-02
    9123.481    127.959   5.960  1.03250E+00  1.00208E+00  3.04213E-02
    9125.304    129.782   6.000  1.01726E+00  1.00149E+00  1.57724E-02
