# # comment:                                                     FEFF 9.9.1  
# # Source:
# # Structure
# # Reduced
# # space
# # abc:
# # angles:
# # sites:
# # POT  SCF 100  7.0000   0, screened core-hole, AFOLP (folp(0)= 1.150)
# # Abs   Z=29 Rmt= 1.269 Rnm= 1.341 K  shell
# # Pot 1 Z=27 Rmt= 1.388 Rnm= 1.471
# # Pot 2 Z=29 Rmt= 1.269 Rnm= 1.341
# # Pot 3 Z=52 Rmt= 1.302 Rnm= 1.440
# # Pot 4 Z= 8 Rmt= 0.990 Rnm= 1.080
# # Gam_ch=1.729E+00 H-L exch Vi= 0.000E+00 Vr= 0.000E+00
# # Mu=-7.815E+00eV kf=2.219E+00 Vint=-1.631E+01eV Rs_int= 1.635
# FMS rfms= 9.0000
# # PATH  Rmax=-1.000,  Keep_limit= 0.00, Heap_limit 0.00  Pwcrit= 2.50%
#  S02=0.950  Temp=   0.00  Debye_temp=   0.00  Global_sig2= 0.00000
#  Energy zero shift, vr, vi    0.00000E+00   0.00000E+00
#  Curved wave amplitude ratio filter   4.000%
#     file         sig2 tot  cw amp ratio   deg  nlegs   reff  inp sig2
#     0/   0 paths used
#  xsedge+ 50, used to normalize mu           2.4686E-04
#  -----------------------------------------------------------------------
#  omega    e    k    mu    mu0     chi     @#
    8983.749    -11.625  -1.000  3.48473E-02  5.10933E-02 -1.62460E-02
    8984.048    -11.326  -0.960  3.64972E-02  5.47335E-02 -1.82362E-02
    8984.335    -11.039  -0.920  3.82555E-02  5.87729E-02 -2.05174E-02
    8984.609    -10.765  -0.880  4.01324E-02  6.32699E-02 -2.31375E-02
    8984.871    -10.503  -0.840  4.21397E-02  6.82924E-02 -2.61527E-02
    8985.121    -10.253  -0.800  4.42905E-02  7.39190E-02 -2.96285E-02
    8985.359    -10.015  -0.760  4.65992E-02  8.02398E-02 -3.36406E-02
    8985.584     -9.790  -0.720  4.90815E-02  8.73566E-02 -3.82751E-02
    8985.798     -9.576  -0.680  5.17538E-02  9.53813E-02 -4.36276E-02
    8985.999     -9.375  -0.640  5.46325E-02  1.04432E-01 -4.97997E-02
    8986.188     -9.186  -0.600  5.77324E-02  1.14625E-01 -5.68925E-02
    8986.365     -9.009  -0.560  6.10642E-02  1.26058E-01 -6.49943E-02
    8986.529     -8.845  -0.520  6.46307E-02  1.38791E-01 -7.41602E-02
    8986.682     -8.692  -0.480  6.84221E-02  1.52809E-01 -8.43864E-02
    8986.822     -8.552  -0.440  7.24104E-02  1.67988E-01 -9.55780E-02
    8986.950     -8.424  -0.400  7.65442E-02  1.84068E-01 -1.07523E-01
    8987.066     -8.308  -0.360  8.07464E-02  2.00633E-01 -1.19887E-01
    8987.169     -8.205  -0.320  8.49165E-02  2.17149E-01 -1.32232E-01
    8987.261     -8.113  -0.280  8.89389E-02  2.33018E-01 -1.44080E-01
    8987.340     -8.034  -0.240  9.26935E-02  2.47669E-01 -1.54975E-01
    8987.407     -7.967  -0.200  9.60674E-02  2.60618E-01 -1.64551E-01
    8987.462     -7.912  -0.160  9.89627E-02  2.71514E-01 -1.72551E-01
    8987.505     -7.869  -0.120  1.01300E-01  2.80129E-01 -1.78829E-01
    8987.535     -7.839  -0.080  1.03020E-01  2.86337E-01 -1.83317E-01
    8987.559     -7.815   0.000  1.04447E-01  2.91325E-01 -1.86878E-01
    8987.614     -7.760   0.120  1.07723E-01  3.02576E-01 -1.94852E-01
    8987.657     -7.717   0.160  1.10294E-01  3.11340E-01 -2.01046E-01
    8987.712     -7.662   0.200  1.13589E-01  3.22503E-01 -2.08914E-01
    8987.779     -7.595   0.240  1.17701E-01  3.35959E-01 -2.18258E-01
    8987.858     -7.516   0.280  1.22644E-01  3.51449E-01 -2.28805E-01
    8987.950     -7.424   0.320  1.28400E-01  3.68551E-01 -2.40151E-01
    8988.053     -7.321   0.360  1.34986E-01  3.86807E-01 -2.51821E-01
    8988.169     -7.205   0.400  1.42365E-01  4.05691E-01 -2.63326E-01
    8988.297     -7.077   0.440  1.50533E-01  4.24761E-01 -2.74228E-01
    8988.437     -6.937   0.480  1.59391E-01  4.43616E-01 -2.84225E-01
    8988.590     -6.784   0.520  1.68793E-01  4.62051E-01 -2.93258E-01
    8988.754     -6.620   0.560  1.78423E-01  4.79919E-01 -3.01496E-01
    8988.931     -6.443   0.600  1.87941E-01  4.97233E-01 -3.09292E-01
    8989.120     -6.254   0.640  1.96990E-01  5.14003E-01 -3.17012E-01
    8989.321     -6.053   0.680  2.05625E-01  5.30333E-01 -3.24708E-01
    8989.535     -5.839   0.720  2.14225E-01  5.46279E-01 -3.32054E-01
    8989.760     -5.614   0.760  2.23692E-01  5.61936E-01 -3.38245E-01
    8989.998     -5.376   0.800  2.35364E-01  5.77370E-01 -3.42006E-01
    8990.248     -5.126   0.840  2.50152E-01  5.92615E-01 -3.42463E-01
    8990.510     -4.864   0.880  2.66672E-01  6.07753E-01 -3.41080E-01
    8990.784     -4.590   0.920  2.80805E-01  6.22792E-01 -3.41986E-01
    8991.071     -4.303   0.960  2.90548E-01  6.37770E-01 -3.47222E-01
    8991.369     -4.005   1.000  3.00182E-01  6.52657E-01 -3.52475E-01
    8991.680     -3.694   1.040  3.16160E-01  6.67493E-01 -3.51333E-01
    8992.003     -3.371   1.080  3.40720E-01  6.82250E-01 -3.41530E-01
    8992.339     -3.035   1.120  3.71523E-01  6.96938E-01 -3.25415E-01
    8992.686     -2.688   1.160  4.05892E-01  7.11497E-01 -3.05606E-01
    8993.046     -2.328   1.200  4.43449E-01  7.25928E-01 -2.82479E-01
    8993.418     -1.956   1.240  4.86115E-01  7.40205E-01 -2.54090E-01
    8993.802     -1.572   1.280  5.38135E-01  7.54303E-01 -2.16168E-01
    8994.198     -1.176   1.320  6.02229E-01  7.68193E-01 -1.65964E-01
    8994.606     -0.768   1.360  6.74657E-01  7.81846E-01 -1.07189E-01
    8995.027     -0.347   1.400  7.41686E-01  7.95231E-01 -5.35447E-02
    8995.460      0.086   1.440  7.85458E-01  8.08297E-01 -2.28397E-02
    8995.905      0.531   1.480  8.18346E-01  8.21057E-01 -2.71050E-03
    8996.362      0.988   1.520  8.74100E-01  8.33457E-01  4.06434E-02
    8996.831      1.457   1.560  9.53822E-01  8.45488E-01  1.08334E-01
    8997.313      1.939   1.600  1.03973E+00  8.57123E-01  1.82605E-01
    8997.807      2.433   1.640  1.12442E+00  8.68353E-01  2.56068E-01
    8998.313      2.939   1.680  1.19721E+00  8.79129E-01  3.18077E-01
    8998.831      3.457   1.720  1.26480E+00  8.89466E-01  3.75330E-01
    8999.361      3.987   1.760  1.34051E+00  8.99339E-01  4.41173E-01
    8999.904      4.530   1.800  1.39611E+00  9.08746E-01  4.87361E-01
    9000.459      5.085   1.840  1.40483E+00  9.17661E-01  4.87167E-01
    9001.025      5.651   1.880  1.37985E+00  9.26106E-01  4.53742E-01
    9001.605      6.231   1.920  1.32592E+00  9.34080E-01  3.91841E-01
    9002.196      6.822   1.960  1.25379E+00  9.41565E-01  3.12221E-01
    9002.799      7.425   2.000  1.20063E+00  9.48561E-01  2.52072E-01
    9003.415      8.041   2.040  1.18616E+00  9.55092E-01  2.31070E-01
    9004.043      8.669   2.080  1.18763E+00  9.61164E-01  2.26468E-01
    9004.683      9.309   2.120  1.17220E+00  9.66780E-01  2.05424E-01
    9005.335      9.961   2.160  1.13700E+00  9.71945E-01  1.65057E-01
    9006.000     10.626   2.200  1.09475E+00  9.76668E-01  1.18084E-01
    9006.676     11.302   2.240  1.05408E+00  9.80975E-01  7.31053E-02
    9007.365     11.991   2.280  1.01856E+00  9.84896E-01  3.36600E-02
    9008.066     12.692   2.320  9.88774E-01  9.88417E-01  3.57553E-04
    9008.780     13.406   2.360  9.69338E-01  9.91567E-01 -2.22286E-02
    9009.505     14.131   2.400  9.65199E-01  9.94376E-01 -2.91774E-02
    9010.243     14.869   2.440  9.72813E-01  9.96831E-01 -2.40184E-02
    9010.992     15.618   2.480  9.85617E-01  9.98982E-01 -1.33644E-02
    9011.754     16.380   2.520  9.97519E-01  1.00082E+00 -3.29909E-03
    9012.529     17.155   2.560  1.00100E+00  1.00237E+00 -1.37308E-03
    9013.315     17.941   2.600  9.95085E-01  1.00366E+00 -8.57835E-03
    9014.114     18.740   2.640  9.85063E-01  1.00471E+00 -1.96502E-02
    9014.924     19.550   2.680  9.71178E-01  1.00555E+00 -3.43677E-02
    9015.747     20.373   2.720  9.53972E-01  1.00615E+00 -5.21768E-02
    9016.582     21.208   2.760  9.39483E-01  1.00657E+00 -6.70893E-02
    9017.430     22.056   2.800  9.31308E-01  1.00680E+00 -7.54956E-02
    9018.289     22.915   2.840  9.28878E-01  1.00687E+00 -7.79922E-02
    9019.161     23.787   2.880  9.29294E-01  1.00680E+00 -7.75097E-02
    9020.045     24.671   2.920  9.29621E-01  1.00661E+00 -7.69885E-02
    9020.941     25.567   2.960  9.28414E-01  1.00630E+00 -7.78826E-02
    9021.849     26.475   3.000  9.25903E-01  1.00589E+00 -7.99868E-02
    9022.770     27.396   3.040  9.22785E-01  1.00538E+00 -8.25899E-02
    9023.702     28.328   3.080  9.19308E-01  1.00480E+00 -8.54923E-02
    9024.647     29.273   3.120  9.15234E-01  1.00413E+00 -8.88964E-02
    9025.604     30.230   3.160  9.10772E-01  1.00343E+00 -9.26611E-02
    9026.574     31.200   3.200  9.06979E-01  1.00269E+00 -9.57139E-02
    9027.555     32.181   3.240  9.05599E-01  1.00191E+00 -9.63159E-02
    9028.549     33.175   3.280  9.07732E-01  1.00110E+00 -9.33702E-02
    9029.555     34.181   3.320  9.14036E-01  1.00028E+00 -8.62437E-02
    9030.573     35.199   3.360  9.24316E-01  9.99453E-01 -7.51369E-02
    9031.603     36.229   3.400  9.37486E-01  9.98625E-01 -6.11392E-02
    9032.645     37.271   3.440  9.51926E-01  9.97799E-01 -4.58726E-02
    9033.700     38.326   3.480  9.66072E-01  9.96978E-01 -3.09056E-02
    9034.767     39.393   3.520  9.78831E-01  9.96185E-01 -1.73542E-02
    9035.846     40.472   3.560  9.89830E-01  9.95424E-01 -5.59376E-03
    9036.937     41.563   3.600  9.99503E-01  9.94675E-01  4.82773E-03
    9038.040     42.666   3.640  1.00861E+00  9.93962E-01  1.46497E-02
    9039.156     43.782   3.680  1.01767E+00  9.93286E-01  2.43857E-02
    9040.284     44.910   3.720  1.02680E+00  9.92648E-01  3.41540E-02
    9041.423     46.049   3.760  1.03559E+00  9.92051E-01  4.35402E-02
    9042.576     47.202   3.800  1.04311E+00  9.91497E-01  5.16083E-02
    9043.740     48.366   3.840  1.04821E+00  9.91005E-01  5.72034E-02
    9044.916     49.542   3.880  1.04985E+00  9.90535E-01  5.93157E-02
    9046.105     50.731   3.920  1.04758E+00  9.90130E-01  5.74553E-02
    9047.306     51.932   3.960  1.04161E+00  9.89770E-01  5.18368E-02
    9048.519     53.145   4.000  1.03293E+00  9.89476E-01  4.34569E-02
    9049.745     54.370   4.040  1.02281E+00  9.89203E-01  3.36068E-02
    9050.982     55.608   4.080  1.01246E+00  9.88995E-01  2.34620E-02
    9052.232     56.858   4.120  1.00279E+00  9.88832E-01  1.39562E-02
    9053.494     58.120   4.160  9.94627E-01  9.88714E-01  5.91320E-03
    9054.768     59.394   4.200  9.88752E-01  9.88661E-01  9.10697E-05
    9056.054     60.680   4.240  9.85728E-01  9.88651E-01 -2.92373E-03
    9057.352     61.978   4.280  9.85777E-01  9.88684E-01 -2.90685E-03
    9058.663     63.289   4.320  9.88619E-01  9.88756E-01 -1.36842E-04
    9059.986     64.612   4.360  9.93566E-01  9.88869E-01  4.69746E-03
    9061.321     65.947   4.400  9.99689E-01  9.89020E-01  1.06690E-02
    9062.668     67.294   4.440  1.00596E+00  9.89210E-01  1.67453E-02
    9064.027     68.653   4.480  1.01144E+00  9.89437E-01  2.20018E-02
    9065.399     70.025   4.520  1.01545E+00  9.89679E-01  2.57749E-02
    9066.783     71.409   4.560  1.01779E+00  9.89977E-01  2.78137E-02
    9068.179     72.805   4.600  1.01857E+00  9.90290E-01  2.82769E-02
    9069.587     74.213   4.640  1.01828E+00  9.90633E-01  2.76509E-02
    9071.007     75.633   4.680  1.01763E+00  9.90986E-01  2.66464E-02
    9072.440     77.066   4.720  1.01740E+00  9.91368E-01  2.60363E-02
    9073.885     78.511   4.760  1.01815E+00  9.91758E-01  2.63877E-02
    9075.341     79.967   4.800  1.01995E+00  9.92174E-01  2.77744E-02
    9076.811     81.437   4.840  1.02227E+00  9.92572E-01  2.96936E-02
    9078.292     82.918   4.880  1.02432E+00  9.92994E-01  3.13221E-02
    9079.785     84.411   4.920  1.02525E+00  9.93420E-01  3.18292E-02
    9081.291     85.917   4.960  1.02434E+00  9.93868E-01  3.04705E-02
    9082.809     87.435   5.000  1.02094E+00  9.94293E-01  2.66476E-02
    9084.339     88.965   5.040  1.01464E+00  9.94711E-01  1.99310E-02
    9085.881     90.507   5.080  1.00533E+00  9.95104E-01  1.02238E-02
    9087.436     92.062   5.120  9.93406E-01  9.95514E-01 -2.10782E-03
    9089.003     93.629   5.160  9.79650E-01  9.95896E-01 -1.62464E-02
    9090.581     95.207   5.200  9.65202E-01  9.96269E-01 -3.10663E-02
    9092.172     96.798   5.240  9.51223E-01  9.96610E-01 -4.53871E-02
    9093.776     98.402   5.280  9.38923E-01  9.96942E-01 -5.80194E-02
    9095.391    100.017   5.320  9.29419E-01  9.97242E-01 -6.78236E-02
    9097.019    101.645   5.360  9.23654E-01  9.97530E-01 -7.38759E-02
    9098.659    103.285   5.400  9.21932E-01  9.97782E-01 -7.58506E-02
    9100.311    104.937   5.440  9.23864E-01  9.97997E-01 -7.41335E-02
    9101.975    106.601   5.480  9.28593E-01  9.98177E-01 -6.95836E-02
    9103.651    108.277   5.520  9.35390E-01  9.98341E-01 -6.29513E-02
    9105.340    109.966   5.560  9.43944E-01  9.98470E-01 -5.45258E-02
    9107.041    111.667   5.600  9.54350E-01  9.98561E-01 -4.42109E-02
    9108.754    113.380   5.640  9.66698E-01  9.98612E-01 -3.19136E-02
    9110.479    115.105   5.680  9.80817E-01  9.98624E-01 -1.78071E-02
    9112.216    116.842   5.720  9.96213E-01  9.98621E-01 -2.40789E-03
    9113.966    118.592   5.760  1.01192E+00  9.98557E-01  1.33647E-02
    9115.727    120.353   5.800  1.02660E+00  9.98453E-01  2.81520E-02
    9117.501    122.127   5.840  1.03868E+00  9.98334E-01  4.03496E-02
    9119.287    123.913   5.880  1.04672E+00  9.98180E-01  4.85414E-02
    9121.086    125.712   5.920  1.04992E+00  9.97965E-01  5.19568E-02
    9122.896    127.522   5.960  1.04831E+00  9.97735E-01  5.05766E-02
    9124.719    129.345   6.000  1.04212E+00  9.97446E-01  4.46783E-02
