# # comment:                                                     FEFF 9.9.1  
# # Source:
# # Structure
# # Reduced
# # space
# # abc:
# # angles:
# # sites:
# # POT  SCF 100  7.0000   0, screened core-hole, AFOLP (folp(0)= 1.150)
# # Abs   Z=29 Rmt= 1.276 Rnm= 1.365 K  shell
# # Pot 1 Z=29 Rmt= 1.283 Rnm= 1.368
# # Pot 2 Z=75 Rmt= 1.145 Rnm= 1.364
# # Pot 3 Z= 8 Rmt= 0.915 Rnm= 1.059
# # Gam_ch=1.729E+00 H-L exch Vi= 0.000E+00 Vr= 0.000E+00
# # Mu=-4.807E+00eV kf=2.356E+00 Vint=-1.573E+01eV Rs_int= 1.539
# FMS rfms= 9.0000
# # PATH  Rmax=-1.000,  Keep_limit= 0.00, Heap_limit 0.00  Pwcrit= 2.50%
#  S02=0.950  Temp=   0.00  Debye_temp=   0.00  Global_sig2= 0.00000
#  Energy zero shift, vr, vi    0.00000E+00   0.00000E+00
#  Curved wave amplitude ratio filter   4.000%
#     file         sig2 tot  cw amp ratio   deg  nlegs   reff  inp sig2
#     0/   0 paths used
#  xsedge+ 50, used to normalize mu           2.4654E-04
#  -----------------------------------------------------------------------
#  omega    e    k    mu    mu0     chi     @#
    8983.265     -8.617  -1.000  5.04823E-02  5.87034E-02 -8.22109E-03
    8983.564     -8.318  -0.960  5.38235E-02  6.31343E-02 -9.31078E-03
    8983.850     -8.032  -0.920  5.75062E-02  6.80733E-02 -1.05671E-02
    8984.125     -7.758  -0.880  6.15786E-02  7.35967E-02 -1.20181E-02
    8984.387     -7.495  -0.840  6.60965E-02  7.97934E-02 -1.36969E-02
    8984.637     -7.245  -0.800  7.11247E-02  8.67667E-02 -1.56420E-02
    8984.874     -7.008  -0.760  7.67371E-02  9.46352E-02 -1.78982E-02
    8985.100     -6.782  -0.720  8.30169E-02  1.03533E-01 -2.05163E-02
    8985.313     -6.569  -0.680  9.00559E-02  1.13609E-01 -2.35532E-02
    8985.515     -6.368  -0.640  9.79500E-02  1.25019E-01 -2.70693E-02
    8985.704     -6.179  -0.600  1.06793E-01  1.37918E-01 -3.11250E-02
    8985.880     -6.002  -0.560  1.16666E-01  1.52439E-01 -3.57732E-02
    8986.045     -5.837  -0.520  1.27613E-01  1.68660E-01 -4.10475E-02
    8986.197     -5.685  -0.480  1.39621E-01  1.86568E-01 -4.69462E-02
    8986.337     -5.545  -0.440  1.52589E-01  2.06003E-01 -5.34141E-02
    8986.466     -5.417  -0.400  1.66298E-01  2.26624E-01 -6.03260E-02
    8986.581     -5.301  -0.360  1.80407E-01  2.47891E-01 -6.74835E-02
    8986.685     -5.197  -0.320  1.94475E-01  2.69103E-01 -7.46283E-02
    8986.776     -5.106  -0.280  2.08005E-01  2.89483E-01 -8.14771E-02
    8986.856     -5.027  -0.240  2.20521E-01  3.08284E-01 -8.77639E-02
    8986.923     -4.959  -0.200  2.31612E-01  3.24887E-01 -9.32758E-02
    8986.978     -4.905  -0.160  2.40971E-01  3.38841E-01 -9.78697E-02
    8987.020     -4.862  -0.120  2.48391E-01  3.49860E-01 -1.01469E-01
    8987.051     -4.831  -0.080  2.53747E-01  3.57791E-01 -1.04044E-01
    8987.075     -4.807   0.000  2.58049E-01  3.64158E-01 -1.06109E-01
    8987.130     -4.752   0.120  2.67856E-01  3.78510E-01 -1.10654E-01
    8987.173     -4.710   0.160  2.75501E-01  3.89642E-01 -1.14141E-01
    8987.228     -4.655   0.200  2.85307E-01  4.03824E-01 -1.18517E-01
    8987.295     -4.588   0.240  2.97178E-01  4.20841E-01 -1.23662E-01
    8987.374     -4.508   0.280  3.10968E-01  4.40340E-01 -1.29372E-01
    8987.465     -4.417   0.320  3.26319E-01  4.61722E-01 -1.35403E-01
    8987.569     -4.313   0.360  3.42876E-01  4.84366E-01 -1.41490E-01
    8987.685     -4.197   0.400  3.60131E-01  5.07527E-01 -1.47396E-01
    8987.813     -4.069   0.440  3.77596E-01  5.30585E-01 -1.52989E-01
    8987.953     -3.929   0.480  3.94784E-01  5.53024E-01 -1.58240E-01
    8988.105     -3.777   0.520  4.11309E-01  5.74510E-01 -1.63201E-01
    8988.270     -3.612   0.560  4.26918E-01  5.94899E-01 -1.67981E-01
    8988.447     -3.435   0.600  4.41507E-01  6.14155E-01 -1.72648E-01
    8988.636     -3.246   0.640  4.55099E-01  6.32330E-01 -1.77231E-01
    8988.837     -3.045   0.680  4.67935E-01  6.49562E-01 -1.81627E-01
    8989.050     -2.832   0.720  4.80260E-01  6.65924E-01 -1.85664E-01
    8989.276     -2.606   0.760  4.92581E-01  6.81552E-01 -1.88972E-01
    8989.513     -2.369   0.800  5.05598E-01  6.96568E-01 -1.90970E-01
    8989.763     -2.119   0.840  5.19866E-01  7.11061E-01 -1.91195E-01
    8990.026     -1.857   0.880  5.35205E-01  7.25083E-01 -1.89878E-01
    8990.300     -1.582   0.920  5.50937E-01  7.38713E-01 -1.87776E-01
    8990.586     -1.296   0.960  5.66814E-01  7.51992E-01 -1.85178E-01
    8990.885     -0.997   1.000  5.83531E-01  7.64950E-01 -1.81419E-01
    8991.196     -0.686   1.040  6.02299E-01  7.77606E-01 -1.75307E-01
    8991.519     -0.363   1.080  6.24439E-01  7.89993E-01 -1.65554E-01
    8991.854     -0.028   1.120  6.51202E-01  8.02093E-01 -1.50891E-01
    8992.202      0.320   1.160  6.83660E-01  8.13924E-01 -1.30264E-01
    8992.561      0.679   1.200  7.21820E-01  8.25456E-01 -1.03636E-01
    8992.933      1.051   1.240  7.63398E-01  8.36701E-01 -7.33029E-02
    8993.317      1.435   1.280  8.03730E-01  8.47643E-01 -4.39132E-02
    8993.714      1.831   1.320  8.39266E-01  8.58285E-01 -1.90190E-02
    8994.122      2.240   1.360  8.69442E-01  8.68590E-01  8.51513E-04
    8994.543      2.660   1.400  8.93418E-01  8.78579E-01  1.48394E-02
    8994.975      3.093   1.440  9.08760E-01  8.88210E-01  2.05492E-02
    8995.420      3.538   1.480  9.17384E-01  8.97482E-01  1.99021E-02
    8995.878      3.996   1.520  9.25646E-01  9.06394E-01  1.92514E-02
    8996.347      4.465   1.560  9.38790E-01  9.14907E-01  2.38834E-02
    8996.829      4.946   1.600  9.60966E-01  9.23058E-01  3.79079E-02
    8997.322      5.440   1.640  9.94457E-01  9.30807E-01  6.36503E-02
    8997.828      5.946   1.680  1.03919E+00  9.38155E-01  1.01032E-01
    8998.347      6.464   1.720  1.09430E+00  9.45102E-01  1.49197E-01
    8998.877      6.995   1.760  1.15855E+00  9.51650E-01  2.06901E-01
    8999.419      7.537   1.800  1.22658E+00  9.57800E-01  2.68775E-01
    8999.974      8.092   1.840  1.28764E+00  9.63556E-01  3.24083E-01
    9000.541      8.659   1.880  1.33133E+00  9.68921E-01  3.62410E-01
    9001.120      9.238   1.920  1.35290E+00  9.73878E-01  3.79017E-01
    9001.712      9.829   1.960  1.35597E+00  9.78473E-01  3.77502E-01
    9002.315     10.433   2.000  1.34830E+00  9.82691E-01  3.65614E-01
    9002.931     11.049   2.040  1.33408E+00  9.86560E-01  3.47523E-01
    9003.559     11.676   2.080  1.31285E+00  9.90084E-01  3.22766E-01
    9004.199     12.317   2.120  1.28481E+00  9.93248E-01  2.91558E-01
    9004.851     12.969   2.160  1.25500E+00  9.96100E-01  2.58895E-01
    9005.515     13.633   2.200  1.23084E+00  9.98628E-01  2.32216E-01
    9006.192     14.310   2.240  1.21381E+00  1.00086E+00  2.12956E-01
    9006.881     14.999   2.280  1.19822E+00  1.00280E+00  1.95419E-01
    9007.582     15.700   2.320  1.17451E+00  1.00448E+00  1.70025E-01
    9008.295     16.413   2.360  1.13349E+00  1.00591E+00  1.27579E-01
    9009.021     17.138   2.400  1.07862E+00  1.00709E+00  7.15236E-02
    9009.758     17.876   2.440  1.02472E+00  1.00806E+00  1.66670E-02
    9010.508     18.626   2.480  9.80525E-01  1.00881E+00 -2.82894E-02
    9011.270     19.388   2.520  9.47871E-01  1.00937E+00 -6.14999E-02
    9012.044     20.162   2.560  9.26746E-01  1.00975E+00 -8.30075E-02
    9012.831     20.948   2.600  9.16370E-01  1.00999E+00 -9.36204E-02
    9013.629     21.747   2.640  9.14457E-01  1.01005E+00 -9.55905E-02
    9014.440     22.558   2.680  9.15000E-01  1.00997E+00 -9.49722E-02
    9015.263     23.381   2.720  9.12322E-01  1.00979E+00 -9.74724E-02
    9016.098     24.216   2.760  9.07827E-01  1.00948E+00 -1.01649E-01
    9016.945     25.063   2.800  9.04057E-01  1.00909E+00 -1.05030E-01
    9017.805     25.923   2.840  9.02675E-01  1.00859E+00 -1.05916E-01
    9018.677     26.794   2.880  9.03794E-01  1.00804E+00 -1.04242E-01
    9019.561     27.678   2.920  9.06065E-01  1.00741E+00 -1.01342E-01
    9020.457     28.574   2.960  9.08362E-01  1.00673E+00 -9.83661E-02
    9021.365     29.483   3.000  9.09810E-01  1.00598E+00 -9.61753E-02
    9022.285     30.403   3.040  9.10366E-01  1.00524E+00 -9.48772E-02
    9023.218     31.336   3.080  9.10356E-01  1.00445E+00 -9.40901E-02
    9024.163     32.281   3.120  9.10224E-01  1.00364E+00 -9.34159E-02
    9025.120     33.238   3.160  9.10286E-01  1.00283E+00 -9.25416E-02
    9026.089     34.207   3.200  9.10884E-01  1.00201E+00 -9.11284E-02
    9027.071     35.189   3.240  9.12512E-01  1.00122E+00 -8.87083E-02
    9028.064     36.182   3.280  9.15316E-01  1.00041E+00 -8.50951E-02
    9029.070     37.188   3.320  9.19615E-01  9.99627E-01 -8.00112E-02
    9030.088     38.206   3.360  9.25522E-01  9.98852E-01 -7.33306E-02
    9031.119     39.236   3.400  9.32997E-01  9.98130E-01 -6.51336E-02
    9032.161     40.279   3.440  9.41697E-01  9.97401E-01 -5.57039E-02
    9033.216     41.333   3.480  9.51319E-01  9.96727E-01 -4.54089E-02
    9034.282     42.400   3.520  9.61465E-01  9.96091E-01 -3.46261E-02
    9035.361     43.479   3.560  9.71762E-01  9.95494E-01 -2.37317E-02
    9036.452     44.570   3.600  9.82026E-01  9.94915E-01 -1.28893E-02
    9037.556     45.674   3.640  9.92196E-01  9.94397E-01 -2.20071E-03
    9038.671     46.789   3.680  1.00206E+00  9.93922E-01  8.14040E-03
    9039.799     47.917   3.720  1.01145E+00  9.93491E-01  1.79552E-02
    9040.939     49.057   3.760  1.02023E+00  9.93121E-01  2.71057E-02
    9042.091     50.209   3.800  1.02824E+00  9.92775E-01  3.54684E-02
    9043.256     51.373   3.840  1.03536E+00  9.92492E-01  4.28702E-02
    9044.432     52.550   3.880  1.04137E+00  9.92253E-01  4.91140E-02
    9045.621     53.739   3.920  1.04602E+00  9.92058E-01  5.39573E-02
    9046.822     54.940   3.960  1.04907E+00  9.91927E-01  5.71420E-02
    9048.035     56.153   4.000  1.05026E+00  9.91817E-01  5.84405E-02
    9049.260     57.378   4.040  1.04945E+00  9.91771E-01  5.76833E-02
    9050.498     58.615   4.080  1.04661E+00  9.91766E-01  5.48390E-02
    9051.747     59.865   4.120  1.04194E+00  9.91803E-01  5.01417E-02
    9053.009     61.127   4.160  1.03610E+00  9.91879E-01  4.42183E-02
    9054.283     62.401   4.200  1.02984E+00  9.91996E-01  3.78403E-02
    9055.569     63.687   4.240  1.02393E+00  9.92150E-01  3.17839E-02
    9056.868     64.986   4.280  1.01908E+00  9.92342E-01  2.67337E-02
    9058.179     66.296   4.320  1.01577E+00  9.92569E-01  2.32012E-02
    9059.501     67.619   4.360  1.01425E+00  9.92809E-01  2.14450E-02
    9060.836     68.954   4.400  1.01452E+00  9.93083E-01  2.14329E-02
    9062.184     70.301   4.440  1.01628E+00  9.93390E-01  2.28859E-02
    9063.543     71.661   4.480  1.01905E+00  9.93706E-01  2.53483E-02
    9064.915     73.032   4.520  1.02233E+00  9.94054E-01  2.82739E-02
    9066.298     74.416   4.560  1.02548E+00  9.94408E-01  3.10734E-02
    9067.694     75.812   4.600  1.02794E+00  9.94791E-01  3.31454E-02
    9069.103     77.220   4.640  1.02911E+00  9.95179E-01  3.39299E-02
    9070.523     78.641   4.680  1.02862E+00  9.95571E-01  3.30453E-02
    9071.955     80.073   4.720  1.02634E+00  9.95986E-01  3.03532E-02
    9073.400     81.518   4.760  1.02233E+00  9.96381E-01  2.59451E-02
    9074.857     82.975   4.800  1.01692E+00  9.96795E-01  2.01251E-02
    9076.326     84.444   4.840  1.01046E+00  9.97184E-01  1.32779E-02
    9077.808     85.925   4.880  1.00330E+00  9.97570E-01  5.72810E-03
    9079.301     87.419   4.920  9.95657E-01  9.97952E-01 -2.29502E-03
    9080.807     88.925   4.960  9.87710E-01  9.98328E-01 -1.06173E-02
    9082.325     90.443   5.000  9.79723E-01  9.98675E-01 -1.89520E-02
    9083.855     91.973   5.040  9.72168E-01  9.99014E-01 -2.68459E-02
    9085.397     93.515   5.080  9.65598E-01  9.99346E-01 -3.37476E-02
    9086.952     95.069   5.120  9.60507E-01  9.99646E-01 -3.91390E-02
    9088.518     96.636   5.160  9.57190E-01  9.99933E-01 -4.27434E-02
    9090.097     98.215   5.200  9.55562E-01  1.00017E+00 -4.46030E-02
    9091.688     99.806   5.240  9.55353E-01  1.00040E+00 -4.50518E-02
    9093.291    101.409   5.280  9.56059E-01  1.00059E+00 -4.45276E-02
    9094.907    103.025   5.320  9.57352E-01  1.00075E+00 -4.34030E-02
    9096.534    104.652   5.360  9.58996E-01  1.00089E+00 -4.18916E-02
    9098.174    106.292   5.400  9.60961E-01  1.00098E+00 -4.00223E-02
    9099.826    107.944   5.440  9.63379E-01  1.00106E+00 -3.76837E-02
    9101.490    109.608   5.480  9.66385E-01  1.00108E+00 -3.46975E-02
    9103.167    111.285   5.520  9.70180E-01  1.00109E+00 -3.09060E-02
    9104.855    112.973   5.560  9.74813E-01  1.00105E+00 -2.62384E-02
    9106.556    114.674   5.600  9.80223E-01  1.00098E+00 -2.07564E-02
    9108.269    116.387   5.640  9.86174E-01  1.00087E+00 -1.46936E-02
    9109.994    118.112   5.680  9.92310E-01  1.00072E+00 -8.40773E-03
    9111.732    119.850   5.720  9.98255E-01  1.00055E+00 -2.29850E-03
    9113.481    121.599   5.760  1.00360E+00  1.00033E+00  3.27052E-03
    9115.243    123.361   5.800  1.00813E+00  1.00009E+00  8.04004E-03
    9117.017    125.135   5.840  1.01172E+00  9.99819E-01  1.19027E-02
    9118.803    126.921   5.880  1.01440E+00  9.99510E-01  1.48921E-02
    9120.601    128.719   5.920  1.01627E+00  9.99167E-01  1.71051E-02
    9122.412    130.530   5.960  1.01735E+00  9.98789E-01  1.85570E-02
    9124.235    132.352   6.000  1.01743E+00  9.98383E-01  1.90461E-02
