# # comment:                                                     FEFF 9.9.1  
# # Source:
# # Structure
# # Reduced
# # space
# # abc:
# # angles:106.031404
# # sites:
# # POT  SCF 100  7.0000   0, screened core-hole, AFOLP (folp(0)= 1.150)
# # Abs   Z=29 Rmt= 1.337 Rnm= 1.396 K  shell
# # Pot 1 Z=24 Rmt= 1.325 Rnm= 1.424
# # Pot 2 Z=29 Rmt= 1.337 Rnm= 1.396
# # Pot 3 Z=15 Rmt= 0.931 Rnm= 1.149
# # Pot 4 Z= 8 Rmt= 0.942 Rnm= 1.048
# # Gam_ch=1.729E+00 H-L exch Vi= 0.000E+00 Vr= 0.000E+00
# # Mu=-8.174E+00eV kf=2.469E+00 Vint=-1.867E+01eV Rs_int= 1.469
# FMS rfms= 9.0000
# # PATH  Rmax=-1.000,  Keep_limit= 0.00, Heap_limit 0.00  Pwcrit= 2.50%
#  S02=0.950  Temp=   0.00  Debye_temp=   0.00  Global_sig2= 0.00000
#  Energy zero shift, vr, vi    0.00000E+00   0.00000E+00
#  Curved wave amplitude ratio filter   4.000%
#     file         sig2 tot  cw amp ratio   deg  nlegs   reff  inp sig2
#     0/   0 paths used
#  xsedge+ 50, used to normalize mu           2.4884E-04
#  -----------------------------------------------------------------------
#  omega    e    k    mu    mu0     chi     @#
    8983.652    -11.984  -1.000  3.91110E-02  4.75667E-02 -8.45564E-03
    8983.950    -11.685  -0.960  4.12472E-02  5.08597E-02 -9.61252E-03
    8984.237    -11.399  -0.920  4.35555E-02  5.45091E-02 -1.09536E-02
    8984.511    -11.125  -0.880  4.60558E-02  5.85669E-02 -1.25110E-02
    8984.773    -10.862  -0.840  4.87705E-02  6.30935E-02 -1.43231E-02
    8985.023    -10.612  -0.800  5.17249E-02  6.81593E-02 -1.64344E-02
    8985.261    -10.375  -0.760  5.49475E-02  7.38447E-02 -1.88972E-02
    8985.486    -10.149  -0.720  5.84697E-02  8.02405E-02 -2.17708E-02
    8985.700     -9.936  -0.680  6.23250E-02  8.74470E-02 -2.51220E-02
    8985.901     -9.735  -0.640  6.65478E-02  9.55698E-02 -2.90220E-02
    8986.090     -9.546  -0.600  7.11701E-02  1.04713E-01 -3.35424E-02
    8986.267     -9.369  -0.560  7.62172E-02  1.14964E-01 -3.87464E-02
    8986.431     -9.204  -0.520  8.16998E-02  1.26375E-01 -4.46754E-02
    8986.584     -9.052  -0.480  8.76042E-02  1.38935E-01 -5.13306E-02
    8986.724     -8.912  -0.440  9.38812E-02  1.52532E-01 -5.86509E-02
    8986.852     -8.784  -0.400  1.00436E-01  1.66931E-01 -6.64957E-02
    8986.968     -8.668  -0.360  1.07124E-01  1.81763E-01 -7.46388E-02
    8987.071     -8.564  -0.320  1.13759E-01  1.96545E-01 -8.27857E-02
    8987.163     -8.473  -0.280  1.20133E-01  2.10744E-01 -9.06116E-02
    8987.242     -8.394  -0.240  1.26038E-01  2.23848E-01 -9.78105E-02
    8987.309     -8.326  -0.200  1.31292E-01  2.35427E-01 -1.04135E-01
    8987.364     -8.272  -0.160  1.35752E-01  2.45167E-01 -1.09415E-01
    8987.407     -8.229  -0.120  1.39310E-01  2.52866E-01 -1.13555E-01
    8987.437     -8.198  -0.080  1.41898E-01  2.58412E-01 -1.16514E-01
    8987.462     -8.174   0.000  1.43999E-01  2.62870E-01 -1.18870E-01
    8987.516     -8.119   0.120  1.48785E-01  2.72916E-01 -1.24131E-01
    8987.559     -8.077   0.160  1.52537E-01  2.80730E-01 -1.28193E-01
    8987.614     -8.022   0.200  1.57394E-01  2.90699E-01 -1.33305E-01
    8987.681     -7.955   0.240  1.63371E-01  3.02708E-01 -1.39337E-01
    8987.760     -7.875   0.280  1.70462E-01  3.16478E-01 -1.46015E-01
    8987.852     -7.784   0.320  1.78684E-01  3.31698E-01 -1.53014E-01
    8987.955     -7.680   0.360  1.88029E-01  3.47916E-01 -1.59887E-01
    8988.071     -7.564   0.400  1.98567E-01  3.64691E-01 -1.66123E-01
    8988.199     -7.436   0.440  2.10277E-01  3.81562E-01 -1.71285E-01
    8988.339     -7.296   0.480  2.23178E-01  3.98229E-01 -1.75050E-01
    8988.492     -7.144   0.520  2.37075E-01  4.14487E-01 -1.77412E-01
    8988.656     -6.979   0.560  2.51566E-01  4.30224E-01 -1.78658E-01
    8988.833     -6.802   0.600  2.66128E-01  4.45460E-01 -1.79332E-01
    8989.022     -6.613   0.640  2.80323E-01  4.60246E-01 -1.79923E-01
    8989.223     -6.412   0.680  2.93947E-01  4.74625E-01 -1.80678E-01
    8989.437     -6.199   0.720  3.07070E-01  4.88713E-01 -1.81643E-01
    8989.662     -5.973   0.760  3.19934E-01  5.02603E-01 -1.82669E-01
    8989.900     -5.736   0.800  3.33290E-01  5.16363E-01 -1.83074E-01
    8990.150     -5.486   0.840  3.49011E-01  5.30070E-01 -1.81059E-01
    8990.412     -5.224   0.880  3.69387E-01  5.43766E-01 -1.74379E-01
    8990.686     -4.949   0.920  3.95143E-01  5.57529E-01 -1.62386E-01
    8990.973     -4.663   0.960  4.23993E-01  5.71361E-01 -1.47368E-01
    8991.271     -4.364   1.000  4.52022E-01  5.85317E-01 -1.33295E-01
    8991.582     -4.053   1.040  4.76958E-01  5.99387E-01 -1.22429E-01
    8991.905     -3.730   1.080  5.00875E-01  6.13589E-01 -1.12714E-01
    8992.241     -3.395   1.120  5.28486E-01  6.27938E-01 -9.94517E-02
    8992.588     -3.047   1.160  5.62967E-01  6.42423E-01 -7.94558E-02
    8992.948     -2.688   1.200  6.02259E-01  6.57030E-01 -5.47717E-02
    8993.320     -2.316   1.240  6.39864E-01  6.71741E-01 -3.18770E-02
    8993.704     -1.932   1.280  6.68741E-01  6.86532E-01 -1.77906E-02
    8994.100     -1.536   1.320  6.83338E-01  7.01419E-01 -1.80812E-02
    8994.508     -1.127   1.360  6.84414E-01  7.16335E-01 -3.19204E-02
    8994.929     -0.706   1.400  6.82837E-01  7.31268E-01 -4.84309E-02
    8995.362     -0.274   1.440  6.89835E-01  7.46190E-01 -5.63553E-02
    8995.807      0.171   1.480  7.11449E-01  7.61067E-01 -4.96185E-02
    8996.264      0.629   1.520  7.57492E-01  7.75864E-01 -1.83720E-02
    8996.733      1.098   1.560  8.32318E-01  7.90566E-01  4.17517E-02
    8997.215      1.579   1.600  9.16822E-01  8.05097E-01  1.11725E-01
    8997.709      2.073   1.640  9.88547E-01  8.19460E-01  1.69087E-01
    8998.215      2.579   1.680  1.04513E+00  8.33599E-01  2.11535E-01
    8998.733      3.097   1.720  1.09158E+00  8.47456E-01  2.44121E-01
    8999.263      3.628   1.760  1.13455E+00  8.61032E-01  2.73517E-01
    8999.806      4.170   1.800  1.17682E+00  8.74272E-01  3.02546E-01
    9000.361      4.725   1.840  1.21476E+00  8.87139E-01  3.27622E-01
    9000.928      5.292   1.880  1.24666E+00  8.99618E-01  3.47047E-01
    9001.507      5.871   1.920  1.27669E+00  9.11653E-01  3.65035E-01
    9002.098      6.462   1.960  1.30203E+00  9.23251E-01  3.78778E-01
    9002.701      7.066   2.000  1.31098E+00  9.34336E-01  3.76641E-01
    9003.317      7.682   2.040  1.29953E+00  9.44920E-01  3.54612E-01
    9003.945      8.309   2.080  1.27292E+00  9.54949E-01  3.17973E-01
    9004.585      8.950   2.120  1.23853E+00  9.64458E-01  2.74072E-01
    9005.237      9.602   2.160  1.20199E+00  9.73378E-01  2.28611E-01
    9005.902     10.266   2.200  1.16472E+00  9.81722E-01  1.82995E-01
    9006.578     10.943   2.240  1.12386E+00  9.89487E-01  1.34377E-01
    9007.267     11.632   2.280  1.08075E+00  9.96652E-01  8.41016E-02
    9007.968     12.333   2.320  1.04298E+00  1.00324E+00  3.97403E-02
    9008.682     13.046   2.360  1.01289E+00  1.00922E+00  3.67447E-03
    9009.407     13.771   2.400  9.88033E-01  1.01460E+00 -2.65672E-02
    9010.145     14.509   2.440  9.66548E-01  1.01941E+00 -5.28613E-02
    9010.894     15.259   2.480  9.47460E-01  1.02365E+00 -7.61886E-02
    9011.656     16.021   2.520  9.31299E-01  1.02735E+00 -9.60469E-02
    9012.431     16.795   2.560  9.19407E-01  1.03049E+00 -1.11083E-01
    9013.217     17.581   2.600  9.13138E-01  1.03311E+00 -1.19971E-01
    9014.016     18.380   2.640  9.12252E-01  1.03523E+00 -1.22980E-01
    9014.826     19.191   2.680  9.14019E-01  1.03685E+00 -1.22831E-01
    9015.649     20.014   2.720  9.15642E-01  1.03804E+00 -1.22395E-01
    9016.484     20.849   2.760  9.15488E-01  1.03879E+00 -1.23298E-01
    9017.332     21.696   2.800  9.11226E-01  1.03913E+00 -1.27901E-01
    9018.191     22.556   2.840  9.00527E-01  1.03908E+00 -1.38548E-01
    9019.063     23.427   2.880  8.90457E-01  1.03868E+00 -1.48227E-01
    9019.947     24.311   2.920  8.86643E-01  1.03796E+00 -1.51322E-01
    9020.843     25.207   2.960  8.89001E-01  1.03693E+00 -1.47934E-01
    9021.751     26.116   3.000  8.95038E-01  1.03563E+00 -1.40588E-01
    9022.672     27.036   3.040  9.02250E-01  1.03409E+00 -1.31841E-01
    9023.605     27.969   3.080  9.09839E-01  1.03233E+00 -1.22488E-01
    9024.549     28.914   3.120  9.18595E-01  1.03038E+00 -1.11789E-01
    9025.506     29.871   3.160  9.29093E-01  1.02826E+00 -9.91623E-02
    9026.476     30.840   3.200  9.41418E-01  1.02599E+00 -8.45745E-02
    9027.457     31.822   3.240  9.55289E-01  1.02361E+00 -6.83198E-02
    9028.451     32.815   3.280  9.70264E-01  1.02112E+00 -5.08521E-02
    9029.457     33.821   3.320  9.86009E-01  1.01856E+00 -3.25540E-02
    9030.475     34.839   3.360  1.00218E+00  1.01596E+00 -1.37839E-02
    9031.505     35.869   3.400  1.01801E+00  1.01330E+00  4.70222E-03
    9032.547     36.912   3.440  1.03255E+00  1.01066E+00  2.18921E-02
    9033.602     37.966   3.480  1.04516E+00  1.00799E+00  3.71691E-02
    9034.669     39.033   3.520  1.05542E+00  1.00535E+00  5.00671E-02
    9035.748     40.112   3.560  1.06291E+00  1.00274E+00  6.01667E-02
    9036.839     41.203   3.600  1.06744E+00  1.00018E+00  6.72625E-02
    9037.942     42.307   3.640  1.06917E+00  9.97666E-01  7.15070E-02
    9039.058     43.422   3.680  1.06867E+00  9.95227E-01  7.34412E-02
    9040.186     44.550   3.720  1.06691E+00  9.92890E-01  7.40227E-02
    9041.326     45.690   3.760  1.06485E+00  9.90640E-01  7.42090E-02
    9042.478     46.842   3.800  1.06300E+00  9.88478E-01  7.45212E-02
    9043.642     48.006   3.840  1.06127E+00  9.86429E-01  7.48454E-02
    9044.819     49.183   3.880  1.05919E+00  9.84499E-01  7.46932E-02
    9046.007     50.372   3.920  1.05609E+00  9.82689E-01  7.33987E-02
    9047.208     51.573   3.960  1.05144E+00  9.81003E-01  7.04342E-02
    9048.421     52.786   4.000  1.04510E+00  9.79463E-01  6.56414E-02
    9049.647     54.011   4.040  1.03726E+00  9.78050E-01  5.92057E-02
    9050.884     55.248   4.080  1.02831E+00  9.76766E-01  5.15483E-02
    9052.134     56.498   4.120  1.01885E+00  9.75632E-01  4.32190E-02
    9053.396     57.760   4.160  1.00943E+00  9.74648E-01  3.47774E-02
    9054.670     59.034   4.200  1.00039E+00  9.73794E-01  2.65968E-02
    9055.956     60.320   4.240  9.91918E-01  9.73068E-01  1.88504E-02
    9057.254     61.619   4.280  9.84096E-01  9.72491E-01  1.16047E-02
    9058.565     62.929   4.320  9.76953E-01  9.72043E-01  4.90953E-03
    9059.888     64.252   4.360  9.70598E-01  9.71745E-01 -1.14714E-03
    9061.223     65.587   4.400  9.65154E-01  9.71574E-01 -6.42025E-03
    9062.570     66.934   4.440  9.60714E-01  9.71549E-01 -1.08347E-02
    9063.929     68.294   4.480  9.57168E-01  9.71625E-01 -1.44572E-02
    9065.301     69.665   4.520  9.54405E-01  9.71844E-01 -1.74389E-02
    9066.685     71.049   4.560  9.52238E-01  9.72181E-01 -1.99431E-02
    9068.081     72.445   4.600  9.50530E-01  9.72612E-01 -2.20813E-02
    9069.489     73.853   4.640  9.49273E-01  9.73153E-01 -2.38804E-02
    9070.909     75.274   4.680  9.48435E-01  9.73784E-01 -2.53492E-02
    9072.342     76.706   4.720  9.48024E-01  9.74523E-01 -2.64985E-02
    9073.787     78.151   4.760  9.48053E-01  9.75343E-01 -2.72898E-02
    9075.244     79.608   4.800  9.48613E-01  9.76220E-01 -2.76075E-02
    9076.713     81.077   4.840  9.49918E-01  9.77194E-01 -2.72766E-02
    9078.194     82.558   4.880  9.52073E-01  9.78217E-01 -2.61440E-02
    9079.688     84.052   4.920  9.54997E-01  9.79284E-01 -2.42870E-02
    9081.193     85.558   4.960  9.58311E-01  9.80395E-01 -2.20844E-02
    9082.711     87.076   5.000  9.61399E-01  9.81567E-01 -2.01674E-02
    9084.241     88.606   5.040  9.63515E-01  9.82750E-01 -1.92357E-02
    9085.783     90.148   5.080  9.64180E-01  9.83941E-01 -1.97608E-02
    9087.338     91.702   5.120  9.63334E-01  9.85157E-01 -2.18231E-02
    9088.905     93.269   5.160  9.61300E-01  9.86373E-01 -2.50733E-02
    9090.483     94.848   5.200  9.58743E-01  9.87563E-01 -2.88204E-02
    9092.075     96.439   5.240  9.56499E-01  9.88743E-01 -3.22442E-02
    9093.678     98.042   5.280  9.55237E-01  9.89890E-01 -3.46531E-02
    9095.293     99.658   5.320  9.55426E-01  9.91021E-01 -3.55955E-02
    9096.921    101.285   5.360  9.57277E-01  9.92091E-01 -3.48140E-02
    9098.561    102.925   5.400  9.60960E-01  9.93136E-01 -3.21764E-02
    9100.213    104.577   5.440  9.66457E-01  9.94089E-01 -2.76320E-02
    9101.877    106.241   5.480  9.73763E-01  9.94991E-01 -2.12274E-02
    9103.553    107.918   5.520  9.82692E-01  9.95839E-01 -1.31469E-02
    9105.242    109.606   5.560  9.92847E-01  9.96588E-01 -3.74103E-03
    9106.943    111.307   5.600  1.00379E+00  9.97277E-01  6.51777E-03
    9108.656    113.020   5.640  1.01498E+00  9.97861E-01  1.71188E-02
    9110.381    114.745   5.680  1.02580E+00  9.98360E-01  2.74362E-02
    9112.118    116.483   5.720  1.03539E+00  9.98772E-01  3.66148E-02
    9113.868    118.232   5.760  1.04270E+00  9.99076E-01  4.36234E-02
    9115.629    119.994   5.800  1.04691E+00  9.99292E-01  4.76195E-02
    9117.403    121.768   5.840  1.04777E+00  9.99396E-01  4.83756E-02
    9119.189    123.554   5.880  1.04586E+00  9.99412E-01  4.64452E-02
    9120.988    125.352   5.920  1.04218E+00  9.99312E-01  4.28716E-02
    9122.798    127.163   5.960  1.03769E+00  9.99085E-01  3.86085E-02
    9124.621    128.985   6.000  1.03277E+00  9.98730E-01  3.40412E-02
