# # comment:                                                     FEFF 9.9.1  
# # Source:
# # Structure
# # Reduced
# # space
# # abc:
# # angles:
# # sites:
# # POT  SCF 100  7.0000   0, screened core-hole, AFOLP (folp(0)= 1.150)
# # Abs   Z=29 Rmt= 1.232 Rnm= 1.328 K  shell
# # Pot 1 Z=23 Rmt= 1.094 Rnm= 1.313
# # Pot 2 Z=29 Rmt= 1.236 Rnm= 1.324
# # Pot 3 Z=83 Rmt= 1.603 Rnm= 1.691
# # Pot 4 Z= 8 Rmt= 0.989 Rnm= 1.103
# # Gam_ch=1.729E+00 H-L exch Vi= 0.000E+00 Vr= 0.000E+00
# # Mu=-7.308E+00eV kf=2.185E+00 Vint=-1.634E+01eV Rs_int= 1.660
# FMS rfms= 9.0000
# # PATH  Rmax=-1.000,  Keep_limit= 0.00, Heap_limit 0.00  Pwcrit= 2.50%
#  S02=0.950  Temp=   0.00  Debye_temp=   0.00  Global_sig2= 0.00000
#  Energy zero shift, vr, vi    0.00000E+00   0.00000E+00
#  Curved wave amplitude ratio filter   4.000%
#     file         sig2 tot  cw amp ratio   deg  nlegs   reff  inp sig2
#     0/   0 paths used
#  xsedge+ 50, used to normalize mu           2.4615E-04
#  -----------------------------------------------------------------------
#  omega    e    k    mu    mu0     chi     @#
    8983.766    -11.118  -1.000  4.19019E-02  5.48688E-02 -1.29669E-02
    8984.065    -10.819  -0.960  4.43401E-02  5.88784E-02 -1.45383E-02
    8984.351    -10.533  -0.920  4.69934E-02  6.33356E-02 -1.63422E-02
    8984.625    -10.258  -0.880  4.98886E-02  6.83065E-02 -1.84179E-02
    8984.887     -9.996  -0.840  5.30566E-02  7.38680E-02 -2.08114E-02
    8985.137     -9.746  -0.800  5.65325E-02  8.01091E-02 -2.35766E-02
    8985.375     -9.509  -0.760  6.03562E-02  8.71321E-02 -2.67759E-02
    8985.601     -9.283  -0.720  6.45721E-02  9.50525E-02 -3.04804E-02
    8985.814     -9.070  -0.680  6.92283E-02  1.03998E-01 -3.47693E-02
    8986.015     -8.869  -0.640  7.43748E-02  1.14102E-01 -3.97270E-02
    8986.204     -8.680  -0.600  8.00593E-02  1.25497E-01 -4.54376E-02
    8986.381     -8.503  -0.560  8.63208E-02  1.38296E-01 -5.19748E-02
    8986.546     -8.338  -0.520  9.31794E-02  1.52565E-01 -5.93857E-02
    8986.698     -8.186  -0.480  1.00622E-01  1.68291E-01 -6.76686E-02
    8986.838     -8.046  -0.440  1.08587E-01  1.85334E-01 -7.67475E-02
    8986.966     -7.918  -0.400  1.16948E-01  2.03398E-01 -8.64504E-02
    8987.082     -7.802  -0.360  1.25513E-01  2.22017E-01 -9.65035E-02
    8987.186     -7.698  -0.320  1.34032E-01  2.40583E-01 -1.06551E-01
    8987.277     -7.607  -0.280  1.42221E-01  2.58423E-01 -1.16201E-01
    8987.356     -7.527  -0.240  1.49805E-01  2.74889E-01 -1.25084E-01
    8987.423     -7.460  -0.200  1.56543E-01  2.89440E-01 -1.32897E-01
    8987.478     -7.406  -0.160  1.62249E-01  3.01679E-01 -1.39430E-01
    8987.521     -7.363  -0.120  1.66795E-01  3.11353E-01 -1.44559E-01
    8987.551     -7.332  -0.080  1.70098E-01  3.18323E-01 -1.48224E-01
    8987.576     -7.308   0.000  1.72791E-01  3.23922E-01 -1.51130E-01
    8987.631     -7.253   0.120  1.78731E-01  3.36537E-01 -1.57806E-01
    8987.673     -7.210   0.160  1.83358E-01  3.46340E-01 -1.62982E-01
    8987.728     -7.156   0.200  1.89330E-01  3.58861E-01 -1.69531E-01
    8987.795     -7.089   0.240  1.96610E-01  3.73930E-01 -1.77320E-01
    8987.874     -7.009   0.280  2.05111E-01  3.91224E-01 -1.86113E-01
    8987.966     -6.918   0.320  2.14739E-01  4.10300E-01 -1.95561E-01
    8988.070     -6.814   0.360  2.25346E-01  4.30589E-01 -2.05242E-01
    8988.185     -6.698   0.400  2.36832E-01  4.51525E-01 -2.14694E-01
    8988.313     -6.570   0.440  2.49088E-01  4.72557E-01 -2.23469E-01
    8988.454     -6.430   0.480  2.61964E-01  4.93250E-01 -2.31286E-01
    8988.606     -6.278   0.520  2.75217E-01  5.13342E-01 -2.38125E-01
    8988.771     -6.113   0.560  2.88499E-01  5.32711E-01 -2.44212E-01
    8988.947     -5.936   0.600  3.01407E-01  5.51305E-01 -2.49898E-01
    8989.136     -5.747   0.640  3.14006E-01  5.69182E-01 -2.55175E-01
    8989.338     -5.546   0.680  3.27266E-01  5.86437E-01 -2.59171E-01
    8989.551     -5.333   0.720  3.43096E-01  6.03139E-01 -2.60043E-01
    8989.776     -5.107   0.760  3.63943E-01  6.19379E-01 -2.55436E-01
    8990.014     -4.870   0.800  3.91942E-01  6.35273E-01 -2.43331E-01
    8990.264     -4.620   0.840  4.27339E-01  6.50847E-01 -2.23508E-01
    8990.526     -4.358   0.880  4.66644E-01  6.66153E-01 -1.99508E-01
    8990.801     -4.083   0.920  5.01648E-01  6.81268E-01 -1.79620E-01
    8991.087     -3.797   0.960  5.23620E-01  6.96177E-01 -1.72557E-01
    8991.386     -3.498   1.000  5.31997E-01  7.10914E-01 -1.78917E-01
    8991.697     -3.187   1.040  5.35802E-01  7.25465E-01 -1.89663E-01
    8992.020     -2.864   1.080  5.45061E-01  7.39848E-01 -1.94787E-01
    8992.355     -2.529   1.120  5.63384E-01  7.54034E-01 -1.90650E-01
    8992.703     -2.181   1.160  5.88878E-01  7.68029E-01 -1.79151E-01
    8993.062     -1.822   1.200  6.17117E-01  7.81775E-01 -1.64658E-01
    8993.434     -1.450   1.240  6.40929E-01  7.95269E-01 -1.54340E-01
    8993.818     -1.066   1.280  6.54634E-01  8.08510E-01 -1.53876E-01
    8994.214     -0.669   1.320  6.60531E-01  8.21451E-01 -1.60920E-01
    8994.623     -0.261   1.360  6.62901E-01  8.34045E-01 -1.71144E-01
    8995.043      0.160   1.400  6.64441E-01  8.46309E-01 -1.81867E-01
    8995.476      0.592   1.440  6.72047E-01  8.58211E-01 -1.86164E-01
    8995.921      1.037   1.480  6.93514E-01  8.69705E-01 -1.76192E-01
    8996.378      1.495   1.520  7.31721E-01  8.80806E-01 -1.49085E-01
    8996.848      1.964   1.560  7.86622E-01  8.91465E-01 -1.04842E-01
    8997.329      2.446   1.600  8.53793E-01  9.01657E-01 -4.78641E-02
    8997.823      2.939   1.640  9.23130E-01  9.11420E-01  1.17103E-02
    8998.329      3.445   1.680  9.83893E-01  9.20709E-01  6.31846E-02
    8998.847      3.963   1.720  1.03275E+00  9.29500E-01  1.03253E-01
    8999.378      4.494   1.760  1.07647E+00  9.37812E-01  1.38659E-01
    8999.920      5.036   1.800  1.12037E+00  9.45646E-01  1.74726E-01
    9000.475      5.591   1.840  1.16163E+00  9.53004E-01  2.08626E-01
    9001.042      6.158   1.880  1.19684E+00  9.59846E-01  2.36995E-01
    9001.621      6.737   1.920  1.22516E+00  9.66237E-01  2.58928E-01
    9002.212      7.328   1.960  1.24902E+00  9.72140E-01  2.76878E-01
    9002.816      7.932   2.000  1.27311E+00  9.77580E-01  2.95533E-01
    9003.431      8.548   2.040  1.30304E+00  9.82585E-01  3.20457E-01
    9004.059      9.176   2.080  1.33719E+00  9.87119E-01  3.50072E-01
    9004.699      9.816   2.120  1.35994E+00  9.91250E-01  3.68685E-01
    9005.352     10.468   2.160  1.36164E+00  9.94948E-01  3.66697E-01
    9006.016     11.132   2.200  1.34534E+00  9.98260E-01  3.47082E-01
    9006.693     11.809   2.240  1.31432E+00  1.00120E+00  3.13128E-01
    9007.382     12.498   2.280  1.27128E+00  1.00376E+00  2.67515E-01
    9008.083     13.199   2.320  1.22523E+00  1.00599E+00  2.19231E-01
    9008.796     13.912   2.360  1.18364E+00  1.00790E+00  1.75741E-01
    9009.521     14.638   2.400  1.14393E+00  1.00950E+00  1.34432E-01
    9010.259     15.375   2.440  1.10314E+00  1.01082E+00  9.23214E-02
    9011.009     16.125   2.480  1.06372E+00  1.01185E+00  5.18636E-02
    9011.771     16.887   2.520  1.03087E+00  1.01264E+00  1.82310E-02
    9012.545     17.661   2.560  1.00905E+00  1.01321E+00 -4.16029E-03
    9013.331     18.448   2.600  9.97834E-01  1.01356E+00 -1.57302E-02
    9014.130     19.246   2.640  9.88576E-01  1.01370E+00 -2.51236E-02
    9014.941     20.057   2.680  9.77135E-01  1.01368E+00 -3.65480E-02
    9015.764     20.880   2.720  9.64933E-01  1.01350E+00 -4.85717E-02
    9016.599     21.715   2.760  9.54005E-01  1.01317E+00 -5.91645E-02
    9017.446     22.562   2.800  9.45075E-01  1.01271E+00 -6.76336E-02
    9018.306     23.422   2.840  9.38017E-01  1.01215E+00 -7.41306E-02
    9019.177     24.294   2.880  9.32211E-01  1.01147E+00 -7.92641E-02
    9020.061     25.177   2.920  9.27156E-01  1.01072E+00 -8.35628E-02
    9020.957     26.074   2.960  9.22928E-01  1.00990E+00 -8.69750E-02
    9021.866     26.982   3.000  9.19368E-01  1.00901E+00 -8.96450E-02
    9022.786     27.902   3.040  9.15952E-01  1.00806E+00 -9.21043E-02
    9023.719     28.835   3.080  9.12136E-01  1.00708E+00 -9.49455E-02
    9024.664     29.780   3.120  9.07741E-01  1.00609E+00 -9.83503E-02
    9025.621     30.737   3.160  9.02897E-01  1.00507E+00 -1.02173E-01
    9026.590     31.706   3.200  8.98119E-01  1.00402E+00 -1.05903E-01
    9027.571     32.688   3.240  8.94289E-01  1.00299E+00 -1.08704E-01
    9028.565     33.681   3.280  8.91796E-01  1.00197E+00 -1.10171E-01
    9029.571     34.687   3.320  8.91020E-01  1.00097E+00 -1.09948E-01
    9030.589     35.705   3.360  8.92093E-01  9.99978E-01 -1.07885E-01
    9031.619     36.735   3.400  8.94781E-01  9.98999E-01 -1.04218E-01
    9032.662     37.778   3.440  8.98672E-01  9.98076E-01 -9.94041E-02
    9033.716     38.832   3.480  9.03333E-01  9.97169E-01 -9.38356E-02
    9034.783     39.899   3.520  9.08546E-01  9.96323E-01 -8.77764E-02
    9035.862     40.978   3.560  9.14062E-01  9.95498E-01 -8.14354E-02
    9036.953     42.069   3.600  9.20079E-01  9.94737E-01 -7.46574E-02
    9038.057     43.173   3.640  9.26894E-01  9.94021E-01 -6.71262E-02
    9039.172     44.288   3.680  9.34717E-01  9.93372E-01 -5.86551E-02
    9040.300     45.416   3.720  9.43510E-01  9.92769E-01 -4.92590E-02
    9041.440     46.556   3.760  9.53244E-01  9.92212E-01 -3.89681E-02
    9042.592     47.708   3.800  9.63842E-01  9.91704E-01 -2.78620E-02
    9043.756     48.873   3.840  9.75242E-01  9.91286E-01 -1.60440E-02
    9044.933     50.049   3.880  9.87372E-01  9.90896E-01 -3.52402E-03
    9046.122     51.238   3.920  1.00038E+00  9.90574E-01  9.81037E-03
    9047.322     52.439   3.960  1.01430E+00  9.90324E-01  2.39718E-02
    9048.536     53.652   4.000  1.02893E+00  9.90123E-01  3.88116E-02
    9049.761     54.877   4.040  1.04382E+00  9.89990E-01  5.38328E-02
    9050.998     56.115   4.080  1.05803E+00  9.89883E-01  6.81438E-02
    9052.248     57.364   4.120  1.07055E+00  9.89864E-01  8.06897E-02
    9053.510     58.626   4.160  1.08061E+00  9.89870E-01  9.07405E-02
    9054.784     59.900   4.200  1.08797E+00  9.89943E-01  9.80246E-02
    9056.070     61.186   4.240  1.09277E+00  9.90060E-01  1.02706E-01
    9057.369     62.485   4.280  1.09549E+00  9.90243E-01  1.05245E-01
    9058.679     63.795   4.320  1.09649E+00  9.90447E-01  1.06040E-01
    9060.002     65.118   4.360  1.09594E+00  9.90711E-01  1.05225E-01
    9061.337     66.453   4.400  1.09372E+00  9.90995E-01  1.02722E-01
    9062.684     67.801   4.440  1.08972E+00  9.91338E-01  9.83853E-02
    9064.044     69.160   4.480  1.08377E+00  9.91696E-01  9.20751E-02
    9065.415     70.532   4.520  1.07580E+00  9.92088E-01  8.37145E-02
    9066.799     71.915   4.560  1.06588E+00  9.92515E-01  7.33645E-02
    9068.195     73.311   4.600  1.05418E+00  9.92953E-01  6.12291E-02
    9069.603     74.719   4.640  1.04117E+00  9.93424E-01  4.77485E-02
    9071.024     76.140   4.680  1.02751E+00  9.93925E-01  3.35848E-02
    9072.456     77.572   4.720  1.01394E+00  9.94432E-01  1.95065E-02
    9073.901     79.017   4.760  1.00115E+00  9.94941E-01  6.21174E-03
    9075.358     80.474   4.800  9.89693E-01  9.95452E-01 -5.75840E-03
    9076.827     81.943   4.840  9.79879E-01  9.95964E-01 -1.60854E-02
    9078.308     83.425   4.880  9.71869E-01  9.96500E-01 -2.46310E-02
    9079.802     84.918   4.920  9.65653E-01  9.97011E-01 -3.13576E-02
    9081.307     86.424   4.960  9.61215E-01  9.97518E-01 -3.63026E-02
    9082.825     87.942   5.000  9.58436E-01  9.98021E-01 -3.95857E-02
    9084.355     89.472   5.040  9.56956E-01  9.98519E-01 -4.15629E-02
    9085.898     91.014   5.080  9.56225E-01  9.98987E-01 -4.27624E-02
    9087.452     92.568   5.120  9.55750E-01  9.99447E-01 -4.36968E-02
    9089.019     94.135   5.160  9.55287E-01  9.99896E-01 -4.46092E-02
    9090.598     95.714   5.200  9.54964E-01  1.00029E+00 -4.53273E-02
    9092.189     97.305   5.240  9.55234E-01  1.00069E+00 -4.54607E-02
    9093.792     98.908   5.280  9.56438E-01  1.00104E+00 -4.46036E-02
    9095.407    100.524   5.320  9.58830E-01  1.00137E+00 -4.25436E-02
    9097.035    102.151   5.360  9.62405E-01  1.00167E+00 -3.92627E-02
    9098.675    103.791   5.400  9.67008E-01  1.00192E+00 -3.49162E-02
    9100.327    105.443   5.440  9.72309E-01  1.00214E+00 -2.98337E-02
    9101.991    107.107   5.480  9.77737E-01  1.00234E+00 -2.46069E-02
    9103.668    108.784   5.520  9.82460E-01  1.00248E+00 -2.00234E-02
    9105.356    110.472   5.560  9.85738E-01  1.00261E+00 -1.68673E-02
    9107.057    112.173   5.600  9.87025E-01  1.00266E+00 -1.56368E-02
    9108.770    113.886   5.640  9.86322E-01  1.00268E+00 -1.63553E-02
    9110.495    115.611   5.680  9.84186E-01  1.00268E+00 -1.84904E-02
    9112.232    117.349   5.720  9.81468E-01  1.00261E+00 -2.11450E-02
    9113.982    119.098   5.760  9.79120E-01  1.00253E+00 -2.34103E-02
    9115.744    120.860   5.800  9.77731E-01  1.00239E+00 -2.46546E-02
    9117.518    122.634   5.840  9.77665E-01  1.00220E+00 -2.45357E-02
    9119.304    124.420   5.880  9.79056E-01  1.00200E+00 -2.29440E-02
    9121.102    126.218   5.920  9.81681E-01  1.00174E+00 -2.00576E-02
    9122.913    128.029   5.960  9.85024E-01  1.00144E+00 -1.64130E-02
    9124.735    129.851   6.000  9.88457E-01  1.00110E+00 -1.26413E-02
