# # comment:                                                     FEFF 9.9.1  
# # Source:
# # Structure
# # Reduced
# # space
# # abc:
# # angles:
# # sites:
# # POT  SCF 100  7.0000   0, screened core-hole, AFOLP (folp(0)= 1.150)
# # Abs   Z=29 Rmt= 1.178 Rnm= 1.280 K  shell
# # Pot 1 Z=20 Rmt= 1.623 Rnm= 1.705
# # Pot 2 Z=29 Rmt= 1.241 Rnm= 1.318
# # Pot 3 Z= 8 Rmt= 1.034 Rnm= 1.112
# # Gam_ch=1.729E+00 H-L exch Vi= 0.000E+00 Vr= 0.000E+00
# # Mu=-1.005E+01eV kf=2.023E+00 Vint=-1.766E+01eV Rs_int= 1.792
# FMS rfms= 9.0000
# # PATH  Rmax=-1.000,  Keep_limit= 0.00, Heap_limit 0.00  Pwcrit= 2.50%
#  S02=0.950  Temp=   0.00  Debye_temp=   0.00  Global_sig2= 0.00000
#  Energy zero shift, vr, vi    0.00000E+00   0.00000E+00
#  Curved wave amplitude ratio filter   4.000%
#     file         sig2 tot  cw amp ratio   deg  nlegs   reff  inp sig2
#     0/   0 paths used
#  xsedge+ 50, used to normalize mu           2.4528E-04
#  -----------------------------------------------------------------------
#  omega    e    k    mu    mu0     chi     @#
    8985.167    -13.864  -1.000  3.53337E-02  5.31529E-02 -1.78193E-02
    8985.466    -13.566  -0.960  3.71168E-02  5.69512E-02 -1.98344E-02
    8985.752    -13.279  -0.920  3.90261E-02  6.11643E-02 -2.21382E-02
    8986.027    -13.005  -0.880  4.10728E-02  6.58524E-02 -2.47797E-02
    8986.289    -12.743  -0.840  4.32687E-02  7.10857E-02 -2.78170E-02
    8986.539    -12.493  -0.800  4.56264E-02  7.69449E-02 -3.13185E-02
    8986.777    -12.255  -0.760  4.81589E-02  8.35230E-02 -3.53641E-02
    8987.002    -12.030  -0.720  5.08793E-02  9.09246E-02 -4.00453E-02
    8987.215    -11.816  -0.680  5.38001E-02  9.92648E-02 -4.54647E-02
    8987.417    -11.615  -0.640  5.69323E-02  1.08665E-01 -5.17326E-02
    8987.606    -11.426  -0.600  6.02838E-02  1.19244E-01 -5.89598E-02
    8987.782    -11.249  -0.560  6.38572E-02  1.31102E-01 -6.72449E-02
    8987.947    -11.085  -0.520  6.76469E-02  1.44300E-01 -7.66528E-02
    8988.099    -10.932  -0.480  7.16350E-02  1.58822E-01 -8.71865E-02
    8988.240    -10.792  -0.440  7.57873E-02  1.74541E-01 -9.87533E-02
    8988.368    -10.664  -0.400  8.00496E-02  1.91186E-01 -1.11136E-01
    8988.483    -10.548  -0.360  8.43466E-02  2.08332E-01 -1.23985E-01
    8988.587    -10.445  -0.320  8.85840E-02  2.25426E-01 -1.36842E-01
    8988.678    -10.353  -0.280  9.26553E-02  2.41855E-01 -1.49200E-01
    8988.758    -10.274  -0.240  9.64505E-02  2.57026E-01 -1.60576E-01
    8988.825    -10.207  -0.200  9.98646E-02  2.70442E-01 -1.70578E-01
    8988.880    -10.152  -0.160  1.02804E-01  2.81736E-01 -1.78932E-01
    8988.922    -10.109  -0.120  1.05189E-01  2.90670E-01 -1.85482E-01
    8988.953    -10.079  -0.080  1.06956E-01  2.97112E-01 -1.90156E-01
    8988.977    -10.054   0.000  1.08440E-01  3.02291E-01 -1.93851E-01
    8989.032    -10.000   0.120  1.11818E-01  3.13963E-01 -2.02145E-01
    8989.075     -9.957   0.160  1.14453E-01  3.23050E-01 -2.08597E-01
    8989.130     -9.902   0.200  1.17931E-01  3.34689E-01 -2.16757E-01
    8989.197     -9.835   0.240  1.22283E-01  3.48697E-01 -2.26414E-01
    8989.276     -9.756   0.280  1.27619E-01  3.64816E-01 -2.37197E-01
    8989.367     -9.664   0.320  1.34097E-01  3.82685E-01 -2.48587E-01
    8989.471     -9.561   0.360  1.41910E-01  4.01824E-01 -2.59915E-01
    8989.587     -9.445   0.400  1.51315E-01  4.21662E-01 -2.70347E-01
    8989.715     -9.317   0.440  1.62770E-01  4.41772E-01 -2.79002E-01
    8989.855     -9.177   0.480  1.76920E-01  4.61770E-01 -2.84850E-01
    8990.007     -9.024   0.520  1.94691E-01  4.81427E-01 -2.86735E-01
    8990.172     -8.860   0.560  2.17135E-01  5.00571E-01 -2.83437E-01
    8990.349     -8.683   0.600  2.45536E-01  5.19234E-01 -2.73698E-01
    8990.538     -8.494   0.640  2.80612E-01  5.37422E-01 -2.56811E-01
    8990.739     -8.293   0.680  3.21474E-01  5.55218E-01 -2.33744E-01
    8990.952     -8.079   0.720  3.63699E-01  5.72673E-01 -2.08974E-01
    8991.178     -7.854   0.760  3.98746E-01  5.89858E-01 -1.91112E-01
    8991.416     -7.616   0.800  4.17275E-01  6.06854E-01 -1.89579E-01
    8991.666     -7.366   0.840  4.15836E-01  6.23689E-01 -2.07853E-01
    8991.928     -7.104   0.880  3.99796E-01  6.40398E-01 -2.40603E-01
    8992.202     -6.830   0.920  3.78759E-01  6.56985E-01 -2.78226E-01
    8992.488     -6.543   0.960  3.60430E-01  6.73502E-01 -3.13072E-01
    8992.787     -6.244   1.000  3.48487E-01  6.89910E-01 -3.41423E-01
    8993.098     -5.934   1.040  3.44487E-01  7.06181E-01 -3.61694E-01
    8993.421     -5.610   1.080  3.50217E-01  7.22323E-01 -3.72106E-01
    8993.756     -5.275   1.120  3.67114E-01  7.38295E-01 -3.71181E-01
    8994.104     -4.928   1.160  3.94203E-01  7.54075E-01 -3.59872E-01
    8994.464     -4.568   1.200  4.26578E-01  7.69614E-01 -3.43036E-01
    8994.835     -4.196   1.240  4.56644E-01  7.84883E-01 -3.28239E-01
    8995.219     -3.812   1.280  4.78143E-01  7.99849E-01 -3.21706E-01
    8995.616     -3.416   1.320  4.89839E-01  8.14481E-01 -3.24642E-01
    8996.024     -3.007   1.360  4.94499E-01  8.28725E-01 -3.34227E-01
    8996.445     -2.587   1.400  4.96719E-01  8.42550E-01 -3.45831E-01
    8996.878     -2.154   1.440  5.03444E-01  8.55940E-01 -3.52496E-01
    8997.323     -1.709   1.480  5.21272E-01  8.68842E-01 -3.47570E-01
    8997.780     -1.252   1.520  5.52543E-01  8.81251E-01 -3.28708E-01
    8998.249     -0.782   1.560  5.94748E-01  8.93133E-01 -2.98386E-01
    8998.731     -0.301   1.600  6.42416E-01  9.04462E-01 -2.62046E-01
    8999.225      0.193   1.640  6.91704E-01  9.15252E-01 -2.23548E-01
    8999.730      0.699   1.680  7.43841E-01  9.25456E-01 -1.81615E-01
    9000.249      1.217   1.720  8.08151E-01  9.35073E-01 -1.26922E-01
    9000.779      1.747   1.760  8.99336E-01  9.44102E-01 -4.47663E-02
    9001.322      2.290   1.800  1.02432E+00  9.52542E-01  7.17757E-02
    9001.876      2.845   1.840  1.17398E+00  9.60417E-01  2.13565E-01
    9002.443      3.412   1.880  1.31998E+00  9.67711E-01  3.52268E-01
    9003.022      3.991   1.920  1.41629E+00  9.74427E-01  4.41859E-01
    9003.614      4.582   1.960  1.43277E+00  9.80572E-01  4.52200E-01
    9004.217      5.186   2.000  1.39750E+00  9.86195E-01  4.11307E-01
    9004.833      5.801   2.040  1.36091E+00  9.91284E-01  3.69629E-01
    9005.461      6.429   2.080  1.34790E+00  9.95847E-01  3.52053E-01
    9006.101      7.069   2.120  1.35600E+00  9.99937E-01  3.56064E-01
    9006.753      7.721   2.160  1.36727E+00  1.00354E+00  3.63731E-01
    9007.418      8.386   2.200  1.36306E+00  1.00672E+00  3.56345E-01
    9008.094      9.063   2.240  1.34140E+00  1.00945E+00  3.31949E-01
    9008.783      9.751   2.280  1.31304E+00  1.01180E+00  3.01236E-01
    9009.484     10.452   2.320  1.28313E+00  1.01378E+00  2.69349E-01
    9010.197     11.166   2.360  1.24847E+00  1.01539E+00  2.33083E-01
    9010.923     11.891   2.400  1.20528E+00  1.01667E+00  1.88612E-01
    9011.660     12.629   2.440  1.16148E+00  1.01765E+00  1.43834E-01
    9012.410     13.378   2.480  1.13267E+00  1.01834E+00  1.14322E-01
    9013.172     14.140   2.520  1.11595E+00  1.01876E+00  9.71873E-02
    9013.946     14.915   2.560  1.10207E+00  1.01896E+00  8.31080E-02
    9014.733     15.701   2.600  1.08583E+00  1.01895E+00  6.68828E-02
    9015.531     16.500   2.640  1.06665E+00  1.01873E+00  4.79157E-02
    9016.342     17.310   2.680  1.04656E+00  1.01835E+00  2.82141E-02
    9017.165     18.133   2.720  1.02790E+00  1.01780E+00  1.01016E-02
    9018.000     18.969   2.760  1.01148E+00  1.01712E+00 -5.63918E-03
    9018.847     19.816   2.800  9.96972E-01  1.01632E+00 -1.93496E-02
    9019.707     20.675   2.840  9.83665E-01  1.01543E+00 -3.17635E-02
    9020.579     21.547   2.880  9.70820E-01  1.01443E+00 -4.36102E-02
    9021.463     22.431   2.920  9.58194E-01  1.01337E+00 -5.51805E-02
    9022.359     23.327   2.960  9.45939E-01  1.01227E+00 -6.63286E-02
    9023.267     24.235   3.000  9.33928E-01  1.01110E+00 -7.71678E-02
    9024.188     25.156   3.040  9.22006E-01  1.00991E+00 -8.79008E-02
    9025.120     26.089   3.080  9.10266E-01  1.00869E+00 -9.84208E-02
    9026.065     27.033   3.120  8.99249E-01  1.00746E+00 -1.08210E-01
    9027.022     27.991   3.160  8.89536E-01  1.00623E+00 -1.16697E-01
    9027.991     28.960   3.200  8.81515E-01  1.00503E+00 -1.23517E-01
    9028.973     29.941   3.240  8.75380E-01  1.00384E+00 -1.28458E-01
    9029.967     30.935   3.280  8.71084E-01  1.00267E+00 -1.31590E-01
    9030.972     31.941   3.320  8.68542E-01  1.00153E+00 -1.32984E-01
    9031.990     32.959   3.360  8.67843E-01  1.00042E+00 -1.32572E-01
    9033.021     33.989   3.400  8.69032E-01  9.99368E-01 -1.30335E-01
    9034.063     35.031   3.440  8.71985E-01  9.98364E-01 -1.26380E-01
    9035.118     36.086   3.480  8.76683E-01  9.97405E-01 -1.20723E-01
    9036.184     37.153   3.520  8.83078E-01  9.96493E-01 -1.13416E-01
    9037.263     38.232   3.560  8.90904E-01  9.95652E-01 -1.04747E-01
    9038.355     39.323   3.600  8.99862E-01  9.94883E-01 -9.50211E-02
    9039.458     40.426   3.640  9.09679E-01  9.94166E-01 -8.44868E-02
    9040.574     41.542   3.680  9.20237E-01  9.93522E-01 -7.32851E-02
    9041.701     42.670   3.720  9.31415E-01  9.92953E-01 -6.15373E-02
    9042.841     43.810   3.760  9.43244E-01  9.92436E-01 -4.91917E-02
    9043.993     44.962   3.800  9.55716E-01  9.91993E-01 -3.62773E-02
    9045.158     46.126   3.840  9.68601E-01  9.91625E-01 -2.30247E-02
    9046.334     47.303   3.880  9.81527E-01  9.91311E-01 -9.78349E-03
    9047.523     48.491   3.920  9.94091E-01  9.91069E-01  3.02237E-03
    9048.724     49.692   3.960  1.00574E+00  9.90901E-01  1.48380E-02
    9049.937     50.905   4.000  1.01585E+00  9.90786E-01  2.50672E-02
    9051.162     52.131   4.040  1.02405E+00  9.90745E-01  3.33009E-02
    9052.400     53.368   4.080  1.03021E+00  9.90776E-01  3.94365E-02
    9053.649     54.618   4.120  1.03449E+00  9.90857E-01  4.36357E-02
    9054.911     55.880   4.160  1.03744E+00  9.91008E-01  4.64329E-02
    9056.185     57.154   4.200  1.03960E+00  9.91205E-01  4.83962E-02
    9057.472     58.440   4.240  1.04132E+00  9.91446E-01  4.98719E-02
    9058.770     59.738   4.280  1.04280E+00  9.91732E-01  5.10634E-02
    9060.081     61.049   4.320  1.04425E+00  9.92082E-01  5.21688E-02
    9061.403     62.372   4.360  1.04589E+00  9.92474E-01  5.34182E-02
    9062.738     63.707   4.400  1.04786E+00  9.92884E-01  5.49725E-02
    9064.086     65.054   4.440  1.05038E+00  9.93352E-01  5.70309E-02
    9065.445     66.413   4.480  1.05354E+00  9.93836E-01  5.97050E-02
    9066.817     67.785   4.520  1.05746E+00  9.94377E-01  6.30803E-02
    9068.200     69.169   4.560  1.06200E+00  9.94908E-01  6.70919E-02
    9069.596     70.565   4.600  1.06684E+00  9.95490E-01  7.13489E-02
    9071.005     71.973   4.640  1.07111E+00  9.96059E-01  7.50523E-02
    9072.425     73.393   4.680  1.07382E+00  9.96677E-01  7.71455E-02
    9073.858     74.826   4.720  1.07389E+00  9.97277E-01  7.66148E-02
    9075.302     76.271   4.760  1.07085E+00  9.97878E-01  7.29749E-02
    9076.759     77.728   4.800  1.06507E+00  9.98503E-01  6.65669E-02
    9078.228     79.197   4.840  1.05753E+00  9.99127E-01  5.83990E-02
    9079.710     80.678   4.880  1.04932E+00  9.99724E-01  4.95934E-02
    9081.203     82.172   4.920  1.04113E+00  1.00032E+00  4.08098E-02
    9082.709     83.677   4.960  1.03303E+00  1.00090E+00  3.21217E-02
    9084.227     85.195   5.000  1.02495E+00  1.00149E+00  2.34650E-02
    9085.757     86.725   5.040  1.01695E+00  1.00204E+00  1.49143E-02
    9087.299     88.268   5.080  1.00911E+00  1.00257E+00  6.54228E-03
    9088.854     89.822   5.120  1.00137E+00  1.00305E+00 -1.68694E-03
    9090.420     91.389   5.160  9.93616E-01  1.00354E+00 -9.92523E-03
    9091.999     92.968   5.200  9.85665E-01  1.00397E+00 -1.83083E-02
    9093.590     94.559   5.240  9.77532E-01  1.00439E+00 -2.68574E-02
    9095.193     96.162   5.280  9.69397E-01  1.00477E+00 -3.53699E-02
    9096.809     97.777   5.320  9.61712E-01  1.00510E+00 -4.33918E-02
    9098.436     99.405   5.360  9.55098E-01  1.00540E+00 -5.03035E-02
    9100.076    101.045   5.400  9.50087E-01  1.00566E+00 -5.55711E-02
    9101.728    102.697   5.440  9.47007E-01  1.00587E+00 -5.88661E-02
    9103.393    104.361   5.480  9.45930E-01  1.00604E+00 -6.01141E-02
    9105.069    106.037   5.520  9.46651E-01  1.00617E+00 -5.95209E-02
    9106.758    107.726   5.560  9.48707E-01  1.00624E+00 -5.75288E-02
    9108.458    109.427   5.600  9.51771E-01  1.00628E+00 -5.45093E-02
    9110.171    111.140   5.640  9.55764E-01  1.00628E+00 -5.05187E-02
    9111.896    112.865   5.680  9.60904E-01  1.00622E+00 -4.53144E-02
    9113.634    114.602   5.720  9.67454E-01  1.00611E+00 -3.86586E-02
    9115.383    116.352   5.760  9.75516E-01  1.00599E+00 -3.04725E-02
    9117.145    118.113   5.800  9.84727E-01  1.00580E+00 -2.10733E-02
    9118.919    119.887   5.840  9.94178E-01  1.00557E+00 -1.13922E-02
    9120.705    121.673   5.880  1.00235E+00  1.00530E+00 -2.95489E-03
    9122.503    123.472   5.920  1.00754E+00  1.00500E+00  2.54336E-03
    9124.314    125.282   5.960  1.00856E+00  1.00465E+00  3.91128E-03
    9126.137    127.105   6.000  1.00522E+00  1.00424E+00  9.77783E-04
