# # comment:                                                     FEFF 9.9.1  
# # Source:
# # Structure
# # Reduced
# # space
# # abc:
# # angles:
# # sites:
# # POT  SCF 100  7.0000   0, screened core-hole, AFOLP (folp(0)= 1.150)
# # Abs   Z=29 Rmt= 1.175 Rnm= 1.288 K  shell
# # Pot 1 Z=29 Rmt= 1.205 Rnm= 1.314
# # Pot 2 Z=52 Rmt= 1.339 Rnm= 1.526
# # Pot 3 Z=16 Rmt= 0.860 Rnm= 1.104
# # Pot 4 Z= 8 Rmt= 0.991 Rnm= 1.094
# # Gam_ch=1.729E+00 H-L exch Vi= 0.000E+00 Vr= 0.000E+00
# # Mu=-6.220E+00eV kf=2.271E+00 Vint=-1.529E+01eV Rs_int= 1.597
# FMS rfms= 9.0000
# # PATH  Rmax=-1.000,  Keep_limit= 0.00, Heap_limit 0.00  Pwcrit= 2.50%
#  S02=0.950  Temp=   0.00  Debye_temp=   0.00  Global_sig2= 0.00000
#  Energy zero shift, vr, vi    0.00000E+00   0.00000E+00
#  Curved wave amplitude ratio filter   4.000%
#     file         sig2 tot  cw amp ratio   deg  nlegs   reff  inp sig2
#     0/   0 paths used
#  xsedge+ 50, used to normalize mu           2.4455E-04
#  -----------------------------------------------------------------------
#  omega    e    k    mu    mu0     chi     @#
    8983.442    -10.030  -1.000  3.47462E-02  5.49814E-02 -2.02353E-02
    8983.741     -9.731  -0.960  3.63611E-02  5.89994E-02 -2.26383E-02
    8984.027     -9.445  -0.920  3.80769E-02  6.34660E-02 -2.53890E-02
    8984.302     -9.170  -0.880  3.99027E-02  6.84473E-02 -2.85446E-02
    8984.564     -8.908  -0.840  4.18485E-02  7.40205E-02 -3.21720E-02
    8984.814     -8.658  -0.800  4.39258E-02  8.02748E-02 -3.63490E-02
    8985.051     -8.420  -0.760  4.61474E-02  8.73127E-02 -4.11653E-02
    8985.277     -8.195  -0.720  4.85272E-02  9.52499E-02 -4.67227E-02
    8985.490     -7.982  -0.680  5.10802E-02  1.04214E-01 -5.31339E-02
    8985.691     -7.780  -0.640  5.38214E-02  1.14340E-01 -6.05185E-02
    8985.880     -7.591  -0.600  5.67643E-02  1.25759E-01 -6.89951E-02
    8986.057     -7.415  -0.560  5.99185E-02  1.38586E-01 -7.86672E-02
    8986.222     -7.250  -0.520  6.32853E-02  1.52886E-01 -8.96007E-02
    8986.374     -7.098  -0.480  6.68520E-02  1.68646E-01 -1.01794E-01
    8986.514     -6.957  -0.440  7.05859E-02  1.85726E-01 -1.15140E-01
    8986.642     -6.829  -0.400  7.44289E-02  2.03829E-01 -1.29401E-01
    8986.758     -6.714  -0.360  7.82963E-02  2.22488E-01 -1.44192E-01
    8986.862     -6.610  -0.320  8.20826E-02  2.41094E-01 -1.59012E-01
    8986.953     -6.519  -0.280  8.56738E-02  2.58973E-01 -1.73299E-01
    8987.033     -6.439  -0.240  8.89619E-02  2.75475E-01 -1.86513E-01
    8987.100     -6.372  -0.200  9.18575E-02  2.90057E-01 -1.98200E-01
    8987.154     -6.317  -0.160  9.42946E-02  3.02323E-01 -2.08028E-01
    8987.197     -6.275  -0.120  9.62285E-02  3.12018E-01 -2.15789E-01
    8987.228     -6.244  -0.080  9.76309E-02  3.19002E-01 -2.21371E-01
    8987.252     -6.220   0.000  9.87739E-02  3.24612E-01 -2.25839E-01
    8987.307     -6.165   0.120  1.01393E-01  3.37264E-01 -2.35870E-01
    8987.350     -6.122   0.160  1.03401E-01  3.47095E-01 -2.43693E-01
    8987.404     -6.067   0.200  1.05952E-01  3.59632E-01 -2.53680E-01
    8987.471     -6.000   0.240  1.09032E-01  3.74724E-01 -2.65691E-01
    8987.551     -5.921   0.280  1.12620E-01  3.92047E-01 -2.79427E-01
    8987.642     -5.830   0.320  1.16686E-01  4.11159E-01 -2.94472E-01
    8987.746     -5.726   0.360  1.21203E-01  4.31506E-01 -3.10303E-01
    8987.862     -5.610   0.400  1.26159E-01  4.52484E-01 -3.26326E-01
    8987.990     -5.482   0.440  1.31585E-01  4.73559E-01 -3.41974E-01
    8988.130     -5.342   0.480  1.37538E-01  4.94295E-01 -3.56756E-01
    8988.282     -5.190   0.520  1.44116E-01  5.14429E-01 -3.70313E-01
    8988.447     -5.025   0.560  1.51437E-01  5.33820E-01 -3.82383E-01
    8988.624     -4.848   0.600  1.59697E-01  5.52454E-01 -3.92756E-01
    8988.813     -4.659   0.640  1.69251E-01  5.70369E-01 -4.01118E-01
    8989.014     -4.458   0.680  1.80612E-01  5.87643E-01 -4.07030E-01
    8989.227     -4.245   0.720  1.94585E-01  6.04384E-01 -4.09799E-01
    8989.453     -4.019   0.760  2.12075E-01  6.20662E-01 -4.08586E-01
    8989.690     -3.781   0.800  2.34020E-01  6.36554E-01 -4.02534E-01
    8989.940     -3.531   0.840  2.61109E-01  6.52166E-01 -3.91058E-01
    8990.202     -3.269   0.880  2.93103E-01  6.67510E-01 -3.74408E-01
    8990.477     -2.995   0.920  3.28488E-01  6.82644E-01 -3.54156E-01
    8990.763     -2.709   0.960  3.64360E-01  6.97593E-01 -3.33234E-01
    8991.062     -2.410   1.000  3.98545E-01  7.12371E-01 -3.13827E-01
    8991.373     -2.099   1.040  4.32858E-01  7.26963E-01 -2.94105E-01
    8991.696     -1.776   1.080  4.72026E-01  7.41367E-01 -2.69341E-01
    8992.031     -1.441   1.120  5.17476E-01  7.55572E-01 -2.38096E-01
    8992.379     -1.093   1.160  5.63209E-01  7.69587E-01 -2.06378E-01
    8992.738     -0.733   1.200  5.97086E-01  7.83372E-01 -1.86286E-01
    8993.110     -0.362   1.240  6.09396E-01  7.96906E-01 -1.87510E-01
    8993.494      0.022   1.280  6.03811E-01  8.10185E-01 -2.06375E-01
    8993.890      0.419   1.320  5.95912E-01  8.23143E-01 -2.27231E-01
    8994.299      0.827   1.360  5.99563E-01  8.35796E-01 -2.36233E-01
    8994.720      1.248   1.400  6.19776E-01  8.48074E-01 -2.28298E-01
    8995.152      1.681   1.440  6.55047E-01  8.60009E-01 -2.04962E-01
    8995.597      2.126   1.480  6.96236E-01  8.71535E-01 -1.75300E-01
    8996.055      2.583   1.520  7.33393E-01  8.82645E-01 -1.49252E-01
    8996.524      3.052   1.560  7.68356E-01  8.93332E-01 -1.24976E-01
    8997.006      3.534   1.600  8.03686E-01  9.03568E-01 -9.98826E-02
    8997.499      4.028   1.640  8.39172E-01  9.13330E-01 -7.41580E-02
    8998.005      4.533   1.680  8.83248E-01  9.22616E-01 -3.93682E-02
    8998.523      5.052   1.720  9.43486E-01  9.31441E-01  1.20442E-02
    8999.054      5.582   1.760  1.01738E+00  9.39765E-01  7.76138E-02
    8999.596      6.125   1.800  1.10076E+00  9.47608E-01  1.53154E-01
    9000.151      6.679   1.840  1.18749E+00  9.54948E-01  2.32538E-01
    9000.718      7.246   1.880  1.26400E+00  9.61789E-01  3.02208E-01
    9001.297      7.825   1.920  1.31704E+00  9.68155E-01  3.48881E-01
    9001.888      8.417   1.960  1.34298E+00  9.74050E-01  3.68933E-01
    9002.492      9.020   2.000  1.35490E+00  9.79480E-01  3.75419E-01
    9003.108      9.636   2.040  1.36909E+00  9.84448E-01  3.84639E-01
    9003.735     10.264   2.080  1.38957E+00  9.88964E-01  4.00605E-01
    9004.376     10.904   2.120  1.40596E+00  9.93053E-01  4.12903E-01
    9005.028     11.556   2.160  1.39490E+00  9.96725E-01  3.98173E-01
    9005.692     12.221   2.200  1.34303E+00  1.00001E+00  3.43019E-01
    9006.369     12.897   2.240  1.26592E+00  1.00289E+00  2.63033E-01
    9007.058     13.586   2.280  1.18820E+00  1.00540E+00  1.82793E-01
    9007.759     14.287   2.320  1.12219E+00  1.00759E+00  1.14599E-01
    9008.472     15.000   2.360  1.07422E+00  1.00943E+00  6.47859E-02
    9009.197     15.726   2.400  1.05274E+00  1.01097E+00  4.17685E-02
    9009.935     16.463   2.440  1.05681E+00  1.01222E+00  4.45921E-02
    9010.685     17.213   2.480  1.06951E+00  1.01319E+00  5.63184E-02
    9011.447     17.975   2.520  1.07441E+00  1.01393E+00  6.04845E-02
    9012.221     18.749   2.560  1.06819E+00  1.01442E+00  5.37694E-02
    9013.007     19.536   2.600  1.05783E+00  1.01471E+00  4.31277E-02
    9013.806     20.334   2.640  1.05008E+00  1.01479E+00  3.52921E-02
    9014.617     21.145   2.680  1.05132E+00  1.01470E+00  3.66195E-02
    9015.440     21.968   2.720  1.05970E+00  1.01444E+00  4.52604E-02
    9016.275     22.803   2.760  1.06734E+00  1.01403E+00  5.33058E-02
    9017.122     23.650   2.800  1.06926E+00  1.01351E+00  5.57456E-02
    9017.982     24.510   2.840  1.06348E+00  1.01288E+00  5.06025E-02
    9018.854     25.382   2.880  1.05007E+00  1.01215E+00  3.79214E-02
    9019.737     26.266   2.920  1.03075E+00  1.01131E+00  1.94357E-02
    9020.634     27.162   2.960  1.00927E+00  1.01042E+00 -1.15112E-03
    9021.542     28.070   3.000  9.89249E-01  1.00948E+00 -2.02324E-02
    9022.462     28.991   3.040  9.72052E-01  1.00848E+00 -3.64238E-02
    9023.395     29.923   3.080  9.57528E-01  1.00745E+00 -4.99234E-02
    9024.340     30.868   3.120  9.44927E-01  1.00642E+00 -6.14877E-02
    9025.297     31.825   3.160  9.33446E-01  1.00535E+00 -7.19046E-02
    9026.266     32.794   3.200  9.22679E-01  1.00428E+00 -8.16020E-02
    9027.248     33.776   3.240  9.12800E-01  1.00321E+00 -9.04111E-02
    9028.241     34.770   3.280  9.03772E-01  1.00215E+00 -9.83742E-02
    9029.247     35.775   3.320  8.95885E-01  1.00111E+00 -1.05227E-01
    9030.265     36.793   3.360  8.89656E-01  1.00011E+00 -1.10455E-01
    9031.295     37.824   3.400  8.85518E-01  9.99146E-01 -1.13628E-01
    9032.338     38.866   3.440  8.83485E-01  9.98199E-01 -1.14714E-01
    9033.392     39.921   3.480  8.83168E-01  9.97314E-01 -1.14146E-01
    9034.459     40.987   3.520  8.83906E-01  9.96472E-01 -1.12565E-01
    9035.538     42.066   3.560  8.85026E-01  9.95675E-01 -1.10650E-01
    9036.629     43.158   3.600  8.86459E-01  9.94947E-01 -1.08487E-01
    9037.733     44.261   3.640  8.88671E-01  9.94267E-01 -1.05596E-01
    9038.848     45.377   3.680  8.92383E-01  9.93637E-01 -1.01254E-01
    9039.976     46.504   3.720  8.98166E-01  9.93099E-01 -9.49332E-02
    9041.116     47.644   3.760  9.06211E-01  9.92593E-01 -8.63820E-02
    9042.268     48.796   3.800  9.16464E-01  9.92181E-01 -7.57170E-02
    9043.432     49.961   3.840  9.28465E-01  9.91823E-01 -6.33582E-02
    9044.609     51.137   3.880  9.41730E-01  9.91541E-01 -4.98113E-02
    9045.798     52.326   3.920  9.55798E-01  9.91332E-01 -3.55337E-02
    9046.999     53.527   3.960  9.70128E-01  9.91176E-01 -2.10485E-02
    9048.212     54.740   4.000  9.84138E-01  9.91095E-01 -6.95705E-03
    9049.437     55.965   4.040  9.97234E-01  9.91089E-01  6.14493E-03
    9050.674     57.203   4.080  1.00889E+00  9.91133E-01  1.77575E-02
    9051.924     58.452   4.120  1.01887E+00  9.91249E-01  2.76208E-02
    9053.186     59.714   4.160  1.02718E+00  9.91417E-01  3.57667E-02
    9054.460     60.988   4.200  1.03405E+00  9.91656E-01  4.23959E-02
    9055.746     62.275   4.240  1.03960E+00  9.91968E-01  4.76316E-02
    9057.045     63.573   4.280  1.04379E+00  9.92326E-01  5.14668E-02
    9058.355     64.884   4.320  1.04653E+00  9.92730E-01  5.37976E-02
    9059.678     66.206   4.360  1.04778E+00  9.93178E-01  5.45992E-02
    9061.013     67.541   4.400  1.04781E+00  9.93692E-01  5.41172E-02
    9062.360     68.889   4.440  1.04716E+00  9.94249E-01  5.29083E-02
    9063.720     70.248   4.480  1.04650E+00  9.94846E-01  5.16535E-02
    9065.091     71.620   4.520  1.04635E+00  9.95460E-01  5.08943E-02
    9066.475     73.003   4.560  1.04708E+00  9.96131E-01  5.09464E-02
    9067.871     74.399   4.600  1.04865E+00  9.96817E-01  5.18305E-02
    9069.279     75.808   4.640  1.05094E+00  9.97538E-01  5.34039E-02
    9070.700     77.228   4.680  1.05378E+00  9.98291E-01  5.54860E-02
    9072.132     78.661   4.720  1.05692E+00  9.99053E-01  5.78647E-02
    9073.577     80.105   4.760  1.06013E+00  9.99842E-01  6.02920E-02
    9075.034     81.562   4.800  1.06319E+00  1.00061E+00  6.25746E-02
    9076.503     83.031   4.840  1.06594E+00  1.00141E+00  6.45316E-02
    9077.984     84.513   4.880  1.06803E+00  1.00220E+00  6.58307E-02
    9079.478     86.006   4.920  1.06887E+00  1.00300E+00  6.58659E-02
    9080.984     87.512   4.960  1.06763E+00  1.00379E+00  6.38357E-02
    9082.502     89.030   5.000  1.06365E+00  1.00456E+00  5.90978E-02
    9084.032     90.560   5.040  1.05694E+00  1.00534E+00  5.15990E-02
    9085.574     92.102   5.080  1.04798E+00  1.00609E+00  4.18865E-02
    9087.128     93.657   5.120  1.03776E+00  1.00681E+00  3.09570E-02
    9088.695     95.223   5.160  1.02736E+00  1.00751E+00  1.98451E-02
    9090.274     96.802   5.200  1.01751E+00  1.00818E+00  9.33259E-03
    9091.865     98.393   5.240  1.00857E+00  1.00881E+00 -2.37641E-04
    9093.468     99.996   5.280  1.00056E+00  1.00940E+00 -8.83862E-03
    9095.084    101.612   5.320  9.93343E-01  1.00995E+00 -1.66074E-02
    9096.711    103.240   5.360  9.86748E-01  1.01048E+00 -2.37342E-02
    9098.351    104.879   5.400  9.80522E-01  1.01095E+00 -3.04273E-02
    9100.003    106.531   5.440  9.74534E-01  1.01137E+00 -3.68398E-02
    9101.667    108.196   5.480  9.68719E-01  1.01175E+00 -4.30344E-02
    9103.344    109.872   5.520  9.63208E-01  1.01209E+00 -4.88820E-02
    9105.032    111.561   5.560  9.58397E-01  1.01238E+00 -5.39831E-02
    9106.733    113.261   5.600  9.54914E-01  1.01260E+00 -5.76862E-02
    9108.446    114.974   5.640  9.53237E-01  1.01277E+00 -5.95342E-02
    9110.171    116.699   5.680  9.53287E-01  1.01287E+00 -5.95852E-02
    9111.909    118.437   5.720  9.54532E-01  1.01293E+00 -5.83941E-02
    9113.658    120.186   5.760  9.56303E-01  1.01293E+00 -5.66299E-02
    9115.420    121.948   5.800  9.58115E-01  1.01287E+00 -5.47557E-02
    9117.194    123.722   5.840  9.59886E-01  1.01276E+00 -5.28761E-02
    9118.980    125.508   5.880  9.61741E-01  1.01261E+00 -5.08671E-02
    9120.778    127.306   5.920  9.63816E-01  1.01238E+00 -4.85684E-02
    9122.589    129.117   5.960  9.66265E-01  1.01211E+00 -4.58432E-02
    9124.411    130.940   6.000  9.69372E-01  1.01172E+00 -4.23446E-02
