# # comment:                                                     FEFF 9.9.1  
# # Source:
# # Structure
# # Reduced
# # space
# # abc:
# # angles:109.635777
# # sites:
# # POT  SCF 100  7.0000   0, screened core-hole, AFOLP (folp(0)= 1.150)
# # Abs   Z=29 Rmt= 1.246 Rnm= 1.358 K  shell
# # Pot 1 Z=29 Rmt= 1.246 Rnm= 1.358
# # Pot 2 Z=35 Rmt= 1.534 Rnm= 1.686
# # Pot 3 Z= 8 Rmt= 0.810 Rnm= 0.991
# # Gam_ch=1.729E+00 H-L exch Vi= 0.000E+00 Vr= 0.000E+00
# # Mu=-5.706E+00eV kf=2.166E+00 Vint=-1.430E+01eV Rs_int= 1.674
# FMS rfms= 9.0000
# # PATH  Rmax=-1.000,  Keep_limit= 0.00, Heap_limit 0.00  Pwcrit= 2.50%
#  S02=0.950  Temp=   0.00  Debye_temp=   0.00  Global_sig2= 0.00000
#  Energy zero shift, vr, vi    0.00000E+00   0.00000E+00
#  Curved wave amplitude ratio filter   4.000%
#     file         sig2 tot  cw amp ratio   deg  nlegs   reff  inp sig2
#     0/   0 paths used
#  xsedge+ 50, used to normalize mu           2.4348E-04
#  -----------------------------------------------------------------------
#  omega    e    k    mu    mu0     chi     @#
    8983.298     -9.516  -1.000  4.65599E-02  6.00639E-02 -1.35040E-02
    8983.596     -9.217  -0.960  4.94812E-02  6.46062E-02 -1.51250E-02
    8983.883     -8.931  -0.920  5.26861E-02  6.96671E-02 -1.69810E-02
    8984.157     -8.657  -0.880  5.62132E-02  7.53237E-02 -1.91105E-02
    8984.419     -8.394  -0.840  6.01072E-02  8.16662E-02 -2.15590E-02
    8984.669     -8.145  -0.800  6.44198E-02  8.87988E-02 -2.43790E-02
    8984.907     -7.907  -0.760  6.92098E-02  9.68415E-02 -2.76316E-02
    8985.133     -7.681  -0.720  7.45435E-02  1.05930E-01 -3.13861E-02
    8985.346     -7.468  -0.680  8.04932E-02  1.16213E-01 -3.57195E-02
    8985.547     -7.267  -0.640  8.71348E-02  1.27848E-01 -4.07136E-02
    8985.736     -7.078  -0.600  9.45420E-02  1.40992E-01 -4.64499E-02
    8985.913     -6.901  -0.560  1.02777E-01  1.55776E-01 -5.29995E-02
    8986.078     -6.736  -0.520  1.11873E-01  1.72281E-01 -6.04077E-02
    8986.230     -6.584  -0.480  1.21817E-01  1.90489E-01 -6.86722E-02
    8986.370     -6.444  -0.440  1.32524E-01  2.10242E-01 -7.77184E-02
    8986.498     -6.316  -0.400  1.43815E-01  2.31193E-01 -8.73781E-02
    8986.614     -6.200  -0.360  1.55415E-01  2.52798E-01 -9.73830E-02
    8986.718     -6.096  -0.320  1.66966E-01  2.74348E-01 -1.07382E-01
    8986.809     -6.005  -0.280  1.78071E-01  2.95059E-01 -1.16988E-01
    8986.888     -5.926  -0.240  1.88345E-01  3.14174E-01 -1.25829E-01
    8986.955     -5.859  -0.200  1.97460E-01  3.31063E-01 -1.33603E-01
    8987.010     -5.804  -0.160  2.05167E-01  3.45266E-01 -1.40099E-01
    8987.053     -5.761  -0.120  2.11296E-01  3.56489E-01 -1.45193E-01
    8987.083     -5.731  -0.080  2.15742E-01  3.64572E-01 -1.48829E-01
    8987.108     -5.706   0.000  2.19359E-01  3.71062E-01 -1.51703E-01
    8987.163     -5.651   0.120  2.27521E-01  3.85704E-01 -1.58183E-01
    8987.205     -5.609   0.160  2.33853E-01  3.97061E-01 -1.63208E-01
    8987.260     -5.554   0.200  2.42010E-01  4.11569E-01 -1.69559E-01
    8987.327     -5.487   0.240  2.51916E-01  4.28984E-01 -1.77068E-01
    8987.406     -5.407   0.280  2.63539E-01  4.48988E-01 -1.85449E-01
    8987.498     -5.316   0.320  2.76667E-01  4.70996E-01 -1.94329E-01
    8987.602     -5.212   0.360  2.91074E-01  4.94361E-01 -2.03287E-01
    8987.717     -5.097   0.400  3.06472E-01  5.18410E-01 -2.11938E-01
    8987.845     -4.969   0.440  3.22373E-01  5.42452E-01 -2.20078E-01
    8987.986     -4.828   0.480  3.38195E-01  5.66017E-01 -2.27822E-01
    8988.138     -4.676   0.520  3.53169E-01  5.88750E-01 -2.35581E-01
    8988.303     -4.511   0.560  3.66666E-01  6.10503E-01 -2.43838E-01
    8988.479     -4.335   0.600  3.78464E-01  6.31216E-01 -2.52751E-01
    8988.668     -4.146   0.640  3.89219E-01  6.50950E-01 -2.61731E-01
    8988.869     -3.944   0.680  4.00224E-01  6.69750E-01 -2.69527E-01
    8989.083     -3.731   0.720  4.12911E-01  6.87762E-01 -2.74851E-01
    8989.308     -3.505   0.760  4.27622E-01  7.05044E-01 -2.77422E-01
    8989.546     -3.268   0.800  4.43092E-01  7.21708E-01 -2.78616E-01
    8989.796     -3.018   0.840  4.56931E-01  7.37788E-01 -2.80857E-01
    8990.058     -2.756   0.880  4.67809E-01  7.53384E-01 -2.85575E-01
    8990.333     -2.481   0.920  4.76878E-01  7.68479E-01 -2.91601E-01
    8990.619     -2.195   0.960  4.87218E-01  7.83146E-01 -2.95927E-01
    8990.918     -1.896   1.000  5.01919E-01  7.97361E-01 -2.95442E-01
    8991.229     -1.585   1.040  5.23513E-01  8.11133E-01 -2.87620E-01
    8991.552     -1.262   1.080  5.54014E-01  8.24485E-01 -2.70471E-01
    8991.887     -0.927   1.120  5.94363E-01  8.37392E-01 -2.43029E-01
    8992.234     -0.579   1.160  6.43476E-01  8.49822E-01 -2.06346E-01
    8992.594     -0.220   1.200  6.97786E-01  8.61782E-01 -1.63997E-01
    8992.966      0.152   1.240  7.50992E-01  8.73260E-01 -1.22268E-01
    8993.350      0.536   1.280  7.95729E-01  8.84234E-01 -8.85053E-02
    8993.746      0.932   1.320  8.28339E-01  8.94688E-01 -6.63487E-02
    8994.155      1.341   1.360  8.51179E-01  9.04624E-01 -5.34449E-02
    8994.575      1.761   1.400  8.68805E-01  9.14025E-01 -4.52202E-02
    8995.008      2.194   1.440  8.85860E-01  9.22890E-01 -3.70303E-02
    8995.453      2.639   1.480  9.08861E-01  9.31203E-01 -2.23416E-02
    8995.910      3.096   1.520  9.43786E-01  9.38969E-01  4.81685E-03
    8996.380      3.566   1.560  9.90048E-01  9.46212E-01  4.38355E-02
    8996.861      4.047   1.600  1.03991E+00  9.52898E-01  8.70096E-02
    8997.355      4.541   1.640  1.08354E+00  9.59073E-01  1.24469E-01
    8997.861      5.047   1.680  1.11359E+00  9.64727E-01  1.48868E-01
    8998.379      5.565   1.720  1.12624E+00  9.69889E-01  1.56349E-01
    8998.910      6.096   1.760  1.12176E+00  9.74546E-01  1.47212E-01
    8999.452      6.638   1.800  1.10686E+00  9.78752E-01  1.28105E-01
    9000.007      7.193   1.840  1.09190E+00  9.82517E-01  1.09378E-01
    9000.574      7.760   1.880  1.08570E+00  9.85853E-01  9.98474E-02
    9001.153      8.339   1.920  1.09084E+00  9.88772E-01  1.02065E-01
    9001.744      8.930   1.960  1.10228E+00  9.91306E-01  1.10977E-01
    9002.348      9.534   2.000  1.11193E+00  9.93510E-01  1.18424E-01
    9002.963     10.149   2.040  1.11613E+00  9.95354E-01  1.20774E-01
    9003.591     10.777   2.080  1.11813E+00  9.96892E-01  1.21243E-01
    9004.231     11.417   2.120  1.12373E+00  9.98137E-01  1.25592E-01
    9004.884     12.070   2.160  1.13806E+00  9.99144E-01  1.38914E-01
    9005.548     12.734   2.200  1.16422E+00  9.99881E-01  1.64342E-01
    9006.225     13.411   2.240  1.19849E+00  1.00042E+00  1.98067E-01
    9006.914     14.100   2.280  1.22832E+00  1.00076E+00  2.27556E-01
    9007.615     14.801   2.320  1.24089E+00  1.00093E+00  2.39967E-01
    9008.328     15.514   2.360  1.23298E+00  1.00095E+00  2.32033E-01
    9009.053     16.239   2.400  1.21064E+00  1.00082E+00  2.09820E-01
    9009.791     16.977   2.440  1.18085E+00  1.00059E+00  1.80264E-01
    9010.541     17.727   2.480  1.14758E+00  1.00024E+00  1.47339E-01
    9011.303     18.489   2.520  1.11238E+00  9.99836E-01  1.12546E-01
    9012.077     19.263   2.560  1.07480E+00  9.99352E-01  7.54471E-02
    9012.863     20.049   2.600  1.04080E+00  9.98820E-01  4.19789E-02
    9013.662     20.848   2.640  1.01727E+00  9.98269E-01  1.89965E-02
    9014.473     21.659   2.680  9.99948E-01  9.97662E-01  2.28633E-03
    9015.296     22.482   2.720  9.86776E-01  9.97068E-01 -1.02923E-02
    9016.131     23.317   2.760  9.76040E-01  9.96474E-01 -2.04339E-02
    9016.978     24.164   2.800  9.66608E-01  9.95882E-01 -2.92736E-02
    9017.838     25.024   2.840  9.57827E-01  9.95318E-01 -3.74909E-02
    9018.709     25.895   2.880  9.49281E-01  9.94765E-01 -4.54833E-02
    9019.593     26.779   2.920  9.40898E-01  9.94249E-01 -5.33510E-02
    9020.489     27.675   2.960  9.32791E-01  9.93796E-01 -6.10045E-02
    9021.398     28.584   3.000  9.25160E-01  9.93384E-01 -6.82234E-02
    9022.318     29.504   3.040  9.18259E-01  9.92996E-01 -7.47367E-02
    9023.251     30.437   3.080  9.12569E-01  9.92698E-01 -8.01292E-02
    9024.196     31.382   3.120  9.08469E-01  9.92449E-01 -8.39799E-02
    9025.153     32.339   3.160  9.06218E-01  9.92252E-01 -8.60339E-02
    9026.122     33.308   3.200  9.06008E-01  9.92148E-01 -8.61406E-02
    9027.103     34.290   3.240  9.07753E-01  9.92077E-01 -8.43242E-02
    9028.097     35.283   3.280  9.11421E-01  9.92102E-01 -8.06813E-02
    9029.103     36.289   3.320  9.16545E-01  9.92203E-01 -7.56583E-02
    9030.121     37.307   3.360  9.22675E-01  9.92359E-01 -6.96838E-02
    9031.151     38.337   3.400  9.29479E-01  9.92588E-01 -6.31083E-02
    9032.194     39.380   3.440  9.36587E-01  9.92870E-01 -5.62826E-02
    9033.248     40.434   3.480  9.43778E-01  9.93248E-01 -4.94707E-02
    9034.315     41.501   3.520  9.50844E-01  9.93679E-01 -4.28349E-02
    9035.394     42.580   3.560  9.57703E-01  9.94160E-01 -3.64579E-02
    9036.485     43.671   3.600  9.64305E-01  9.94715E-01 -3.04102E-02
    9037.589     44.775   3.640  9.70710E-01  9.95341E-01 -2.46302E-02
    9038.704     45.890   3.680  9.76990E-01  9.96014E-01 -1.90240E-02
    9039.832     47.018   3.720  9.83315E-01  9.96755E-01 -1.34403E-02
    9040.972     48.158   3.760  9.89834E-01  9.97520E-01 -7.68561E-03
    9042.124     49.310   3.800  9.96763E-01  9.98348E-01 -1.58510E-03
    9043.288     50.474   3.840  1.00401E+00  9.99217E-01  4.79737E-03
    9044.465     51.651   3.880  1.01129E+00  1.00013E+00  1.11648E-02
    9045.653     52.840   3.920  1.01808E+00  1.00107E+00  1.70095E-02
    9046.854     54.041   3.960  1.02372E+00  1.00203E+00  2.16904E-02
    9048.068     55.254   4.000  1.02763E+00  1.00302E+00  2.46165E-02
    9049.293     56.479   4.040  1.02944E+00  1.00401E+00  2.54275E-02
    9050.530     57.716   4.080  1.02909E+00  1.00504E+00  2.40534E-02
    9051.780     58.966   4.120  1.02679E+00  1.00606E+00  2.07283E-02
    9053.042     60.228   4.160  1.02318E+00  1.00712E+00  1.60587E-02
    9054.316     61.502   4.200  1.01899E+00  1.00815E+00  1.08479E-02
    9055.602     62.788   4.240  1.01515E+00  1.00917E+00  5.98286E-03
    9056.901     64.087   4.280  1.01243E+00  1.01019E+00  2.24304E-03
    9058.211     65.397   4.320  1.01131E+00  1.01118E+00  1.33471E-04
    9059.534     66.720   4.360  1.01196E+00  1.01216E+00 -1.94842E-04
    9060.869     68.055   4.400  1.01419E+00  1.01312E+00  1.07039E-03
    9062.216     69.402   4.440  1.01758E+00  1.01403E+00  3.55680E-03
    9063.576     70.762   4.480  1.02175E+00  1.01492E+00  6.83581E-03
    9064.947     72.133   4.520  1.02627E+00  1.01577E+00  1.05061E-02
    9066.331     73.517   4.560  1.03082E+00  1.01658E+00  1.42465E-02
    9067.727     74.913   4.600  1.03517E+00  1.01734E+00  1.78274E-02
    9069.135     76.321   4.640  1.03920E+00  1.01806E+00  2.11387E-02
    9070.556     77.742   4.680  1.04285E+00  1.01871E+00  2.41390E-02
    9071.988     79.174   4.720  1.04606E+00  1.01931E+00  2.67467E-02
    9073.433     80.619   4.760  1.04865E+00  1.01986E+00  2.87916E-02
    9074.890     82.076   4.800  1.05044E+00  1.02034E+00  3.00995E-02
    9076.359     83.545   4.840  1.05138E+00  1.02077E+00  3.06156E-02
    9077.840     85.026   4.880  1.05154E+00  1.02112E+00  3.04240E-02
    9079.334     86.520   4.920  1.05106E+00  1.02140E+00  2.96606E-02
    9080.839     88.026   4.960  1.05005E+00  1.02164E+00  2.84094E-02
    9082.357     89.543   5.000  1.04846E+00  1.02179E+00  2.66681E-02
    9083.887     91.074   5.040  1.04628E+00  1.02189E+00  2.43924E-02
    9085.430     92.616   5.080  1.04346E+00  1.02191E+00  2.15552E-02
    9086.984     94.170   5.120  1.04008E+00  1.02188E+00  1.81996E-02
    9088.551     95.737   5.160  1.03619E+00  1.02177E+00  1.44217E-02
    9090.130     97.316   5.200  1.03194E+00  1.02158E+00  1.03544E-02
    9091.721     98.907   5.240  1.02745E+00  1.02135E+00  6.10200E-03
    9093.324    100.510   5.280  1.02270E+00  1.02104E+00  1.66429E-03
    9094.939    102.126   5.320  1.01759E+00  1.02070E+00 -3.11753E-03
    9096.567    103.753   5.360  1.01173E+00  1.02028E+00 -8.54852E-03
    9098.207    105.393   5.400  1.00489E+00  1.01983E+00 -1.49319E-02
    9099.859    107.045   5.440  9.96958E-01  1.01931E+00 -2.23472E-02
    9101.523    108.709   5.480  9.88247E-01  1.01874E+00 -3.04914E-02
    9103.199    110.386   5.520  9.79411E-01  1.01813E+00 -3.87168E-02
    9104.888    112.074   5.560  9.71220E-01  1.01745E+00 -4.62321E-02
    9106.589    113.775   5.600  9.64451E-01  1.01676E+00 -5.23092E-02
    9108.302    115.488   5.640  9.59627E-01  1.01603E+00 -5.64053E-02
    9110.027    117.213   5.680  9.57101E-01  1.01529E+00 -5.81897E-02
    9111.764    118.950   5.720  9.56939E-01  1.01449E+00 -5.75525E-02
    9113.514    120.700   5.760  9.59063E-01  1.01368E+00 -5.46211E-02
    9115.276    122.462   5.800  9.63111E-01  1.01287E+00 -4.97574E-02
    9117.050    124.236   5.840  9.68596E-01  1.01203E+00 -4.34304E-02
    9118.836    126.022   5.880  9.75091E-01  1.01116E+00 -3.60700E-02
    9120.634    127.820   5.920  9.82224E-01  1.01033E+00 -2.81039E-02
    9122.444    129.631   5.960  9.89463E-01  1.00949E+00 -2.00233E-02
    9124.267    131.453   6.000  9.96475E-01  1.00867E+00 -1.21940E-02
