# # comment:                                                     FEFF 9.9.1  
# # Source:
# # Structure
# # Reduced
# # space
# # abc:
# # angles:
# # sites:
# # POT  SCF 100  7.0000   0, screened core-hole, AFOLP (folp(0)= 1.150)
# # Abs   Z=29 Rmt= 1.129 Rnm= 1.270 K  shell
# # Pot 1 Z=81 Rmt= 1.826 Rnm= 1.897
# # Pot 2 Z=29 Rmt= 1.129 Rnm= 1.270
# # Pot 3 Z= 8 Rmt= 1.054 Rnm= 1.130
# # Gam_ch=1.729E+00 H-L exch Vi= 0.000E+00 Vr= 0.000E+00
# # Mu=-6.606E+00eV kf=1.976E+00 Vint=-1.314E+01eV Rs_int= 1.835
# FMS rfms= 9.0000
# # PATH  Rmax=-1.000,  Keep_limit= 0.00, Heap_limit 0.00  Pwcrit= 2.50%
#  S02=0.950  Temp=   0.00  Debye_temp=   0.00  Global_sig2= 0.00000
#  Energy zero shift, vr, vi    0.00000E+00   0.00000E+00
#  Curved wave amplitude ratio filter   4.000%
#     file         sig2 tot  cw amp ratio   deg  nlegs   reff  inp sig2
#     0/   0 paths used
#  xsedge+ 50, used to normalize mu           2.4070E-04
#  -----------------------------------------------------------------------
#  omega    e    k    mu    mu0     chi     @#
    8983.505    -10.416  -1.000  3.43022E-02  5.74571E-02 -2.31549E-02
    8983.803    -10.117  -0.960  3.59362E-02  6.15918E-02 -2.56556E-02
    8984.090     -9.831  -0.920  3.76836E-02  6.61754E-02 -2.84918E-02
    8984.364     -9.556  -0.880  3.95562E-02  7.12724E-02 -3.17163E-02
    8984.626     -9.294  -0.840  4.15672E-02  7.69577E-02 -3.53905E-02
    8984.876     -9.044  -0.800  4.37318E-02  8.33176E-02 -3.95858E-02
    8985.114     -8.807  -0.760  4.60667E-02  9.04509E-02 -4.43842E-02
    8985.339     -8.581  -0.720  4.85906E-02  9.84692E-02 -4.98785E-02
    8985.553     -8.368  -0.680  5.13233E-02  1.07495E-01 -5.61712E-02
    8985.754     -8.166  -0.640  5.42850E-02  1.17656E-01 -6.33706E-02
    8985.943     -7.977  -0.600  5.74942E-02  1.29078E-01 -7.15839E-02
    8986.120     -7.801  -0.560  6.09647E-02  1.41869E-01 -8.09039E-02
    8986.284     -7.636  -0.520  6.47001E-02  1.56089E-01 -9.13892E-02
    8986.437     -7.484  -0.480  6.86871E-02  1.71723E-01 -1.03036E-01
    8986.577     -7.343  -0.440  7.28876E-02  1.88634E-01 -1.15746E-01
    8986.705     -7.215  -0.400  7.72327E-02  2.06532E-01 -1.29299E-01
    8986.821     -7.100  -0.360  8.16210E-02  2.24964E-01 -1.43343E-01
    8986.924     -6.996  -0.320  8.59264E-02  2.43342E-01 -1.57416E-01
    8987.016     -6.905  -0.280  9.00133E-02  2.61010E-01 -1.70997E-01
    8987.095     -6.825  -0.240  9.37548E-02  2.77334E-01 -1.83579E-01
    8987.162     -6.758  -0.200  9.70478E-02  2.91779E-01 -1.94731E-01
    8987.217     -6.703  -0.160  9.98179E-02  3.03949E-01 -2.04131E-01
    8987.260     -6.661  -0.120  1.02017E-01  3.13585E-01 -2.11567E-01
    8987.290     -6.630  -0.080  1.03617E-01  3.20537E-01 -2.16919E-01
    8987.315     -6.606   0.000  1.04935E-01  3.26130E-01 -2.21195E-01
    8987.369     -6.551   0.120  1.07885E-01  3.38745E-01 -2.30860E-01
    8987.412     -6.508   0.160  1.10133E-01  3.48592E-01 -2.38459E-01
    8987.467     -6.453   0.200  1.12988E-01  3.61184E-01 -2.48196E-01
    8987.534     -6.386   0.240  1.16397E-01  3.76382E-01 -2.59984E-01
    8987.613     -6.307   0.280  1.20386E-01  3.93947E-01 -2.73561E-01
    8987.705     -6.216   0.320  1.24862E-01  4.13453E-01 -2.88591E-01
    8987.808     -6.112   0.360  1.29874E-01  4.34431E-01 -3.04557E-01
    8987.924     -5.996   0.400  1.35413E-01  4.56334E-01 -3.20921E-01
    8988.052     -5.868   0.440  1.41631E-01  4.78663E-01 -3.37032E-01
    8988.192     -5.728   0.480  1.48723E-01  5.01040E-01 -3.52317E-01
    8988.345     -5.576   0.520  1.57024E-01  5.23204E-01 -3.66180E-01
    8988.509     -5.411   0.560  1.66949E-01  5.45019E-01 -3.78071E-01
    8988.686     -5.234   0.600  1.79006E-01  5.66449E-01 -3.87443E-01
    8988.875     -5.045   0.640  1.93807E-01  5.87514E-01 -3.93707E-01
    8989.076     -4.844   0.680  2.11862E-01  6.08272E-01 -3.96411E-01
    8989.290     -4.631   0.720  2.33454E-01  6.28767E-01 -3.95313E-01
    8989.515     -4.405   0.760  2.58259E-01  6.49060E-01 -3.90802E-01
    8989.753     -4.167   0.800  2.84946E-01  6.69182E-01 -3.84237E-01
    8990.003     -3.918   0.840  3.11170E-01  6.89152E-01 -3.77981E-01
    8990.265     -3.655   0.880  3.34686E-01  7.09012E-01 -3.74325E-01
    8990.539     -3.381   0.920  3.54455E-01  7.28709E-01 -3.74254E-01
    8990.826     -3.095   0.960  3.70609E-01  7.48242E-01 -3.77633E-01
    8991.125     -2.796   1.000  3.83154E-01  7.67556E-01 -3.84402E-01
    8991.435     -2.485   1.040  3.91840E-01  7.86629E-01 -3.94789E-01
    8991.759     -2.162   1.080  3.97230E-01  8.05413E-01 -4.08183E-01
    8992.094     -1.827   1.120  4.00898E-01  8.23832E-01 -4.22935E-01
    8992.441     -1.479   1.160  4.05023E-01  8.41851E-01 -4.36828E-01
    8992.801     -1.120   1.200  4.11879E-01  8.59408E-01 -4.47529E-01
    8993.173     -0.748   1.240  4.23560E-01  8.76443E-01 -4.52882E-01
    8993.557     -0.364   1.280  4.41601E-01  8.92892E-01 -4.51291E-01
    8993.953      0.033   1.320  4.66318E-01  9.08716E-01 -4.42398E-01
    8994.362      0.441   1.360  4.95635E-01  9.23855E-01 -4.28220E-01
    8994.782      0.862   1.400  5.25207E-01  9.38271E-01 -4.13064E-01
    8995.215      1.294   1.440  5.51858E-01  9.51928E-01 -4.00070E-01
    8995.660      1.740   1.480  5.77559E-01  9.64795E-01 -3.87235E-01
    8996.117      2.197   1.520  6.08794E-01  9.76864E-01 -3.68070E-01
    8996.587      2.666   1.560  6.50037E-01  9.88108E-01 -3.38070E-01
    8997.068      3.148   1.600  6.96716E-01  9.98502E-01 -3.01786E-01
    8997.562      3.641   1.640  7.39606E-01  1.00807E+00 -2.68463E-01
    8998.068      4.147   1.680  7.80354E-01  1.01681E+00 -2.36457E-01
    8998.586      4.666   1.720  8.32237E-01  1.02471E+00 -1.92478E-01
    8999.116      5.196   1.760  9.02767E-01  1.03181E+00 -1.29042E-01
    8999.659      5.738   1.800  9.81545E-01  1.03810E+00 -5.65574E-02
    9000.214      6.293   1.840  1.04990E+00  1.04365E+00  6.25477E-03
    9000.781      6.860   1.880  1.10680E+00  1.04845E+00  5.83472E-02
    9001.360      7.439   1.920  1.17122E+00  1.05253E+00  1.18688E-01
    9001.951      8.031   1.960  1.25830E+00  1.05594E+00  2.02359E-01
    9002.555      8.634   2.000  1.36032E+00  1.05871E+00  3.01609E-01
    9003.170      9.250   2.040  1.44275E+00  1.06088E+00  3.81872E-01
    9003.798      9.878   2.080  1.47581E+00  1.06248E+00  4.13331E-01
    9004.438     10.518   2.120  1.47608E+00  1.06355E+00  4.12521E-01
    9005.090     11.170   2.160  1.47863E+00  1.06414E+00  4.14496E-01
    9005.755     11.834   2.200  1.49585E+00  1.06428E+00  4.31572E-01
    9006.432     12.511   2.240  1.52389E+00  1.06401E+00  4.59876E-01
    9007.120     13.200   2.280  1.54632E+00  1.06336E+00  4.82952E-01
    9007.821     13.901   2.320  1.53832E+00  1.06240E+00  4.75918E-01
    9008.535     14.614   2.360  1.48774E+00  1.06112E+00  4.26625E-01
    9009.260     15.340   2.400  1.40151E+00  1.05955E+00  3.41958E-01
    9009.998     16.077   2.440  1.31474E+00  1.05776E+00  2.56987E-01
    9010.747     16.827   2.480  1.24103E+00  1.05575E+00  1.85272E-01
    9011.509     17.589   2.520  1.18056E+00  1.05360E+00  1.26962E-01
    9012.284     18.363   2.560  1.13313E+00  1.05127E+00  8.18585E-02
    9013.070     19.150   2.600  1.09773E+00  1.04883E+00  4.89005E-02
    9013.869     19.948   2.640  1.07227E+00  1.04628E+00  2.59877E-02
    9014.679     20.759   2.680  1.05476E+00  1.04367E+00  1.10919E-02
    9015.502     21.582   2.720  1.04295E+00  1.04101E+00  1.93540E-03
    9016.337     22.417   2.760  1.03509E+00  1.03829E+00 -3.19652E-03
    9017.185     23.264   2.800  1.02984E+00  1.03558E+00 -5.74513E-03
    9018.044     24.124   2.840  1.02583E+00  1.03285E+00 -7.02659E-03
    9018.916     24.996   2.880  1.02188E+00  1.03015E+00 -8.27445E-03
    9019.800     25.880   2.920  1.01695E+00  1.02749E+00 -1.05339E-02
    9020.696     26.776   2.960  1.01036E+00  1.02487E+00 -1.45074E-02
    9021.604     27.684   3.000  1.00176E+00  1.02231E+00 -2.05494E-02
    9022.525     28.604   3.040  9.91100E-01  1.01981E+00 -2.87143E-02
    9023.458     29.537   3.080  9.78931E-01  1.01739E+00 -3.84613E-02
    9024.402     30.482   3.120  9.66110E-01  1.01505E+00 -4.89437E-02
    9025.360     31.439   3.160  9.53230E-01  1.01280E+00 -5.95730E-02
    9026.329     32.408   3.200  9.41056E-01  1.01066E+00 -6.96084E-02
    9027.310     33.390   3.240  9.30089E-01  1.00864E+00 -7.85527E-02
    9028.304     34.383   3.280  9.20342E-01  1.00672E+00 -8.63731E-02
    9029.310     35.389   3.320  9.11625E-01  1.00491E+00 -9.32842E-02
    9030.328     36.407   3.360  9.03773E-01  1.00322E+00 -9.94517E-02
    9031.358     37.438   3.400  8.96398E-01  1.00167E+00 -1.05268E-01
    9032.400     38.480   3.440  8.89288E-01  1.00025E+00 -1.10965E-01
    9033.455     39.535   3.480  8.82465E-01  9.98944E-01 -1.16480E-01
    9034.522     40.601   3.520  8.76312E-01  9.97783E-01 -1.21471E-01
    9035.601     41.680   3.560  8.71105E-01  9.96728E-01 -1.25623E-01
    9036.692     42.772   3.600  8.67206E-01  9.95821E-01 -1.28615E-01
    9037.795     43.875   3.640  8.64696E-01  9.95042E-01 -1.30346E-01
    9038.911     44.990   3.680  8.63561E-01  9.94413E-01 -1.30851E-01
    9040.039     46.118   3.720  8.63786E-01  9.93888E-01 -1.30102E-01
    9041.179     47.258   3.760  8.65720E-01  9.93510E-01 -1.27789E-01
    9042.331     48.410   3.800  8.69667E-01  9.93235E-01 -1.23568E-01
    9043.495     49.575   3.840  8.75869E-01  9.93107E-01 -1.17237E-01
    9044.672     50.751   3.880  8.84467E-01  9.93101E-01 -1.08634E-01
    9045.860     51.940   3.920  8.95605E-01  9.93196E-01 -9.75912E-02
    9047.061     53.141   3.960  9.09545E-01  9.93433E-01 -8.38883E-02
    9048.274     54.354   4.000  9.26430E-01  9.93768E-01 -6.73379E-02
    9049.500     55.579   4.040  9.46275E-01  9.94217E-01 -4.79419E-02
    9050.737     56.817   4.080  9.68534E-01  9.94758E-01 -2.62241E-02
    9051.987     58.066   4.120  9.92052E-01  9.95412E-01 -3.36059E-03
    9053.249     59.328   4.160  1.01523E+00  9.96155E-01  1.90749E-02
    9054.523     60.602   4.200  1.03647E+00  9.96983E-01  3.94856E-02
    9055.809     61.888   4.240  1.05453E+00  9.97896E-01  5.66383E-02
    9057.107     63.187   4.280  1.06888E+00  9.98912E-01  6.99638E-02
    9058.418     64.498   4.320  1.07948E+00  9.99983E-01  7.94968E-02
    9059.741     65.820   4.360  1.08675E+00  1.00111E+00  8.56440E-02
    9061.076     67.155   4.400  1.09141E+00  1.00233E+00  8.90779E-02
    9062.423     68.503   4.440  1.09422E+00  1.00358E+00  9.06465E-02
    9063.782     69.862   4.480  1.09602E+00  1.00489E+00  9.11292E-02
    9065.154     71.234   4.520  1.09742E+00  1.00624E+00  9.11784E-02
    9066.538     72.617   4.560  1.09896E+00  1.00764E+00  9.13191E-02
    9067.934     74.013   4.600  1.10091E+00  1.00905E+00  9.18659E-02
    9069.342     75.422   4.640  1.10326E+00  1.01051E+00  9.27442E-02
    9070.762     76.842   4.680  1.10531E+00  1.01196E+00  9.33545E-02
    9072.195     78.274   4.720  1.10602E+00  1.01344E+00  9.25813E-02
    9073.640     79.719   4.760  1.10420E+00  1.01491E+00  8.92880E-02
    9075.097     81.176   4.800  1.09921E+00  1.01639E+00  8.28290E-02
    9076.566     82.645   4.840  1.09106E+00  1.01783E+00  7.32349E-02
    9078.047     84.127   4.880  1.08039E+00  1.01927E+00  6.11226E-02
    9079.541     85.620   4.920  1.06842E+00  1.02069E+00  4.77248E-02
    9081.046     87.126   4.960  1.05671E+00  1.02208E+00  3.46262E-02
    9082.564     88.644   5.000  1.04680E+00  1.02343E+00  2.33630E-02
    9084.094     90.174   5.040  1.03968E+00  1.02474E+00  1.49343E-02
    9085.637     91.716   5.080  1.03545E+00  1.02600E+00  9.44345E-03
    9087.191     93.271   5.120  1.03329E+00  1.02720E+00  6.09206E-03
    9088.758     94.837   5.160  1.03180E+00  1.02834E+00  3.46657E-03
    9090.337     96.416   5.200  1.02963E+00  1.02943E+00  2.01881E-04
    9091.928     98.007   5.240  1.02620E+00  1.03044E+00 -4.24776E-03
    9093.531     99.610   5.280  1.02198E+00  1.03138E+00 -9.40413E-03
    9095.146    101.226   5.320  1.01797E+00  1.03226E+00 -1.42919E-02
    9096.774    102.853   5.360  1.01491E+00  1.03303E+00 -1.81257E-02
    9098.414    104.493   5.400  1.01317E+00  1.03374E+00 -2.05785E-02
    9100.066    106.145   5.440  1.01264E+00  1.03435E+00 -2.17153E-02
    9101.730    107.809   5.480  1.01304E+00  1.03487E+00 -2.18299E-02
    9103.406    109.486   5.520  1.01400E+00  1.03533E+00 -2.13281E-02
    9105.095    111.174   5.560  1.01497E+00  1.03568E+00 -2.07117E-02
    9106.796    112.875   5.600  1.01544E+00  1.03591E+00 -2.04743E-02
    9108.509    114.588   5.640  1.01525E+00  1.03609E+00 -2.08331E-02
    9110.234    116.313   5.680  1.01465E+00  1.03615E+00 -2.14965E-02
    9111.971    118.051   5.720  1.01432E+00  1.03613E+00 -2.18106E-02
    9113.721    119.800   5.760  1.01482E+00  1.03602E+00 -2.11978E-02
    9115.482    121.562   5.800  1.01608E+00  1.03580E+00 -1.97207E-02
    9117.256    123.336   5.840  1.01726E+00  1.03552E+00 -1.82636E-02
    9119.042    125.122   5.880  1.01698E+00  1.03514E+00 -1.81602E-02
    9120.841    126.920   5.920  1.01437E+00  1.03470E+00 -2.03326E-02
    9122.651    128.731   5.960  1.00948E+00  1.03415E+00 -2.46668E-02
    9124.474    130.554   6.000  1.00310E+00  1.03344E+00 -3.03384E-02
