# # comment:                                                     FEFF 9.9.1  
# # Source:
# # Structure
# # Reduced
# # space
# # abc:
# # angles:
# # sites:
# # POT  SCF 100  7.0000   0, screened core-hole, AFOLP (folp(0)= 1.150)
# # Abs   Z=29 Rmt= 1.249 Rnm= 1.325 K  shell
# # Pot 1 Z=59 Rmt= 1.724 Rnm= 1.812
# # Pot 2 Z=29 Rmt= 1.249 Rnm= 1.325
# # Pot 3 Z=32 Rmt= 1.166 Rnm= 1.324
# # Pot 4 Z= 8 Rmt= 1.021 Rnm= 1.089
# # Gam_ch=1.729E+00 H-L exch Vi= 0.000E+00 Vr= 0.000E+00
# # Mu=-7.968E+00eV kf=2.146E+00 Vint=-1.779E+01eV Rs_int= 1.690
# FMS rfms= 9.0000
# # PATH  Rmax=-1.000,  Keep_limit= 0.00, Heap_limit 0.00  Pwcrit= 2.50%
#  S02=0.950  Temp=   0.00  Debye_temp=   0.00  Global_sig2= 0.00000
#  Energy zero shift, vr, vi    0.00000E+00   0.00000E+00
#  Curved wave amplitude ratio filter   4.000%
#     file         sig2 tot  cw amp ratio   deg  nlegs   reff  inp sig2
#     0/   0 paths used
#  xsedge+ 50, used to normalize mu           2.4781E-04
#  -----------------------------------------------------------------------
#  omega    e    k    mu    mu0     chi     @#
    8984.122    -11.778  -1.000  4.00488E-02  5.25539E-02 -1.25051E-02
    8984.421    -11.479  -0.960  4.22499E-02  5.63588E-02 -1.41089E-02
    8984.707    -11.192  -0.920  4.46267E-02  6.05874E-02 -1.59607E-02
    8984.982    -10.918  -0.880  4.71987E-02  6.53024E-02 -1.81036E-02
    8985.244    -10.656  -0.840  4.99880E-02  7.05765E-02 -2.05886E-02
    8985.494    -10.406  -0.800  5.30191E-02  7.64944E-02 -2.34753E-02
    8985.732    -10.168  -0.760  5.63195E-02  8.31530E-02 -2.68335E-02
    8985.957     -9.943  -0.720  5.99193E-02  9.06620E-02 -3.07427E-02
    8986.171     -9.729  -0.680  6.38502E-02  9.91421E-02 -3.52920E-02
    8986.372     -9.528  -0.640  6.81444E-02  1.08721E-01 -4.05768E-02
    8986.561     -9.339  -0.600  7.28318E-02  1.19524E-01 -4.66926E-02
    8986.737     -9.163  -0.560  7.79358E-02  1.31659E-01 -5.37232E-02
    8986.902     -8.998  -0.520  8.34665E-02  1.45189E-01 -6.17222E-02
    8987.054     -8.846  -0.480  8.94121E-02  1.60100E-01 -7.06877E-02
    8987.195     -8.705  -0.440  9.57290E-02  1.76261E-01 -8.05322E-02
    8987.323     -8.577  -0.400  1.02332E-01  1.93391E-01 -9.10584E-02
    8987.438     -8.461  -0.360  1.09092E-01  2.11045E-01 -1.01954E-01
    8987.542     -8.358  -0.320  1.15835E-01  2.28648E-01 -1.12814E-01
    8987.634     -8.266  -0.280  1.22361E-01  2.45561E-01 -1.23200E-01
    8987.713     -8.187  -0.240  1.28464E-01  2.61169E-01 -1.32705E-01
    8987.780     -8.120  -0.200  1.33947E-01  2.74959E-01 -1.41011E-01
    8987.835     -8.065  -0.160  1.38647E-01  2.86555E-01 -1.47908E-01
    8987.877     -8.023  -0.120  1.42432E-01  2.95719E-01 -1.53287E-01
    8987.908     -7.992  -0.080  1.45207E-01  3.02319E-01 -1.57113E-01
    8987.932     -7.968   0.000  1.47489E-01  3.07621E-01 -1.60132E-01
    8987.987     -7.913   0.120  1.52665E-01  3.19574E-01 -1.66909E-01
    8988.030     -7.870   0.160  1.56742E-01  3.28863E-01 -1.72121E-01
    8988.085     -7.815   0.200  1.62029E-01  3.40718E-01 -1.78689E-01
    8988.152     -7.748   0.240  1.68538E-01  3.54952E-01 -1.86414E-01
    8988.231     -7.669   0.280  1.76290E-01  3.71294E-01 -1.95004E-01
    8988.322     -7.578   0.320  1.85205E-01  3.89318E-01 -2.04113E-01
    8988.426     -7.474   0.360  1.95114E-01  4.08457E-01 -2.13344E-01
    8988.542     -7.358   0.400  2.05842E-01  4.28193E-01 -2.22352E-01
    8988.670     -7.230   0.440  2.17091E-01  4.47973E-01 -2.30882E-01
    8988.810     -7.090   0.480  2.28624E-01  4.67404E-01 -2.38780E-01
    8988.962     -6.937   0.520  2.40363E-01  4.86237E-01 -2.45874E-01
    8989.127     -6.773   0.560  2.52565E-01  5.04356E-01 -2.51791E-01
    8989.304     -6.596   0.600  2.65882E-01  5.21730E-01 -2.55849E-01
    8989.493     -6.407   0.640  2.81254E-01  5.38400E-01 -2.57146E-01
    8989.694     -6.206   0.680  2.99400E-01  5.54460E-01 -2.55060E-01
    8989.907     -5.993   0.720  3.20271E-01  5.70000E-01 -2.49729E-01
    8990.133     -5.767   0.760  3.42824E-01  5.85146E-01 -2.42322E-01
    8990.371     -5.529   0.800  3.65390E-01  5.99935E-01 -2.34545E-01
    8990.621     -5.279   0.840  3.86636E-01  6.14455E-01 -2.27819E-01
    8990.883     -5.017   0.880  4.06423E-01  6.28780E-01 -2.22356E-01
    8991.157     -4.743   0.920  4.26098E-01  6.42948E-01 -2.16850E-01
    8991.444     -4.456   0.960  4.47740E-01  6.56986E-01 -2.09247E-01
    8991.742     -4.158   1.000  4.72101E-01  6.70892E-01 -1.98791E-01
    8992.053     -3.847   1.040  4.97588E-01  6.84735E-01 -1.87147E-01
    8992.376     -3.524   1.080  5.22263E-01  6.98457E-01 -1.76194E-01
    8992.712     -3.188   1.120  5.47961E-01  7.12090E-01 -1.64129E-01
    8993.059     -2.841   1.160  5.79695E-01  7.25604E-01 -1.45909E-01
    8993.419     -2.481   1.200  6.19005E-01  7.39005E-01 -1.20000E-01
    8993.790     -2.109   1.240  6.58563E-01  7.52275E-01 -9.37113E-02
    8994.175     -1.725   1.280  6.87703E-01  7.65389E-01 -7.76857E-02
    8994.571     -1.329   1.320  7.05423E-01  7.78326E-01 -7.29031E-02
    8994.979     -0.921   1.360  7.22266E-01  7.91041E-01 -6.87747E-02
    8995.400     -0.500   1.400  7.49674E-01  8.03546E-01 -5.38722E-02
    8995.833     -0.067   1.440  7.91334E-01  8.15816E-01 -2.44814E-02
    8996.278      0.378   1.480  8.39838E-01  8.27800E-01  1.20374E-02
    8996.735      0.835   1.520  8.79801E-01  8.39492E-01  4.03084E-02
    8997.204      1.304   1.560  9.07315E-01  8.50885E-01  5.64302E-02
    8997.686      1.786   1.600  9.36639E-01  8.61928E-01  7.47112E-02
    8998.180      2.280   1.640  9.82131E-01  8.72615E-01  1.09516E-01
    8998.686      2.786   1.680  1.04274E+00  8.82939E-01  1.59801E-01
    8999.204      3.304   1.720  1.10300E+00  8.92876E-01  2.10126E-01
    8999.734      3.834   1.760  1.15098E+00  9.02397E-01  2.48584E-01
    9000.277      4.377   1.800  1.19143E+00  9.11520E-01  2.79907E-01
    9000.831      4.931   1.840  1.22644E+00  9.20223E-01  3.06220E-01
    9001.398      5.498   1.880  1.24315E+00  9.28500E-01  3.14650E-01
    9001.977      6.077   1.920  1.23841E+00  9.36351E-01  3.02062E-01
    9002.569      6.669   1.960  1.22074E+00  9.43756E-01  2.76982E-01
    9003.172      7.272   2.000  1.19721E+00  9.50733E-01  2.46474E-01
    9003.788      7.888   2.040  1.17464E+00  9.57264E-01  2.17373E-01
    9004.416      8.516   2.080  1.15502E+00  9.63371E-01  1.91649E-01
    9005.056      9.156   2.120  1.13406E+00  9.69038E-01  1.65025E-01
    9005.708      9.808   2.160  1.10655E+00  9.74308E-01  1.32245E-01
    9006.373     10.473   2.200  1.06990E+00  9.79145E-01  9.07590E-02
    9007.049     11.149   2.240  1.03014E+00  9.83595E-01  4.65443E-02
    9007.738     11.838   2.280  9.99399E-01  9.87621E-01  1.17780E-02
    9008.439     12.539   2.320  9.86744E-01  9.91292E-01 -4.54718E-03
    9009.152     13.252   2.360  9.93286E-01  9.94593E-01 -1.30713E-03
    9009.878     13.978   2.400  1.01460E+00  9.97534E-01  1.70645E-02
    9010.615     14.715   2.440  1.04388E+00  1.00014E+00  4.37424E-02
    9011.365     15.465   2.480  1.07323E+00  1.00242E+00  7.08107E-02
    9012.127     16.227   2.520  1.09523E+00  1.00438E+00  9.08508E-02
    9012.901     17.001   2.560  1.10115E+00  1.00605E+00  9.51087E-02
    9013.688     17.788   2.600  1.09115E+00  1.00745E+00  8.37018E-02
    9014.486     18.586   2.640  1.07407E+00  1.00858E+00  6.54864E-02
    9015.297     19.397   2.680  1.05434E+00  1.00947E+00  4.48757E-02
    9016.120     20.220   2.720  1.03348E+00  1.01011E+00  2.33638E-02
    9016.955     21.055   2.760  1.01197E+00  1.01055E+00  1.42307E-03
    9017.803     21.903   2.800  9.90087E-01  1.01081E+00 -2.07198E-02
    9018.662     22.762   2.840  9.68848E-01  1.01087E+00 -4.20212E-02
    9019.534     23.634   2.880  9.49821E-01  1.01077E+00 -6.09453E-02
    9020.418     24.518   2.920  9.33819E-01  1.01050E+00 -7.66828E-02
    9021.314     25.414   2.960  9.21188E-01  1.01011E+00 -8.89202E-02
    9022.222     26.322   3.000  9.11796E-01  1.00959E+00 -9.77938E-02
    9023.143     27.243   3.040  9.05033E-01  1.00895E+00 -1.03920E-01
    9024.075     28.175   3.080  9.00341E-01  1.00823E+00 -1.07884E-01
    9025.020     29.120   3.120  8.97365E-01  1.00739E+00 -1.10027E-01
    9025.977     30.077   3.160  8.95628E-01  1.00650E+00 -1.10874E-01
    9026.946     31.047   3.200  8.94951E-01  1.00556E+00 -1.10611E-01
    9027.928     32.028   3.240  8.95237E-01  1.00455E+00 -1.09317E-01
    9028.922     33.022   3.280  8.96445E-01  1.00352E+00 -1.07079E-01
    9029.927     34.027   3.320  8.98430E-01  1.00244E+00 -1.04007E-01
    9030.945     35.045   3.360  9.01264E-01  1.00136E+00 -1.00097E-01
    9031.976     36.076   3.400  9.05043E-01  1.00025E+00 -9.52101E-02
    9033.018     37.118   3.440  9.09725E-01  9.99121E-01 -8.93957E-02
    9034.073     38.173   3.480  9.15360E-01  9.98011E-01 -8.26508E-02
    9035.139     39.240   3.520  9.21966E-01  9.96926E-01 -7.49598E-02
    9036.218     40.319   3.560  9.29520E-01  9.95828E-01 -6.63081E-02
    9037.310     41.410   3.600  9.38135E-01  9.94781E-01 -5.66466E-02
    9038.413     42.513   3.640  9.47897E-01  9.93746E-01 -4.58491E-02
    9039.529     43.629   3.680  9.58858E-01  9.92745E-01 -3.38876E-02
    9040.656     44.756   3.720  9.70813E-01  9.91761E-01 -2.09476E-02
    9041.796     45.896   3.760  9.83534E-01  9.90836E-01 -7.30264E-03
    9042.948     47.048   3.800  9.96704E-01  9.89954E-01  6.74910E-03
    9044.113     48.213   3.840  1.00987E+00  9.89117E-01  2.07503E-02
    9045.289     49.389   3.880  1.02259E+00  9.88346E-01  3.42413E-02
    9046.478     50.578   3.920  1.03445E+00  9.87620E-01  4.68263E-02
    9047.679     51.779   3.960  1.04513E+00  9.86940E-01  5.81882E-02
    9048.892     52.992   4.000  1.05441E+00  9.86326E-01  6.80837E-02
    9050.117     54.217   4.040  1.06202E+00  9.85761E-01  7.62554E-02
    9051.355     55.455   4.080  1.06755E+00  9.85243E-01  8.23038E-02
    9052.604     56.704   4.120  1.07052E+00  9.84795E-01  8.57207E-02
    9053.866     57.966   4.160  1.07066E+00  9.84417E-01  8.62404E-02
    9055.140     59.240   4.200  1.06809E+00  9.84088E-01  8.40017E-02
    9056.427     60.527   4.240  1.06335E+00  9.83807E-01  7.95440E-02
    9057.725     61.825   4.280  1.05719E+00  9.83596E-01  7.35914E-02
    9059.036     63.136   4.320  1.05022E+00  9.83455E-01  6.67639E-02
    9060.359     64.459   4.360  1.04277E+00  9.83360E-01  5.94072E-02
    9061.694     65.794   4.400  1.03507E+00  9.83310E-01  5.17580E-02
    9063.041     67.141   4.440  1.02749E+00  9.83306E-01  4.41861E-02
    9064.400     68.500   4.480  1.02051E+00  9.83367E-01  3.71419E-02
    9065.772     69.872   4.520  1.01453E+00  9.83473E-01  3.10619E-02
    9067.156     71.256   4.560  1.00981E+00  9.83622E-01  2.61839E-02
    9068.552     72.652   4.600  1.00622E+00  9.83834E-01  2.23892E-02
    9069.960     74.060   4.640  1.00325E+00  9.84064E-01  1.91905E-02
    9071.380     75.480   4.680  1.00022E+00  9.84331E-01  1.58897E-02
    9072.813     76.913   4.720  9.96415E-01  9.84637E-01  1.17784E-02
    9074.257     78.357   4.760  9.91367E-01  9.84980E-01  6.38695E-03
    9075.714     79.814   4.800  9.85058E-01  9.85359E-01 -3.00784E-04
    9077.183     81.283   4.840  9.77947E-01  9.85773E-01 -7.82526E-03
    9078.665     82.765   4.880  9.70792E-01  9.86194E-01 -1.54024E-02
    9080.158     84.258   4.920  9.64395E-01  9.86623E-01 -2.22277E-02
    9081.664     85.764   4.960  9.59277E-01  9.87080E-01 -2.78034E-02
    9083.182     87.282   5.000  9.55521E-01  9.87543E-01 -3.20224E-02
    9084.712     88.812   5.040  9.52955E-01  9.88032E-01 -3.50774E-02
    9086.254     90.354   5.080  9.51280E-01  9.88501E-01 -3.72208E-02
    9087.809     91.909   5.120  9.50451E-01  9.88993E-01 -3.85420E-02
    9089.375     93.475   5.160  9.50513E-01  9.89485E-01 -3.89718E-02
    9090.954     95.054   5.200  9.51634E-01  9.89952E-01 -3.83179E-02
    9092.545     96.645   5.240  9.54006E-01  9.90438E-01 -3.64318E-02
    9094.149     98.249   5.280  9.57595E-01  9.90897E-01 -3.33015E-02
    9095.764     99.864   5.320  9.62174E-01  9.91346E-01 -2.91718E-02
    9097.392    101.492   5.360  9.67197E-01  9.91766E-01 -2.45697E-02
    9099.031    103.131   5.400  9.71958E-01  9.92176E-01 -2.02186E-02
    9100.683    104.783   5.440  9.75732E-01  9.92554E-01 -1.68222E-02
    9102.348    106.448   5.480  9.78117E-01  9.92920E-01 -1.48029E-02
    9104.024    108.124   5.520  9.79090E-01  9.93250E-01 -1.41597E-02
    9105.713    109.813   5.560  9.79026E-01  9.93544E-01 -1.45173E-02
    9107.413    111.513   5.600  9.78484E-01  9.93801E-01 -1.53169E-02
    9109.126    113.226   5.640  9.78012E-01  9.94043E-01 -1.60307E-02
    9110.851    114.952   5.680  9.77922E-01  9.94246E-01 -1.63243E-02
    9112.589    116.689   5.720  9.78266E-01  9.94388E-01 -1.61217E-02
    9114.338    118.438   5.760  9.78987E-01  9.94512E-01 -1.55248E-02
    9116.100    120.200   5.800  9.79959E-01  9.94595E-01 -1.46353E-02
    9117.874    121.974   5.840  9.81220E-01  9.94614E-01 -1.33945E-02
    9119.660    123.760   5.880  9.83008E-01  9.94616E-01 -1.16084E-02
    9121.458    125.559   5.920  9.85422E-01  9.94555E-01 -9.13271E-03
    9123.269    127.369   5.960  9.88447E-01  9.94472E-01 -6.02511E-03
    9125.092    129.192   6.000  9.91915E-01  9.94296E-01 -2.38107E-03
