# # comment:                                                     FEFF 9.9.1  
# # Source:
# # Structure
# # Reduced
# # space
# # abc:
# # angles:
# # sites:
# # POT  SCF 100  7.0000   0, screened core-hole, AFOLP (folp(0)= 1.150)
# # Abs   Z=29 Rmt= 1.250 Rnm= 1.329 K  shell
# # Pot 1 Z=41 Rmt= 1.338 Rnm= 1.446
# # Pot 2 Z=29 Rmt= 1.285 Rnm= 1.348
# # Pot 3 Z=15 Rmt= 0.939 Rnm= 1.156
# # Pot 4 Z= 8 Rmt= 0.879 Rnm= 1.043
# # Gam_ch=1.729E+00 H-L exch Vi= 0.000E+00 Vr= 0.000E+00
# # Mu=-6.437E+00eV kf=2.498E+00 Vint=-1.730E+01eV Rs_int= 1.452
# FMS rfms= 9.0000
# # PATH  Rmax=-1.000,  Keep_limit= 0.00, Heap_limit 0.00  Pwcrit= 2.50%
#  S02=0.950  Temp=   0.00  Debye_temp=   0.00  Global_sig2= 0.00000
#  Energy zero shift, vr, vi    0.00000E+00   0.00000E+00
#  Curved wave amplitude ratio filter   4.000%
#     file         sig2 tot  cw amp ratio   deg  nlegs   reff  inp sig2
#     0/   0 paths used
#  xsedge+ 50, used to normalize mu           2.4897E-04
#  -----------------------------------------------------------------------
#  omega    e    k    mu    mu0     chi     @#
    8983.284    -10.247  -1.000  3.73407E-02  5.11108E-02 -1.37700E-02
    8983.583     -9.948  -0.960  3.92138E-02  5.48018E-02 -1.55880E-02
    8983.869     -9.661  -0.920  4.12126E-02  5.89049E-02 -1.76923E-02
    8984.144     -9.387  -0.880  4.33483E-02  6.34811E-02 -2.01327E-02
    8984.406     -9.125  -0.840  4.56333E-02  6.86015E-02 -2.29682E-02
    8984.656     -8.875  -0.800  4.80811E-02  7.43488E-02 -2.62677E-02
    8984.894     -8.637  -0.760  5.07068E-02  8.08178E-02 -3.01110E-02
    8985.119     -8.412  -0.720  5.35263E-02  8.81157E-02 -3.45894E-02
    8985.332     -8.198  -0.680  5.65562E-02  9.63609E-02 -3.98047E-02
    8985.534     -7.997  -0.640  5.98129E-02  1.05678E-01 -4.58653E-02
    8985.723     -7.808  -0.600  6.33105E-02  1.16191E-01 -5.28800E-02
    8985.899     -7.632  -0.560  6.70584E-02  1.28003E-01 -6.09445E-02
    8986.064     -7.467  -0.520  7.10566E-02  1.41178E-01 -7.01217E-02
    8986.216     -7.315  -0.480  7.52899E-02  1.55703E-01 -8.04135E-02
    8986.357     -7.174  -0.440  7.97217E-02  1.71450E-01 -9.17287E-02
    8986.485     -7.046  -0.400  8.42881E-02  1.88144E-01 -1.03855E-01
    8986.600     -6.930  -0.360  8.88964E-02  2.05350E-01 -1.16453E-01
    8986.704     -6.827  -0.320  9.34299E-02  2.22506E-01 -1.29076E-01
    8986.795     -6.735  -0.280  9.77591E-02  2.38987E-01 -1.41228E-01
    8986.875     -6.656  -0.240  1.01757E-01  2.54194E-01 -1.52437E-01
    8986.942     -6.589  -0.200  1.05310E-01  2.67626E-01 -1.62317E-01
    8986.997     -6.534  -0.160  1.08328E-01  2.78919E-01 -1.70591E-01
    8987.039     -6.492  -0.120  1.10743E-01  2.87841E-01 -1.77098E-01
    8987.070     -6.461  -0.080  1.12507E-01  2.94265E-01 -1.81758E-01
    8987.094     -6.437   0.000  1.13959E-01  2.99424E-01 -1.85465E-01
    8987.149     -6.382   0.120  1.17239E-01  3.11046E-01 -1.93807E-01
    8987.192     -6.339   0.160  1.19791E-01  3.20077E-01 -2.00286E-01
    8987.247     -6.284   0.200  1.23086E-01  3.31592E-01 -2.08507E-01
    8987.314     -6.217   0.240  1.27133E-01  3.45422E-01 -2.18289E-01
    8987.393     -6.138   0.280  1.31960E-01  3.61296E-01 -2.29336E-01
    8987.484     -6.047   0.320  1.37528E-01  3.78752E-01 -2.41223E-01
    8987.588     -5.943   0.360  1.43856E-01  3.97266E-01 -2.53410E-01
    8987.704     -5.827   0.400  1.51000E-01  4.16326E-01 -2.65326E-01
    8987.832     -5.699   0.440  1.58998E-01  4.35366E-01 -2.76369E-01
    8987.972     -5.559   0.480  1.68000E-01  4.54039E-01 -2.86039E-01
    8988.124     -5.406   0.520  1.78145E-01  4.72056E-01 -2.93910E-01
    8988.289     -5.242   0.560  1.89662E-01  4.89306E-01 -2.99644E-01
    8988.466     -5.065   0.600  2.02770E-01  5.05803E-01 -3.03033E-01
    8988.655     -4.876   0.640  2.17677E-01  5.21563E-01 -3.03887E-01
    8988.856     -4.675   0.680  2.34725E-01  5.36705E-01 -3.01980E-01
    8989.069     -4.462   0.720  2.54327E-01  5.51298E-01 -2.96971E-01
    8989.295     -4.236   0.760  2.76899E-01  5.65451E-01 -2.88551E-01
    8989.533     -3.998   0.800  3.02503E-01  5.79285E-01 -2.76782E-01
    8989.782     -3.748   0.840  3.30657E-01  5.92829E-01 -2.62173E-01
    8990.045     -3.486   0.880  3.61163E-01  6.06178E-01 -2.45015E-01
    8990.319     -3.212   0.920  3.94722E-01  6.19374E-01 -2.24652E-01
    8990.605     -2.925   0.960  4.32603E-01  6.32470E-01 -1.99867E-01
    8990.904     -2.627   1.000  4.75464E-01  6.45486E-01 -1.70021E-01
    8991.215     -2.316   1.040  5.22231E-01  6.58413E-01 -1.36182E-01
    8991.538     -1.993   1.080  5.68806E-01  6.71297E-01 -1.02491E-01
    8991.873     -1.657   1.120  6.08223E-01  6.84136E-01 -7.59136E-02
    8992.221     -1.310   1.160  6.34419E-01  6.96903E-01 -6.24842E-02
    8992.581     -0.950   1.200  6.46439E-01  7.09625E-01 -6.31862E-02
    8992.952     -0.578   1.240  6.49702E-01  7.22268E-01 -7.25666E-02
    8993.336     -0.194   1.280  6.54415E-01  7.34835E-01 -8.04194E-02
    8993.733      0.202   1.320  6.70829E-01  7.47302E-01 -7.64734E-02
    8994.141      0.610   1.360  7.04769E-01  7.59649E-01 -5.48794E-02
    8994.562      1.031   1.400  7.56723E-01  7.71850E-01 -1.51273E-02
    8994.995      1.464   1.440  8.21691E-01  7.83921E-01  3.77705E-02
    8995.440      1.909   1.480  8.87335E-01  7.95792E-01  9.15430E-02
    8995.897      2.366   1.520  9.38752E-01  8.07460E-01  1.31292E-01
    8996.366      2.835   1.560  9.70227E-01  8.18935E-01  1.51292E-01
    8996.848      3.317   1.600  9.87298E-01  8.30150E-01  1.57148E-01
    8997.341      3.811   1.640  9.97153E-01  8.41117E-01  1.56036E-01
    8997.847      4.317   1.680  1.01039E+00  8.51788E-01  1.58607E-01
    8998.366      4.835   1.720  1.04623E+00  8.62176E-01  1.84057E-01
    8998.896      5.365   1.760  1.10767E+00  8.72254E-01  2.35415E-01
    8999.439      5.908   1.800  1.16609E+00  8.81995E-01  2.84092E-01
    8999.993      6.462   1.840  1.18858E+00  8.91393E-01  2.97186E-01
    9000.560      7.029   1.880  1.17490E+00  9.00444E-01  2.74453E-01
    9001.139      7.608   1.920  1.14477E+00  9.09123E-01  2.35652E-01
    9001.731      8.200   1.960  1.11394E+00  9.17424E-01  1.96515E-01
    9002.334      8.803   2.000  1.08989E+00  9.25325E-01  1.64561E-01
    9002.950      9.419   2.040  1.07386E+00  9.32865E-01  1.40994E-01
    9003.578     10.047   2.080  1.06053E+00  9.40001E-01  1.20525E-01
    9004.218     10.687   2.120  1.04799E+00  9.46734E-01  1.01261E-01
    9004.870     11.339   2.160  1.03881E+00  9.53082E-01  8.57306E-02
    9005.534     12.004   2.200  1.03188E+00  9.59028E-01  7.28486E-02
    9006.211     12.680   2.240  1.02627E+00  9.64593E-01  6.16798E-02
    9006.900     13.369   2.280  1.02336E+00  9.69757E-01  5.36011E-02
    9007.601     14.070   2.320  1.02249E+00  9.74524E-01  4.79653E-02
    9008.314     14.783   2.360  1.02540E+00  9.78941E-01  4.64618E-02
    9009.040     15.509   2.400  1.03577E+00  9.82989E-01  5.27827E-02
    9009.777     16.246   2.440  1.05130E+00  9.86653E-01  6.46509E-02
    9010.527     16.996   2.480  1.06805E+00  9.89998E-01  7.80543E-02
    9011.289     17.758   2.520  1.08563E+00  9.92968E-01  9.26592E-02
    9012.063     18.532   2.560  1.10537E+00  9.95633E-01  1.09735E-01
    9012.850     19.319   2.600  1.12368E+00  9.97978E-01  1.25705E-01
    9013.648     20.117   2.640  1.13049E+00  1.00003E+00  1.30455E-01
    9014.459     20.928   2.680  1.12050E+00  1.00179E+00  1.18708E-01
    9015.282     21.751   2.720  1.09779E+00  1.00328E+00  9.45094E-02
    9016.117     22.586   2.760  1.07168E+00  1.00449E+00  6.71866E-02
    9016.964     23.434   2.800  1.04940E+00  1.00548E+00  4.39207E-02
    9017.824     24.293   2.840  1.03017E+00  1.00622E+00  2.39444E-02
    9018.696     25.165   2.880  1.00877E+00  1.00674E+00  2.02940E-03
    9019.580     26.049   2.920  9.86023E-01  1.00707E+00 -2.10484E-02
    9020.476     26.945   2.960  9.65778E-01  1.00721E+00 -4.14293E-02
    9021.384     27.853   3.000  9.45990E-01  1.00715E+00 -6.11639E-02
    9022.305     28.774   3.040  9.25601E-01  1.00696E+00 -8.13603E-02
    9023.237     29.706   3.080  9.06368E-01  1.00663E+00 -1.00266E-01
    9024.182     30.651   3.120  8.90808E-01  1.00616E+00 -1.15349E-01
    9025.139     31.608   3.160  8.80532E-01  1.00556E+00 -1.25027E-01
    9026.108     32.578   3.200  8.75464E-01  1.00485E+00 -1.29383E-01
    9027.090     33.559   3.240  8.74796E-01  1.00406E+00 -1.29269E-01
    9028.083     34.553   3.280  8.77575E-01  1.00318E+00 -1.25605E-01
    9029.089     35.558   3.320  8.82414E-01  1.00222E+00 -1.19806E-01
    9030.107     36.576   3.360  8.88225E-01  1.00123E+00 -1.13004E-01
    9031.138     37.607   3.400  8.94327E-01  1.00017E+00 -1.05844E-01
    9032.180     38.649   3.440  9.00503E-01  9.99073E-01 -9.85703E-02
    9033.235     39.704   3.480  9.06801E-01  9.97938E-01 -9.11375E-02
    9034.301     40.771   3.520  9.13507E-01  9.96792E-01 -8.32851E-02
    9035.380     41.850   3.560  9.20813E-01  9.95640E-01 -7.48263E-02
    9036.472     42.941   3.600  9.28518E-01  9.94463E-01 -6.59451E-02
    9037.575     44.044   3.640  9.36479E-01  9.93308E-01 -5.68292E-02
    9038.690     45.160   3.680  9.44420E-01  9.92159E-01 -4.77390E-02
    9039.818     46.287   3.720  9.52092E-01  9.91038E-01 -3.89461E-02
    9040.958     47.427   3.760  9.59303E-01  9.89928E-01 -3.06247E-02
    9042.110     48.579   3.800  9.66066E-01  9.88852E-01 -2.27851E-02
    9043.275     49.744   3.840  9.72494E-01  9.87812E-01 -1.53178E-02
    9044.451     50.920   3.880  9.78820E-01  9.86811E-01 -7.99114E-03
    9045.640     52.109   3.920  9.85379E-01  9.85850E-01 -4.70940E-04
    9046.841     53.310   3.960  9.92486E-01  9.84933E-01  7.55298E-03
    9048.054     54.523   4.000  1.00030E+00  9.84082E-01  1.62166E-02
    9049.279     55.748   4.040  1.00875E+00  9.83276E-01  2.54765E-02
    9050.517     56.986   4.080  1.01764E+00  9.82516E-01  3.51191E-02
    9051.766     58.235   4.120  1.02664E+00  9.81824E-01  4.48208E-02
    9053.028     59.497   4.160  1.03542E+00  9.81180E-01  5.42439E-02
    9054.302     60.771   4.200  1.04362E+00  9.80608E-01  6.30149E-02
    9055.589     62.058   4.240  1.05067E+00  9.80085E-01  7.05882E-02
    9056.887     63.356   4.280  1.05590E+00  9.79633E-01  7.62682E-02
    9058.198     64.667   4.320  1.05874E+00  9.79253E-01  7.94876E-02
    9059.520     65.990   4.360  1.05882E+00  9.78924E-01  7.98931E-02
    9060.855     67.325   4.400  1.05610E+00  9.78665E-01  7.74383E-02
    9062.203     68.672   4.440  1.05084E+00  9.78454E-01  7.23887E-02
    9063.562     70.031   4.480  1.04352E+00  9.78292E-01  6.52259E-02
    9064.934     71.403   4.520  1.03484E+00  9.78222E-01  5.66184E-02
    9066.317     72.787   4.560  1.02558E+00  9.78179E-01  4.74032E-02
    9067.713     74.183   4.600  1.01660E+00  9.78225E-01  3.83797E-02
    9069.122     75.591   4.640  1.00843E+00  9.78297E-01  3.01318E-02
    9070.542     77.011   4.680  1.00145E+00  9.78434E-01  2.30113E-02
    9071.975     78.444   4.720  9.95792E-01  9.78616E-01  1.71761E-02
    9073.419     79.888   4.760  9.91469E-01  9.78838E-01  1.26312E-02
    9074.876     81.345   4.800  9.88366E-01  9.79102E-01  9.26374E-03
    9076.345     82.814   4.840  9.86261E-01  9.79429E-01  6.83217E-03
    9077.827     84.296   4.880  9.84806E-01  9.79772E-01  5.03313E-03
    9079.320     85.789   4.920  9.83778E-01  9.80151E-01  3.62686E-03
    9080.826     87.295   4.960  9.83061E-01  9.80564E-01  2.49723E-03
    9082.344     88.813   5.000  9.82568E-01  9.80990E-01  1.57843E-03
    9083.874     90.343   5.040  9.82155E-01  9.81447E-01  7.07555E-04
    9085.416     91.885   5.080  9.81497E-01  9.81936E-01 -4.39295E-04
    9086.971     93.440   5.120  9.80129E-01  9.82432E-01 -2.30243E-03
    9088.537     95.006   5.160  9.77617E-01  9.82933E-01 -5.31601E-03
    9090.116     96.585   5.200  9.73742E-01  9.83459E-01 -9.71698E-03
    9091.707     98.176   5.240  9.68580E-01  9.83986E-01 -1.54059E-02
    9093.310     99.780   5.280  9.62606E-01  9.84491E-01 -2.18857E-02
    9094.926    101.395   5.320  9.56654E-01  9.85015E-01 -2.83610E-02
    9096.553    103.023   5.360  9.51497E-01  9.85513E-01 -3.40163E-02
    9098.193    104.662   5.400  9.47659E-01  9.86005E-01 -3.83455E-02
    9099.845    106.314   5.440  9.45170E-01  9.86491E-01 -4.13208E-02
    9101.509    107.979   5.480  9.43667E-01  9.86947E-01 -4.32791E-02
    9103.186    109.655   5.520  9.42737E-01  9.87393E-01 -4.46554E-02
    9104.874    111.344   5.560  9.42058E-01  9.87806E-01 -4.57481E-02
    9106.575    113.044   5.600  9.41665E-01  9.88205E-01 -4.65402E-02
    9108.288    114.757   5.640  9.41844E-01  9.88546E-01 -4.67016E-02
    9110.013    116.483   5.680  9.43140E-01  9.88871E-01 -4.57304E-02
    9111.751    118.220   5.720  9.45911E-01  9.89159E-01 -4.32481E-02
    9113.500    119.969   5.760  9.50147E-01  9.89408E-01 -3.92613E-02
    9115.262    121.731   5.800  9.55349E-01  9.89616E-01 -3.42678E-02
    9117.036    123.505   5.840  9.60723E-01  9.89784E-01 -2.90606E-02
    9118.822    125.291   5.880  9.65558E-01  9.89910E-01 -2.43523E-02
    9120.620    127.090   5.920  9.69600E-01  9.89992E-01 -2.03927E-02
    9122.431    128.900   5.960  9.73186E-01  9.89999E-01 -1.68130E-02
    9124.254    130.723   6.000  9.77289E-01  9.89932E-01 -1.26439E-02
