# # comment:                                                     FEFF 9.9.1  
# # Source:
# # Structure
# # Reduced
# # space
# # abc:
# # angles:163.085765
# # sites:
# # POT  SCF 100  7.0000   0, screened core-hole, AFOLP (folp(0)= 1.150)
# # Abs   Z=29 Rmt= 1.285 Rnm= 1.353 K  shell
# # Pot 1 Z=60 Rmt= 1.810 Rnm= 1.866
# # Pot 2 Z=29 Rmt= 1.285 Rnm= 1.353
# # Pot 3 Z=15 Rmt= 1.428 Rnm= 1.507
# # Pot 4 Z= 8 Rmt= 0.998 Rnm= 1.109
# # Gam_ch=1.729E+00 H-L exch Vi= 0.000E+00 Vr= 0.000E+00
# # Mu=-7.937E+00eV kf=1.915E+00 Vint=-1.666E+01eV Rs_int= 1.894
# FMS rfms= 9.0000
# # PATH  Rmax=-1.000,  Keep_limit= 0.00, Heap_limit 0.00  Pwcrit= 2.50%
#  S02=0.950  Temp=   0.00  Debye_temp=   0.00  Global_sig2= 0.00000
#  Energy zero shift, vr, vi    0.00000E+00   0.00000E+00
#  Curved wave amplitude ratio filter   4.000%
#     file         sig2 tot  cw amp ratio   deg  nlegs   reff  inp sig2
#     0/   0 paths used
#  xsedge+ 50, used to normalize mu           2.4384E-04
#  -----------------------------------------------------------------------
#  omega    e    k    mu    mu0     chi     @#
    8984.544    -11.747  -1.000  4.64671E-02  6.04704E-02 -1.40033E-02
    8984.843    -11.448  -0.960  4.92546E-02  6.50523E-02 -1.57977E-02
    8985.129    -11.162  -0.920  5.22845E-02  7.01580E-02 -1.78734E-02
    8985.404    -10.888  -0.880  5.55854E-02  7.58655E-02 -2.02801E-02
    8985.666    -10.625  -0.840  5.91895E-02  8.22661E-02 -2.30766E-02
    8985.916    -10.375  -0.800  6.31335E-02  8.94651E-02 -2.63316E-02
    8986.153    -10.138  -0.760  6.74583E-02  9.75839E-02 -3.01256E-02
    8986.379     -9.912  -0.720  7.22091E-02  1.06760E-01 -3.45504E-02
    8986.592     -9.699  -0.680  7.74344E-02  1.17143E-01 -3.97086E-02
    8986.793     -9.498  -0.640  8.31838E-02  1.28894E-01 -4.57103E-02
    8986.982     -9.309  -0.600  8.95038E-02  1.42170E-01 -5.26659E-02
    8987.159     -9.132  -0.560  9.64312E-02  1.57104E-01 -6.06733E-02
    8987.324     -8.967  -0.520  1.03982E-01  1.73779E-01 -6.97967E-02
    8987.476     -8.815  -0.480  1.12138E-01  1.92177E-01 -8.00388E-02
    8987.616     -8.675  -0.440  1.20829E-01  2.12137E-01 -9.13076E-02
    8987.744     -8.547  -0.400  1.29921E-01  2.33309E-01 -1.03388E-01
    8987.860     -8.431  -0.360  1.39207E-01  2.55142E-01 -1.15935E-01
    8987.964     -8.327  -0.320  1.48425E-01  2.76920E-01 -1.28495E-01
    8988.055     -8.236  -0.280  1.57279E-01  2.97850E-01 -1.40571E-01
    8988.135     -8.157  -0.240  1.65479E-01  3.17166E-01 -1.51688E-01
    8988.202     -8.089  -0.200  1.72770E-01  3.34233E-01 -1.61462E-01
    8988.257     -8.035  -0.160  1.78956E-01  3.48584E-01 -1.69628E-01
    8988.299     -7.992  -0.120  1.83892E-01  3.59923E-01 -1.76031E-01
    8988.330     -7.961  -0.080  1.87488E-01  3.68089E-01 -1.80601E-01
    8988.354     -7.937   0.000  1.90437E-01  3.74647E-01 -1.84210E-01
    8988.409     -7.882   0.120  1.97150E-01  3.89430E-01 -1.92280E-01
    8988.452     -7.840   0.160  2.02329E-01  4.00912E-01 -1.98583E-01
    8988.506     -7.785   0.200  2.08995E-01  4.15557E-01 -2.06562E-01
    8988.573     -7.718   0.240  2.17125E-01  4.33158E-01 -2.16033E-01
    8988.653     -7.638   0.280  2.26674E-01  4.53331E-01 -2.26656E-01
    8988.744     -7.547   0.320  2.37570E-01  4.75544E-01 -2.37974E-01
    8988.848     -7.443   0.360  2.49734E-01  4.99140E-01 -2.49405E-01
    8988.964     -7.327   0.400  2.63061E-01  5.23376E-01 -2.60315E-01
    8989.092     -7.199   0.440  2.77556E-01  5.47613E-01 -2.70057E-01
    8989.232     -7.059   0.480  2.93265E-01  5.71334E-01 -2.78069E-01
    8989.384     -6.907   0.520  3.10346E-01  5.94221E-01 -2.83876E-01
    8989.549     -6.742   0.560  3.29006E-01  6.16083E-01 -2.87077E-01
    8989.726     -6.565   0.600  3.49569E-01  6.36900E-01 -2.87331E-01
    8989.915     -6.377   0.640  3.72384E-01  6.56674E-01 -2.84290E-01
    8990.116     -6.175   0.680  3.97822E-01  6.75535E-01 -2.77713E-01
    8990.329     -5.962   0.720  4.25964E-01  6.93546E-01 -2.67582E-01
    8990.555     -5.736   0.760  4.56626E-01  7.10852E-01 -2.54227E-01
    8990.792     -5.499   0.800  4.88967E-01  7.27485E-01 -2.38518E-01
    8991.042     -5.249   0.840  5.21625E-01  7.43563E-01 -2.21938E-01
    8991.304     -4.987   0.880  5.52645E-01  7.59106E-01 -2.06460E-01
    8991.579     -4.712   0.920  5.80029E-01  7.74160E-01 -1.94131E-01
    8991.865     -4.426   0.960  6.02507E-01  7.88778E-01 -1.86271E-01
    8992.164     -4.127   1.000  6.20471E-01  8.02938E-01 -1.82467E-01
    8992.475     -3.816   1.040  6.36494E-01  8.16651E-01 -1.80157E-01
    8992.798     -3.493   1.080  6.53937E-01  8.29941E-01 -1.76004E-01
    8993.133     -3.158   1.120  6.74871E-01  8.42762E-01 -1.67891E-01
    8993.481     -2.810   1.160  7.00750E-01  8.55145E-01 -1.54395E-01
    8993.840     -2.451   1.200  7.34644E-01  8.67039E-01 -1.32394E-01
    8994.212     -2.079   1.240  7.81219E-01  8.78468E-01 -9.72494E-02
    8994.596     -1.695   1.280  8.43219E-01  8.89374E-01 -4.61553E-02
    8994.993     -1.299   1.320  9.17704E-01  8.99782E-01  1.79217E-02
    8995.401     -0.890   1.360  9.93710E-01  9.09651E-01  8.40589E-02
    8995.822     -0.470   1.400  1.05519E+00  9.19005E-01  1.36187E-01
    8996.254     -0.037   1.440  1.08822E+00  9.27806E-01  1.60416E-01
    8996.699      0.408   1.480  1.08941E+00  9.36096E-01  1.53314E-01
    8997.157      0.866   1.520  1.06717E+00  9.43818E-01  1.23351E-01
    8997.626      1.335   1.560  1.03508E+00  9.51000E-01  8.40782E-02
    8998.108      1.816   1.600  1.00719E+00  9.57665E-01  4.95243E-02
    8998.601      2.310   1.640  9.96190E-01  9.63801E-01  3.23888E-02
    8999.107      2.816   1.680  1.00940E+00  9.69416E-01  3.99840E-02
    8999.625      3.334   1.720  1.04381E+00  9.74539E-01  6.92692E-02
    9000.156      3.865   1.760  1.08557E+00  9.79179E-01  1.06393E-01
    9000.698      4.407   1.800  1.11592E+00  9.83346E-01  1.32576E-01
    9001.253      4.962   1.840  1.12166E+00  9.87072E-01  1.34589E-01
    9001.820      5.529   1.880  1.10620E+00  9.90369E-01  1.15833E-01
    9002.399      6.108   1.920  1.08381E+00  9.93249E-01  9.05574E-02
    9002.990      6.699   1.960  1.06281E+00  9.95763E-01  6.70446E-02
    9003.594      7.303   2.000  1.04470E+00  9.97905E-01  4.67968E-02
    9004.210      7.919   2.040  1.02919E+00  9.99707E-01  2.94824E-02
    9004.838      8.546   2.080  1.01526E+00  1.00120E+00  1.40603E-02
    9005.478      9.187   2.120  1.00302E+00  1.00240E+00  6.16749E-04
    9006.130      9.839   2.160  9.93104E-01  1.00336E+00 -1.02594E-02
    9006.794     10.503   2.200  9.87416E-01  1.00405E+00 -1.66371E-02
    9007.471     11.180   2.240  9.91401E-01  1.00453E+00 -1.31252E-02
    9008.160     11.869   2.280  1.01014E+00  1.00481E+00  5.32475E-03
    9008.861     12.570   2.320  1.04356E+00  1.00490E+00  3.86582E-02
    9009.574     13.283   2.360  1.08090E+00  1.00485E+00  7.60482E-02
    9010.300     14.008   2.400  1.11004E+00  1.00464E+00  1.05400E-01
    9011.037     14.746   2.440  1.12918E+00  1.00433E+00  1.24849E-01
    9011.787     15.496   2.480  1.13762E+00  1.00392E+00  1.33694E-01
    9012.549     16.258   2.520  1.13547E+00  1.00341E+00  1.32054E-01
    9013.323     17.032   2.560  1.12368E+00  1.00284E+00  1.20832E-01
    9014.110     17.818   2.600  1.10472E+00  1.00223E+00  1.02498E-01
    9014.908     18.617   2.640  1.08173E+00  1.00157E+00  8.01603E-02
    9015.719     19.428   2.680  1.05757E+00  1.00089E+00  5.66853E-02
    9016.542     20.251   2.720  1.03409E+00  1.00018E+00  3.39051E-02
    9017.377     21.086   2.760  1.01240E+00  9.99471E-01  1.29330E-02
    9018.224     21.933   2.800  9.93233E-01  9.98762E-01 -5.52856E-03
    9019.084     22.793   2.840  9.76951E-01  9.98080E-01 -2.11281E-02
    9019.956     23.664   2.880  9.63169E-01  9.97429E-01 -3.42599E-02
    9020.839     24.548   2.920  9.51000E-01  9.96792E-01 -4.57920E-02
    9021.736     25.444   2.960  9.39785E-01  9.96214E-01 -5.64284E-02
    9022.644     26.353   3.000  9.29596E-01  9.95656E-01 -6.60598E-02
    9023.564     27.273   3.040  9.20976E-01  9.95163E-01 -7.41870E-02
    9024.497     28.206   3.080  9.14561E-01  9.94716E-01 -8.01554E-02
    9025.442     29.151   3.120  9.10850E-01  9.94338E-01 -8.34882E-02
    9026.399     30.108   3.160  9.10064E-01  9.94009E-01 -8.39455E-02
    9027.368     31.077   3.200  9.12136E-01  9.93752E-01 -8.16161E-02
    9028.350     32.059   3.240  9.16568E-01  9.93547E-01 -7.69789E-02
    9029.343     33.052   3.280  9.22565E-01  9.93416E-01 -7.08506E-02
    9030.349     34.058   3.320  9.29070E-01  9.93360E-01 -6.42902E-02
    9031.367     35.076   3.360  9.35194E-01  9.93378E-01 -5.81840E-02
    9032.397     36.106   3.400  9.40469E-01  9.93450E-01 -5.29817E-02
    9033.440     37.149   3.440  9.45008E-01  9.93596E-01 -4.85880E-02
    9034.494     38.203   3.480  9.49255E-01  9.93815E-01 -4.45602E-02
    9035.561     39.270   3.520  9.53704E-01  9.94088E-01 -4.03840E-02
    9036.640     40.349   3.560  9.58579E-01  9.94432E-01 -3.58522E-02
    9037.731     41.440   3.600  9.63837E-01  9.94826E-01 -3.09891E-02
    9038.835     42.544   3.640  9.69529E-01  9.95290E-01 -2.57614E-02
    9039.950     43.659   3.680  9.75902E-01  9.95825E-01 -1.99227E-02
    9041.078     44.787   3.720  9.83358E-01  9.96387E-01 -1.30289E-02
    9042.218     45.927   3.760  9.92428E-01  9.97034E-01 -4.60584E-03
    9043.370     47.079   3.800  1.00339E+00  9.97704E-01  5.68349E-03
    9044.535     48.243   3.840  1.01626E+00  9.98414E-01  1.78483E-02
    9045.711     49.420   3.880  1.03069E+00  9.99164E-01  3.15264E-02
    9046.900     50.609   3.920  1.04601E+00  9.99971E-01  4.60346E-02
    9048.101     51.810   3.960  1.06119E+00  1.00077E+00  6.04156E-02
    9049.314     53.023   4.000  1.07502E+00  1.00163E+00  7.33906E-02
    9050.539     54.248   4.040  1.08587E+00  1.00250E+00  8.33766E-02
    9051.777     55.485   4.080  1.09231E+00  1.00339E+00  8.89190E-02
    9053.026     56.735   4.120  1.09361E+00  1.00429E+00  8.93179E-02
    9054.288     57.997   4.160  1.09023E+00  1.00519E+00  8.50357E-02
    9055.562     59.271   4.200  1.08340E+00  1.00610E+00  7.72994E-02
    9056.848     60.557   4.240  1.07453E+00  1.00702E+00  6.75126E-02
    9058.147     61.856   4.280  1.06478E+00  1.00792E+00  5.68593E-02
    9059.457     63.166   4.320  1.05492E+00  1.00879E+00  4.61334E-02
    9060.780     64.489   4.360  1.04534E+00  1.00967E+00  3.56702E-02
    9062.115     65.824   4.400  1.03598E+00  1.01052E+00  2.54517E-02
    9063.463     67.171   4.440  1.02674E+00  1.01134E+00  1.54026E-02
    9064.822     68.531   4.480  1.01765E+00  1.01215E+00  5.50487E-03
    9066.194     69.902   4.520  1.00889E+00  1.01291E+00 -4.02673E-03
    9067.577     71.286   4.560  1.00085E+00  1.01364E+00 -1.27913E-02
    9068.973     72.682   4.600  9.93911E-01  1.01435E+00 -2.04412E-02
    9070.381     74.090   4.640  9.88109E-01  1.01500E+00 -2.68881E-02
    9071.802     75.511   4.680  9.83358E-01  1.01560E+00 -3.22391E-02
    9073.234     76.943   4.720  9.79458E-01  1.01615E+00 -3.66932E-02
    9074.679     78.388   4.760  9.76118E-01  1.01664E+00 -4.05190E-02
    9076.136     79.845   4.800  9.72978E-01  1.01710E+00 -4.41195E-02
    9077.605     81.314   4.840  9.69521E-01  1.01749E+00 -4.79659E-02
    9079.087     82.795   4.880  9.65442E-01  1.01781E+00 -5.23641E-02
    9080.580     84.289   4.920  9.60875E-01  1.01810E+00 -5.72206E-02
    9082.086     85.795   4.960  9.56164E-01  1.01829E+00 -6.21293E-02
    9083.604     87.313   5.000  9.51900E-01  1.01846E+00 -6.65637E-02
    9085.134     88.843   5.040  9.48517E-01  1.01856E+00 -7.00424E-02
    9086.676     90.385   5.080  9.46610E-01  1.01858E+00 -7.19725E-02
    9088.230     91.939   5.120  9.47093E-01  1.01856E+00 -7.14627E-02
    9089.797     93.506   5.160  9.51108E-01  1.01848E+00 -6.73726E-02
    9091.376     95.085   5.200  9.59696E-01  1.01833E+00 -5.86362E-02
    9092.967     96.676   5.240  9.73401E-01  1.01814E+00 -4.47340E-02
    9094.570     98.279   5.280  9.91700E-01  1.01787E+00 -2.61664E-02
    9096.186     99.895   5.320  1.01301E+00  1.01755E+00 -4.53507E-03
    9097.813    101.522   5.360  1.03515E+00  1.01718E+00  1.79635E-02
    9099.453    103.162   5.400  1.05614E+00  1.01676E+00  3.93884E-02
    9101.105    104.814   5.440  1.07482E+00  1.01630E+00  5.85201E-02
    9102.769    106.478   5.480  1.09046E+00  1.01579E+00  7.46712E-02
    9104.446    108.155   5.520  1.10244E+00  1.01525E+00  8.71942E-02
    9106.134    109.843   5.560  1.10993E+00  1.01465E+00  9.52807E-02
    9107.835    111.544   5.600  1.11215E+00  1.01404E+00  9.81091E-02
    9109.548    113.257   5.640  1.10860E+00  1.01336E+00  9.52428E-02
    9111.273    114.982   5.680  1.09962E+00  1.01267E+00  8.69501E-02
    9113.011    116.719   5.720  1.08609E+00  1.01197E+00  7.41189E-02
    9114.760    118.469   5.760  1.06910E+00  1.01122E+00  5.78826E-02
    9116.522    120.231   5.800  1.04990E+00  1.01049E+00  3.94106E-02
    9118.296    122.005   5.840  1.02975E+00  1.00972E+00  2.00228E-02
    9120.082    123.791   5.880  1.01020E+00  1.00894E+00  1.25889E-03
    9121.880    125.589   5.920  9.92928E-01  1.00818E+00 -1.52552E-02
    9123.691    127.400   5.960  9.79286E-01  1.00742E+00 -2.81329E-02
    9125.513    129.222   6.000  9.70064E-01  1.00665E+00 -3.65832E-02
