# # comment:                                                     FEFF 9.9.1  
# # Source:
# # Structure
# # Reduced
# # space
# # abc:
# # angles:
# # sites:
# # POT  SCF 100  7.0000   0, screened core-hole, AFOLP (folp(0)= 1.150)
# # Abs   Z=29 Rmt= 1.314 Rnm= 1.377 K  shell
# # Pot 1 Z= 3 Rmt= 1.358 Rnm= 1.424
# # Pot 2 Z=29 Rmt= 1.280 Rnm= 1.343
# # Pot 3 Z=15 Rmt= 0.938 Rnm= 1.156
# # Pot 4 Z= 8 Rmt= 0.906 Rnm= 1.047
# # Gam_ch=1.729E+00 H-L exch Vi= 0.000E+00 Vr= 0.000E+00
# # Mu=-6.351E+00eV kf=2.433E+00 Vint=-1.712E+01eV Rs_int= 1.491
# FMS rfms= 9.0000
# # PATH  Rmax=-1.000,  Keep_limit= 0.00, Heap_limit 0.00  Pwcrit= 2.50%
#  S02=0.950  Temp=   0.00  Debye_temp=   0.00  Global_sig2= 0.00000
#  Energy zero shift, vr, vi    0.00000E+00   0.00000E+00
#  Curved wave amplitude ratio filter   4.000%
#     file         sig2 tot  cw amp ratio   deg  nlegs   reff  inp sig2
#     0/   0 paths used
#  xsedge+ 50, used to normalize mu           2.4684E-04
#  -----------------------------------------------------------------------
#  omega    e    k    mu    mu0     chi     @#
    8983.469    -10.161  -1.000  4.33832E-02  5.41599E-02 -1.07767E-02
    8983.768     -9.862  -0.960  4.56985E-02  5.81154E-02 -1.24169E-02
    8984.054     -9.576  -0.920  4.81760E-02  6.25143E-02 -1.43383E-02
    8984.329     -9.302  -0.880  5.08304E-02  6.74226E-02 -1.65923E-02
    8984.591     -9.040  -0.840  5.36774E-02  7.29170E-02 -1.92395E-02
    8984.841     -8.790  -0.800  5.67348E-02  7.90862E-02 -2.23515E-02
    8985.079     -8.552  -0.760  6.00214E-02  8.60326E-02 -2.60112E-02
    8985.304     -8.326  -0.720  6.35578E-02  9.38717E-02 -3.03138E-02
    8985.517     -8.113  -0.680  6.73649E-02  1.02731E-01 -3.53658E-02
    8985.719     -7.912  -0.640  7.14630E-02  1.12744E-01 -4.12813E-02
    8985.908     -7.723  -0.600  7.58700E-02  1.24045E-01 -4.81748E-02
    8986.084     -7.546  -0.560  8.05974E-02  1.36745E-01 -5.61480E-02
    8986.249     -7.381  -0.520  8.56457E-02  1.50914E-01 -6.52680E-02
    8986.401     -7.229  -0.480  9.09972E-02  1.66536E-01 -7.55385E-02
    8986.542     -7.089  -0.440  9.66085E-02  1.83474E-01 -8.68653E-02
    8986.670     -6.961  -0.400  1.02404E-01  2.01431E-01 -9.90278E-02
    8986.785     -6.845  -0.360  1.08271E-01  2.19942E-01 -1.11671E-01
    8986.889     -6.741  -0.320  1.14068E-01  2.38400E-01 -1.24332E-01
    8986.980     -6.650  -0.280  1.19632E-01  2.56133E-01 -1.36501E-01
    8987.060     -6.571  -0.240  1.24799E-01  2.72496E-01 -1.47697E-01
    8987.127     -6.504  -0.200  1.29417E-01  2.86949E-01 -1.57532E-01
    8987.182     -6.449  -0.160  1.33359E-01  2.99101E-01 -1.65741E-01
    8987.224     -6.406  -0.120  1.36529E-01  3.08701E-01 -1.72173E-01
    8987.255     -6.376  -0.080  1.38854E-01  3.15615E-01 -1.76761E-01
    8987.279     -6.351   0.000  1.40778E-01  3.21168E-01 -1.80389E-01
    8987.334     -6.296   0.120  1.45052E-01  3.33683E-01 -1.88631E-01
    8987.377     -6.254   0.160  1.48387E-01  3.43409E-01 -1.95023E-01
    8987.432     -6.199   0.200  1.52698E-01  3.55789E-01 -2.03091E-01
    8987.499     -6.132   0.240  1.58052E-01  3.70681E-01 -2.12629E-01
    8987.578     -6.053   0.280  1.64450E-01  3.87753E-01 -2.23302E-01
    8987.669     -5.961   0.320  1.71888E-01  4.06529E-01 -2.34641E-01
    8987.773     -5.857   0.360  1.80403E-01  4.26470E-01 -2.46067E-01
    8987.889     -5.742   0.400  1.90042E-01  4.46976E-01 -2.56934E-01
    8988.017     -5.614   0.440  2.00866E-01  4.67488E-01 -2.66622E-01
    8988.157     -5.473   0.480  2.12999E-01  4.87566E-01 -2.74568E-01
    8988.309     -5.321   0.520  2.26610E-01  5.06943E-01 -2.80333E-01
    8988.474     -5.156   0.560  2.41962E-01  5.25520E-01 -2.83558E-01
    8988.651     -4.980   0.600  2.59246E-01  5.43245E-01 -2.84000E-01
    8988.840     -4.791   0.640  2.78762E-01  5.60203E-01 -2.81442E-01
    8989.041     -4.589   0.680  3.00654E-01  5.76456E-01 -2.75802E-01
    8989.254     -4.376   0.720  3.24949E-01  5.92120E-01 -2.67171E-01
    8989.480     -4.151   0.760  3.51556E-01  6.07291E-01 -2.55735E-01
    8989.718     -3.913   0.800  3.80584E-01  6.22096E-01 -2.41513E-01
    8989.968     -3.663   0.840  4.12570E-01  6.36589E-01 -2.24019E-01
    8990.230     -3.401   0.880  4.48337E-01  6.50827E-01 -2.02490E-01
    8990.504     -3.126   0.920  4.88113E-01  6.64878E-01 -1.76765E-01
    8990.790     -2.840   0.960  5.30864E-01  6.78777E-01 -1.47913E-01
    8991.089     -2.541   1.000  5.74622E-01  6.92542E-01 -1.17920E-01
    8991.400     -2.230   1.040  6.17780E-01  7.06207E-01 -8.84277E-02
    8991.723     -1.907   1.080  6.60386E-01  7.19758E-01 -5.93717E-02
    8992.058     -1.572   1.120  7.03805E-01  7.33211E-01 -2.94061E-02
    8992.406     -1.224   1.160  7.48615E-01  7.46558E-01  2.05629E-03
    8992.766     -0.865   1.200  7.94103E-01  7.59787E-01  3.43166E-02
    8993.137     -0.493   1.240  8.40424E-01  7.72879E-01  6.75449E-02
    8993.521     -0.109   1.280  8.90094E-01  7.85836E-01  1.04258E-01
    8993.918      0.287   1.320  9.46787E-01  7.98595E-01  1.48192E-01
    8994.326      0.696   1.360  1.01576E+00  8.11193E-01  2.04568E-01
    8994.747      1.116   1.400  1.10250E+00  8.23562E-01  2.78938E-01
    8995.180      1.549   1.440  1.20284E+00  8.35675E-01  3.67166E-01
    8995.625      1.994   1.480  1.29142E+00  8.47545E-01  4.43871E-01
    8996.082      2.451   1.520  1.33447E+00  8.59123E-01  4.75348E-01
    8996.551      2.921   1.560  1.32297E+00  8.70403E-01  4.52569E-01
    8997.033      3.402   1.600  1.26938E+00  8.81353E-01  3.88030E-01
    8997.527      3.896   1.640  1.19784E+00  8.91927E-01  3.05914E-01
    8998.032      4.402   1.680  1.14493E+00  9.02157E-01  2.42775E-01
    8998.551      4.920   1.720  1.12267E+00  9.11996E-01  2.10675E-01
    8999.081      5.451   1.760  1.11759E+00  9.21416E-01  1.96174E-01
    8999.624      5.993   1.800  1.12243E+00  9.30435E-01  1.91997E-01
    9000.178      6.548   1.840  1.13678E+00  9.39027E-01  1.97755E-01
    9000.745      7.115   1.880  1.15464E+00  9.47187E-01  2.07453E-01
    9001.324      7.694   1.920  1.16634E+00  9.54893E-01  2.11446E-01
    9001.916      8.285   1.960  1.16657E+00  9.62144E-01  2.04430E-01
    9002.519      8.889   2.000  1.15793E+00  9.68958E-01  1.88969E-01
    9003.135      9.504   2.040  1.14675E+00  9.75316E-01  1.71435E-01
    9003.763     10.132   2.080  1.13666E+00  9.81220E-01  1.55441E-01
    9004.403     10.772   2.120  1.12707E+00  9.86671E-01  1.40398E-01
    9005.055     11.425   2.160  1.11625E+00  9.91692E-01  1.24561E-01
    9005.720     12.089   2.200  1.10376E+00  9.96268E-01  1.07489E-01
    9006.396     12.766   2.240  1.09095E+00  1.00042E+00  9.05259E-02
    9007.085     13.455   2.280  1.07991E+00  1.00414E+00  7.57652E-02
    9007.786     14.156   2.320  1.07069E+00  1.00748E+00  6.32088E-02
    9008.499     14.869   2.360  1.06033E+00  1.01043E+00  4.98985E-02
    9009.225     15.594   2.400  1.04677E+00  1.01299E+00  3.37821E-02
    9009.962     16.332   2.440  1.02949E+00  1.01520E+00  1.42834E-02
    9010.712     17.082   2.480  1.00558E+00  1.01708E+00 -1.14953E-02
    9011.474     17.844   2.520  9.73169E-01  1.01860E+00 -4.54348E-02
    9012.248     18.618   2.560  9.38162E-01  1.01983E+00 -8.16686E-02
    9013.035     19.404   2.600  9.10215E-01  1.02077E+00 -1.10552E-01
    9013.833     20.203   2.640  8.94643E-01  1.02142E+00 -1.26778E-01
    9014.644     21.014   2.680  8.89404E-01  1.02182E+00 -1.32418E-01
    9015.467     21.837   2.720  8.87788E-01  1.02198E+00 -1.34193E-01
    9016.302     22.672   2.760  8.85533E-01  1.02192E+00 -1.36391E-01
    9017.149     23.519   2.800  8.80724E-01  1.02164E+00 -1.40919E-01
    9018.009     24.379   2.840  8.77733E-01  1.02121E+00 -1.43474E-01
    9018.881     25.250   2.880  8.77124E-01  1.02058E+00 -1.43459E-01
    9019.765     26.134   2.920  8.78894E-01  1.01982E+00 -1.40929E-01
    9020.661     27.030   2.960  8.82937E-01  1.01891E+00 -1.35975E-01
    9021.569     27.939   3.000  8.89340E-01  1.01790E+00 -1.28560E-01
    9022.490     28.859   3.040  8.97991E-01  1.01678E+00 -1.18784E-01
    9023.422     29.792   3.080  9.08577E-01  1.01557E+00 -1.06989E-01
    9024.367     30.737   3.120  9.20954E-01  1.01430E+00 -9.33448E-02
    9025.324     31.694   3.160  9.34832E-01  1.01296E+00 -7.81270E-02
    9026.293     32.663   3.200  9.49788E-01  1.01155E+00 -6.17654E-02
    9027.275     33.644   3.240  9.65389E-01  1.01015E+00 -4.47607E-02
    9028.269     34.638   3.280  9.80761E-01  1.00869E+00 -2.79320E-02
    9029.274     35.644   3.320  9.94849E-01  1.00725E+00 -1.24028E-02
    9030.292     36.662   3.360  1.00689E+00  1.00579E+00  1.10361E-03
    9031.323     37.692   3.400  1.01658E+00  1.00435E+00  1.22363E-02
    9032.365     38.735   3.440  1.02419E+00  1.00291E+00  2.12732E-02
    9033.420     39.789   3.480  1.03029E+00  1.00151E+00  2.87793E-02
    9034.486     40.856   3.520  1.03549E+00  1.00015E+00  3.53455E-02
    9035.565     41.935   3.560  1.04010E+00  9.98802E-01  4.12947E-02
    9036.657     43.026   3.600  1.04422E+00  9.97520E-01  4.66987E-02
    9037.760     44.130   3.640  1.04768E+00  9.96307E-01  5.13755E-02
    9038.876     45.245   3.680  1.05016E+00  9.95142E-01  5.50181E-02
    9040.003     46.373   3.720  1.05147E+00  9.94028E-01  5.74395E-02
    9041.143     47.513   3.760  1.05174E+00  9.93009E-01  5.87309E-02
    9042.295     48.665   3.800  1.05113E+00  9.92043E-01  5.90836E-02
    9043.460     49.829   3.840  1.04976E+00  9.91153E-01  5.86078E-02
    9044.636     51.006   3.880  1.04773E+00  9.90321E-01  5.74129E-02
    9045.825     52.195   3.920  1.04510E+00  9.89588E-01  5.55094E-02
    9047.026     53.395   3.960  1.04176E+00  9.88936E-01  5.28251E-02
    9048.239     54.609   4.000  1.03764E+00  9.88365E-01  4.92697E-02
    9049.464     55.834   4.040  1.03275E+00  9.87873E-01  4.48778E-02
    9050.702     57.071   4.080  1.02722E+00  9.87440E-01  3.97833E-02
    9051.951     58.321   4.120  1.02136E+00  9.87108E-01  3.42545E-02
    9053.213     59.583   4.160  1.01551E+00  9.86858E-01  2.86492E-02
    9054.487     60.857   4.200  1.00997E+00  9.86687E-01  2.32827E-02
    9055.774     62.143   4.240  1.00498E+00  9.86596E-01  1.83881E-02
    9057.072     63.442   4.280  1.00070E+00  9.86583E-01  1.41181E-02
    9058.383     64.752   4.320  9.97146E-01  9.86625E-01  1.05213E-02
    9059.705     66.075   4.360  9.94293E-01  9.86763E-01  7.52941E-03
    9061.040     67.410   4.400  9.91938E-01  9.86955E-01  4.98317E-03
    9062.388     68.757   4.440  9.89819E-01  9.87198E-01  2.62100E-03
    9063.747     70.117   4.480  9.87663E-01  9.87532E-01  1.30946E-04
    9065.119     71.488   4.520  9.85201E-01  9.87892E-01 -2.69111E-03
    9066.502     72.872   4.560  9.82524E-01  9.88320E-01 -5.79533E-03
    9067.898     74.268   4.600  9.79863E-01  9.88792E-01 -8.92931E-03
    9069.307     75.676   4.640  9.77481E-01  9.89307E-01 -1.18259E-02
    9070.727     77.097   4.680  9.75501E-01  9.89884E-01 -1.43825E-02
    9072.160     78.529   4.720  9.73766E-01  9.90476E-01 -1.67103E-02
    9073.604     79.974   4.760  9.72124E-01  9.91102E-01 -1.89780E-02
    9075.061     81.431   4.800  9.70498E-01  9.91739E-01 -2.12408E-02
    9076.530     82.900   4.840  9.68985E-01  9.92407E-01 -2.34215E-02
    9078.012     84.381   4.880  9.67760E-01  9.93103E-01 -2.53434E-02
    9079.505     85.875   4.920  9.66921E-01  9.93783E-01 -2.68613E-02
    9081.011     87.380   4.960  9.66566E-01  9.94486E-01 -2.79199E-02
    9082.529     88.898   5.000  9.66698E-01  9.95189E-01 -2.84908E-02
    9084.059     90.428   5.040  9.67340E-01  9.95888E-01 -2.85481E-02
    9085.601     91.971   5.080  9.68522E-01  9.96560E-01 -2.80384E-02
    9087.156     93.525   5.120  9.70330E-01  9.97225E-01 -2.68955E-02
    9088.722     95.092   5.160  9.72782E-01  9.97880E-01 -2.50986E-02
    9090.301     96.671   5.200  9.75824E-01  9.98502E-01 -2.26775E-02
    9091.892     98.262   5.240  9.79395E-01  9.99086E-01 -1.96912E-02
    9093.495     99.865   5.280  9.83466E-01  9.99632E-01 -1.61667E-02
    9095.111    101.480   5.320  9.88015E-01  1.00016E+00 -1.21464E-02
    9096.739    103.108   5.360  9.92830E-01  1.00063E+00 -7.79613E-03
    9098.378    104.748   5.400  9.97591E-01  1.00105E+00 -3.45886E-03
    9100.030    106.400   5.440  1.00187E+00  1.00145E+00  4.15075E-04
    9101.695    108.064   5.480  1.00521E+00  1.00176E+00  3.44312E-03
    9103.371    109.741   5.520  1.00753E+00  1.00205E+00  5.48080E-03
    9105.060    111.429   5.560  1.00892E+00  1.00227E+00  6.65418E-03
    9106.760    113.130   5.600  1.00963E+00  1.00244E+00  7.19071E-03
    9108.473    114.843   5.640  1.00981E+00  1.00254E+00  7.27840E-03
    9110.198    116.568   5.680  1.00965E+00  1.00259E+00  7.06006E-03
    9111.936    118.305   5.720  1.00927E+00  1.00259E+00  6.67811E-03
    9113.685    120.055   5.760  1.00879E+00  1.00252E+00  6.26798E-03
    9115.447    121.817   5.800  1.00831E+00  1.00238E+00  5.92797E-03
    9117.221    123.591   5.840  1.00790E+00  1.00219E+00  5.71155E-03
    9119.007    125.377   5.880  1.00756E+00  1.00193E+00  5.62622E-03
    9120.805    127.175   5.920  1.00729E+00  1.00163E+00  5.66399E-03
    9122.616    128.986   5.960  1.00708E+00  1.00125E+00  5.83151E-03
    9124.439    130.808   6.000  1.00706E+00  1.00082E+00  6.23580E-03
