# # comment:                                                     FEFF 9.9.1  
# # Source:
# # Structure
# # Reduced
# # space
# # abc:
# # angles:
# # sites:
# # POT  SCF 100  7.0000   0, screened core-hole, AFOLP (folp(0)= 1.150)
# # Abs   Z=29 Rmt= 1.295 Rnm= 1.365 K  shell
# # Pot 1 Z=25 Rmt= 1.471 Rnm= 1.550
# # Pot 2 Z=29 Rmt= 1.300 Rnm= 1.371
# # Pot 3 Z=15 Rmt= 0.935 Rnm= 1.150
# # Pot 4 Z= 8 Rmt= 0.909 Rnm= 1.043
# # Gam_ch=1.729E+00 H-L exch Vi= 0.000E+00 Vr= 0.000E+00
# # Mu=-8.494E+00eV kf=2.416E+00 Vint=-1.783E+01eV Rs_int= 1.501
# FMS rfms= 9.0000
# # PATH  Rmax=-1.000,  Keep_limit= 0.00, Heap_limit 0.00  Pwcrit= 2.50%
#  S02=0.950  Temp=   0.00  Debye_temp=   0.00  Global_sig2= 0.00000
#  Energy zero shift, vr, vi    0.00000E+00   0.00000E+00
#  Curved wave amplitude ratio filter   4.000%
#     file         sig2 tot  cw amp ratio   deg  nlegs   reff  inp sig2
#     0/   0 paths used
#  xsedge+ 50, used to normalize mu           2.5093E-04
#  -----------------------------------------------------------------------
#  omega    e    k    mu    mu0     chi     @#
    8983.529    -12.304  -1.000  3.65122E-02  4.77231E-02 -1.12109E-02
    8983.828    -12.006  -0.960  3.84736E-02  5.10481E-02 -1.25745E-02
    8984.114    -11.719  -0.920  4.05941E-02  5.47337E-02 -1.41396E-02
    8984.389    -11.445  -0.880  4.28923E-02  5.88326E-02 -1.59403E-02
    8984.651    -11.183  -0.840  4.53895E-02  6.34059E-02 -1.80164E-02
    8984.901    -10.933  -0.800  4.81097E-02  6.85245E-02 -2.04147E-02
    8985.138    -10.695  -0.760  5.10801E-02  7.42697E-02 -2.31896E-02
    8985.364    -10.470  -0.720  5.43304E-02  8.07334E-02 -2.64030E-02
    8985.577    -10.256  -0.680  5.78926E-02  8.80165E-02 -3.01239E-02
    8985.778    -10.055  -0.640  6.17997E-02  9.62258E-02 -3.44261E-02
    8985.967     -9.866  -0.600  6.60825E-02  1.05466E-01 -3.93832E-02
    8986.144     -9.689  -0.560  7.07657E-02  1.15825E-01 -4.50597E-02
    8986.309     -9.525  -0.520  7.58610E-02  1.27357E-01 -5.14965E-02
    8986.461     -9.372  -0.480  8.13577E-02  1.40049E-01 -5.86914E-02
    8986.601     -9.232  -0.440  8.72128E-02  1.53789E-01 -6.65763E-02
    8986.729     -9.104  -0.400  9.33412E-02  1.68339E-01 -7.49983E-02
    8986.845     -8.988  -0.360  9.96122E-02  1.83327E-01 -8.37144E-02
    8986.949     -8.885  -0.320  1.05856E-01  1.98266E-01 -9.24100E-02
    8987.040     -8.793  -0.280  1.11877E-01  2.12617E-01 -1.00740E-01
    8987.120     -8.714  -0.240  1.17481E-01  2.25864E-01 -1.08383E-01
    8987.187     -8.647  -0.200  1.22490E-01  2.37571E-01 -1.15081E-01
    8987.242     -8.592  -0.160  1.26760E-01  2.47420E-01 -1.20660E-01
    8987.284     -8.549  -0.120  1.30182E-01  2.55207E-01 -1.25025E-01
    8987.315     -8.519  -0.080  1.32683E-01  2.60818E-01 -1.28135E-01
    8987.339     -8.494   0.000  1.34730E-01  2.65326E-01 -1.30597E-01
    8987.394     -8.440   0.120  1.39338E-01  2.75504E-01 -1.36166E-01
    8987.437     -8.397   0.160  1.42919E-01  2.83390E-01 -1.40470E-01
    8987.491     -8.342   0.200  1.47601E-01  2.93499E-01 -1.45898E-01
    8987.559     -8.275   0.240  1.53334E-01  3.05657E-01 -1.52323E-01
    8987.638     -8.196   0.280  1.60100E-01  3.19626E-01 -1.59526E-01
    8987.729     -8.104   0.320  1.67831E-01  3.35056E-01 -1.67226E-01
    8987.833     -8.001   0.360  1.76416E-01  3.51516E-01 -1.75100E-01
    8987.949     -7.885   0.400  1.85744E-01  3.68564E-01 -1.82819E-01
    8988.077     -7.757   0.440  1.95655E-01  3.85739E-01 -1.90084E-01
    8988.217     -7.617   0.480  2.06089E-01  4.02718E-01 -1.96629E-01
    8988.369     -7.464   0.520  2.17039E-01  4.19316E-01 -2.02276E-01
    8988.534     -7.300   0.560  2.28511E-01  4.35421E-01 -2.06910E-01
    8988.711     -7.123   0.600  2.40502E-01  4.51028E-01 -2.10526E-01
    8988.900     -6.934   0.640  2.53056E-01  4.66167E-01 -2.13111E-01
    8989.101     -6.733   0.680  2.66350E-01  4.80938E-01 -2.14588E-01
    8989.314     -6.519   0.720  2.80540E-01  4.95396E-01 -2.14856E-01
    8989.540     -6.294   0.760  2.95616E-01  5.09630E-01 -2.14014E-01
    8989.777     -6.056   0.800  3.11255E-01  5.23724E-01 -2.12469E-01
    8990.027     -5.806   0.840  3.27259E-01  5.37752E-01 -2.10494E-01
    8990.290     -5.544   0.880  3.44176E-01  5.51735E-01 -2.07559E-01
    8990.564     -5.270   0.920  3.63386E-01  5.65723E-01 -2.02337E-01
    8990.850     -4.983   0.960  3.85845E-01  5.79759E-01 -1.93914E-01
    8991.149     -4.684   1.000  4.10723E-01  5.93853E-01 -1.83130E-01
    8991.460     -4.374   1.040  4.35544E-01  6.08008E-01 -1.72464E-01
    8991.783     -4.050   1.080  4.57184E-01  6.22223E-01 -1.65039E-01
    8992.118     -3.715   1.120  4.72848E-01  6.36509E-01 -1.63661E-01
    8992.466     -3.368   1.160  4.82503E-01  6.50852E-01 -1.68349E-01
    8992.825     -3.008   1.200  4.90938E-01  6.65236E-01 -1.74299E-01
    8993.197     -2.636   1.240  5.03630E-01  6.79620E-01 -1.75990E-01
    8993.581     -2.252   1.280  5.22429E-01  6.94040E-01 -1.71611E-01
    8993.978     -1.856   1.320  5.47840E-01  7.08409E-01 -1.60568E-01
    8994.386     -1.448   1.360  5.81549E-01  7.22740E-01 -1.41191E-01
    8994.807     -1.027   1.400  6.22941E-01  7.37004E-01 -1.14063E-01
    8995.239     -0.594   1.440  6.67045E-01  7.51150E-01 -8.41047E-02
    8995.684     -0.149   1.480  7.10478E-01  7.65166E-01 -5.46879E-02
    8996.142      0.308   1.520  7.54692E-01  7.79020E-01 -2.43281E-02
    8996.611      0.778   1.560  7.96810E-01  7.92679E-01  4.13050E-03
    8997.093      1.259   1.600  8.33048E-01  8.06109E-01  2.69395E-02
    8997.586      1.753   1.640  8.64904E-01  8.19278E-01  4.56255E-02
    8998.092      2.259   1.680  8.97095E-01  8.32174E-01  6.49213E-02
    8998.611      2.777   1.720  9.38468E-01  8.44743E-01  9.37255E-02
    8999.141      3.307   1.760  9.92856E-01  8.56992E-01  1.35864E-01
    8999.683      3.850   1.800  1.05256E+00  8.68853E-01  1.83710E-01
    9000.238      4.405   1.840  1.10181E+00  8.80354E-01  2.21460E-01
    9000.805      4.972   1.880  1.12234E+00  8.91444E-01  2.30893E-01
    9001.384      5.551   1.920  1.10940E+00  9.02094E-01  2.07308E-01
    9001.975      6.142   1.960  1.08039E+00  9.12297E-01  1.68095E-01
    9002.579      6.745   2.000  1.05701E+00  9.22068E-01  1.34946E-01
    9003.195      7.361   2.040  1.05538E+00  9.31339E-01  1.24036E-01
    9003.823      7.989   2.080  1.08358E+00  9.40146E-01  1.43434E-01
    9004.463      8.629   2.120  1.13335E+00  9.48466E-01  1.84880E-01
    9005.115      9.281   2.160  1.18238E+00  9.56295E-01  2.26085E-01
    9005.779      9.946   2.200  1.21054E+00  9.63614E-01  2.46924E-01
    9006.456     10.623   2.240  1.21309E+00  9.70463E-01  2.42624E-01
    9007.145     11.311   2.280  1.19867E+00  9.76781E-01  2.21886E-01
    9007.846     12.012   2.320  1.18192E+00  9.82631E-01  1.99290E-01
    9008.559     12.726   2.360  1.17225E+00  9.87997E-01  1.84257E-01
    9009.285     13.451   2.400  1.16806E+00  9.92883E-01  1.75177E-01
    9010.022     14.189   2.440  1.16141E+00  9.97292E-01  1.64119E-01
    9010.772     14.938   2.480  1.14828E+00  1.00125E+00  1.47028E-01
    9011.534     15.700   2.520  1.12996E+00  1.00477E+00  1.25196E-01
    9012.308     16.475   2.560  1.10984E+00  1.00784E+00  1.02000E-01
    9013.095     17.261   2.600  1.09161E+00  1.01051E+00  8.10952E-02
    9013.893     18.060   2.640  1.07621E+00  1.01278E+00  6.34330E-02
    9014.704     18.870   2.680  1.05983E+00  1.01465E+00  4.51747E-02
    9015.527     19.693   2.720  1.03620E+00  1.01616E+00  2.00377E-02
    9016.362     20.528   2.760  1.00213E+00  1.01734E+00 -1.52148E-02
    9017.209     21.376   2.800  9.62064E-01  1.01819E+00 -5.61290E-02
    9018.069     22.235   2.840  9.29587E-01  1.01873E+00 -8.91433E-02
    9018.941     23.107   2.880  9.07407E-01  1.01898E+00 -1.11576E-01
    9019.825     23.991   2.920  8.92043E-01  1.01896E+00 -1.26916E-01
    9020.721     24.887   2.960  8.81140E-01  1.01869E+00 -1.37547E-01
    9021.629     25.795   3.000  8.73243E-01  1.01818E+00 -1.44936E-01
    9022.549     26.716   3.040  8.67027E-01  1.01746E+00 -1.50437E-01
    9023.482     27.649   3.080  8.62002E-01  1.01655E+00 -1.54550E-01
    9024.427     28.593   3.120  8.58472E-01  1.01547E+00 -1.56998E-01
    9025.384     29.551   3.160  8.56853E-01  1.01423E+00 -1.57376E-01
    9026.353     30.520   3.200  8.57647E-01  1.01284E+00 -1.55192E-01
    9027.335     31.501   3.240  8.61405E-01  1.01135E+00 -1.49943E-01
    9028.328     32.495   3.280  8.68267E-01  1.00974E+00 -1.41476E-01
    9029.334     33.501   3.320  8.78076E-01  1.00805E+00 -1.29975E-01
    9030.352     34.519   3.360  8.90545E-01  1.00628E+00 -1.15735E-01
    9031.382     35.549   3.400  9.05053E-01  1.00444E+00 -9.93852E-02
    9032.425     36.591   3.440  9.20841E-01  1.00257E+00 -8.17319E-02
    9033.479     37.646   3.480  9.37210E-01  1.00065E+00 -6.34373E-02
    9034.546     38.713   3.520  9.53671E-01  9.98712E-01 -4.50408E-02
    9035.625     39.792   3.560  9.69700E-01  9.96770E-01 -2.70702E-02
    9036.716     40.883   3.600  9.84830E-01  9.94829E-01 -9.99962E-03
    9037.820     41.986   3.640  9.98690E-01  9.92914E-01  5.77584E-03
    9038.935     43.102   3.680  1.01072E+00  9.90987E-01  1.97357E-02
    9040.063     44.230   3.720  1.02047E+00  9.89115E-01  3.13553E-02
    9041.203     45.370   3.760  1.02760E+00  9.87283E-01  4.03195E-02
    9042.355     46.522   3.800  1.03215E+00  9.85492E-01  4.66586E-02
    9043.520     47.686   3.840  1.03452E+00  9.83746E-01  5.07750E-02
    9044.696     48.863   3.880  1.03549E+00  9.82069E-01  5.34207E-02
    9045.885     50.051   3.920  1.03576E+00  9.80444E-01  5.53205E-02
    9047.086     51.252   3.960  1.03585E+00  9.78913E-01  5.69373E-02
    9048.299     52.465   4.000  1.03592E+00  9.77440E-01  5.84758E-02
    9049.524     53.691   4.040  1.03596E+00  9.76043E-01  5.99214E-02
    9050.762     54.928   4.080  1.03586E+00  9.74727E-01  6.11339E-02
    9052.011     56.178   4.120  1.03545E+00  9.73516E-01  6.19319E-02
    9053.273     57.440   4.160  1.03460E+00  9.72388E-01  6.22066E-02
    9054.547     58.714   4.200  1.03306E+00  9.71343E-01  6.17201E-02
    9055.833     60.000   4.240  1.03053E+00  9.70382E-01  6.01494E-02
    9057.132     61.298   4.280  1.02684E+00  9.69527E-01  5.73163E-02
    9058.442     62.609   4.320  1.02211E+00  9.68757E-01  5.33516E-02
    9059.765     63.932   4.360  1.01673E+00  9.68073E-01  4.86550E-02
    9061.100     65.267   4.400  1.01122E+00  9.67496E-01  4.37268E-02
    9062.448     66.614   4.440  1.00588E+00  9.67005E-01  3.88791E-02
    9063.807     67.973   4.480  1.00069E+00  9.66618E-01  3.40691E-02
    9065.179     69.345   4.520  9.95315E-01  9.66295E-01  2.90202E-02
    9066.562     70.729   4.560  9.89507E-01  9.66077E-01  2.34295E-02
    9067.958     72.125   4.600  9.83131E-01  9.65964E-01  1.71668E-02
    9069.366     73.533   4.640  9.76293E-01  9.65909E-01  1.03835E-02
    9070.787     74.953   4.680  9.69346E-01  9.65932E-01  3.41364E-03
    9072.219     76.386   4.720  9.62648E-01  9.66034E-01 -3.38639E-03
    9073.664     77.831   4.760  9.56461E-01  9.66235E-01 -9.77376E-03
    9075.121     79.288   4.800  9.50878E-01  9.66469E-01 -1.55905E-02
    9076.590     80.757   4.840  9.46115E-01  9.66796E-01 -2.06809E-02
    9078.072     82.238   4.880  9.42339E-01  9.67174E-01 -2.48346E-02
    9079.565     83.732   4.920  9.39794E-01  9.67623E-01 -2.78291E-02
    9081.071     85.237   4.960  9.38607E-01  9.68119E-01 -2.95123E-02
    9082.589     86.755   5.000  9.38838E-01  9.68679E-01 -2.98417E-02
    9084.119     88.285   5.040  9.40346E-01  9.69261E-01 -2.89152E-02
    9085.661     89.828   5.080  9.43004E-01  9.69902E-01 -2.68981E-02
    9087.215     91.382   5.120  9.46547E-01  9.70557E-01 -2.40098E-02
    9088.782     92.949   5.160  9.50677E-01  9.71247E-01 -2.05705E-02
    9090.361     94.528   5.200  9.54916E-01  9.71970E-01 -1.70534E-02
    9091.952     96.119   5.240  9.58555E-01  9.72699E-01 -1.41440E-02
    9093.555     97.722   5.280  9.60879E-01  9.73434E-01 -1.25559E-02
    9095.171     99.337   5.320  9.61392E-01  9.74195E-01 -1.28035E-02
    9096.798    100.965   5.360  9.59985E-01  9.74957E-01 -1.49727E-02
    9098.438    102.605   5.400  9.57040E-01  9.75696E-01 -1.86566E-02
    9100.090    104.257   5.440  9.53379E-01  9.76452E-01 -2.30733E-02
    9101.754    105.921   5.480  9.49839E-01  9.77182E-01 -2.73423E-02
    9103.431    107.597   5.520  9.47195E-01  9.77902E-01 -3.07071E-02
    9105.119    109.286   5.560  9.45888E-01  9.78588E-01 -3.27001E-02
    9106.820    110.987   5.600  9.46086E-01  9.79240E-01 -3.31532E-02
    9108.533    112.700   5.640  9.47701E-01  9.79878E-01 -3.21764E-02
    9110.258    114.425   5.680  9.50473E-01  9.80477E-01 -3.00041E-02
    9111.996    116.162   5.720  9.54187E-01  9.81013E-01 -2.68257E-02
    9113.745    117.912   5.760  9.58808E-01  9.81528E-01 -2.27199E-02
    9115.507    119.673   5.800  9.64185E-01  9.81978E-01 -1.77926E-02
    9117.281    121.447   5.840  9.70060E-01  9.82381E-01 -1.23214E-02
    9119.067    123.233   5.880  9.75931E-01  9.82738E-01 -6.80696E-03
    9120.865    125.032   5.920  9.81179E-01  9.83020E-01 -1.84070E-03
    9122.676    126.842   5.960  9.85402E-01  9.83241E-01  2.16107E-03
    9124.498    128.665   6.000  9.88699E-01  9.83355E-01  5.34495E-03
