# # comment:                                                     FEFF 9.9.1  
# # Source:
# # Structure
# # Reduced
# # space
# # abc:
# # angles:
# # sites:
# # POT  SCF 100  7.0000   0, screened core-hole, AFOLP (folp(0)= 1.150)
# # Abs   Z=29 Rmt= 1.269 Rnm= 1.338 K  shell
# # Pot 1 Z= 3 Rmt= 1.304 Rnm= 1.357
# # Pot 2 Z=29 Rmt= 1.269 Rnm= 1.338
# # Pot 3 Z= 5 Rmt= 0.763 Rnm= 0.981
# # Pot 4 Z= 8 Rmt= 0.923 Rnm= 1.055
# # Gam_ch=1.729E+00 H-L exch Vi= 0.000E+00 Vr= 0.000E+00
# # Mu=-7.102E+00eV kf=2.341E+00 Vint=-1.752E+01eV Rs_int= 1.550
# FMS rfms= 9.0000
# # PATH  Rmax=-1.000,  Keep_limit= 0.00, Heap_limit 0.00  Pwcrit= 2.50%
#  S02=0.950  Temp=   0.00  Debye_temp=   0.00  Global_sig2= 0.00000
#  Energy zero shift, vr, vi    0.00000E+00   0.00000E+00
#  Curved wave amplitude ratio filter   4.000%
#     file         sig2 tot  cw amp ratio   deg  nlegs   reff  inp sig2
#     0/   0 paths used
#  xsedge+ 50, used to normalize mu           2.4750E-04
#  -----------------------------------------------------------------------
#  omega    e    k    mu    mu0     chi     @#
    8983.782    -10.912  -1.000  4.30751E-02  5.49283E-02 -1.18532E-02
    8984.081    -10.614  -0.960  4.55561E-02  5.89759E-02 -1.34198E-02
    8984.367    -10.327  -0.920  4.82439E-02  6.34800E-02 -1.52361E-02
    8984.642    -10.053  -0.880  5.11617E-02  6.85086E-02 -1.73469E-02
    8984.904     -9.791  -0.840  5.43351E-02  7.41408E-02 -1.98058E-02
    8985.154     -9.541  -0.800  5.77927E-02  8.04686E-02 -2.26759E-02
    8985.391     -9.303  -0.760  6.15659E-02  8.75972E-02 -2.60313E-02
    8985.617     -9.077  -0.720  6.56886E-02  9.56462E-02 -2.99576E-02
    8985.830     -8.864  -0.680  7.01960E-02  1.04747E-01 -3.45510E-02
    8986.032     -8.663  -0.640  7.51229E-02  1.15038E-01 -3.99156E-02
    8986.221     -8.474  -0.600  8.05009E-02  1.26658E-01 -4.61567E-02
    8986.397     -8.297  -0.560  8.63526E-02  1.39721E-01 -5.33687E-02
    8986.562     -8.132  -0.520  9.26851E-02  1.54300E-01 -6.16145E-02
    8986.714     -7.980  -0.480  9.94796E-02  1.70378E-01 -7.08988E-02
    8986.855     -7.840  -0.440  1.06681E-01  1.87816E-01 -8.11354E-02
    8986.983     -7.712  -0.400  1.14187E-01  2.06307E-01 -9.21202E-02
    8987.098     -7.596  -0.360  1.21846E-01  2.25370E-01 -1.03524E-01
    8987.202     -7.492  -0.320  1.29464E-01  2.44380E-01 -1.14916E-01
    8987.293     -7.401  -0.280  1.36818E-01  2.62644E-01 -1.25826E-01
    8987.373     -7.322  -0.240  1.43684E-01  2.79497E-01 -1.35813E-01
    8987.440     -7.255  -0.200  1.49852E-01  2.94383E-01 -1.44531E-01
    8987.495     -7.200  -0.160  1.55145E-01  3.06899E-01 -1.51754E-01
    8987.537     -7.157  -0.120  1.59418E-01  3.16786E-01 -1.57368E-01
    8987.568     -7.127  -0.080  1.62565E-01  3.23906E-01 -1.61341E-01
    8987.592     -7.102   0.000  1.65173E-01  3.29624E-01 -1.64450E-01
    8987.647     -7.047   0.120  1.71024E-01  3.42499E-01 -1.71475E-01
    8987.690     -7.005   0.160  1.75664E-01  3.52509E-01 -1.76845E-01
    8987.745     -6.950   0.200  1.81740E-01  3.65262E-01 -1.83522E-01
    8987.812     -6.883   0.240  1.89404E-01  3.80593E-01 -1.91189E-01
    8987.891     -6.804   0.280  1.98774E-01  3.98157E-01 -1.99383E-01
    8987.982     -6.712   0.320  2.10059E-01  4.17465E-01 -2.07406E-01
    8988.086     -6.608   0.360  2.23569E-01  4.37976E-01 -2.14408E-01
    8988.202     -6.493   0.400  2.39651E-01  4.59034E-01 -2.19383E-01
    8988.330     -6.365   0.440  2.58744E-01  4.80077E-01 -2.21334E-01
    8988.470     -6.224   0.480  2.81165E-01  5.00651E-01 -2.19486E-01
    8988.622     -6.072   0.520  3.06822E-01  5.20500E-01 -2.13678E-01
    8988.787     -5.907   0.560  3.34539E-01  5.39478E-01 -2.04939E-01
    8988.964     -5.731   0.600  3.61729E-01  5.57535E-01 -1.95806E-01
    8989.153     -5.542   0.640  3.85050E-01  5.74772E-01 -1.89723E-01
    8989.354     -5.341   0.680  4.01835E-01  5.91235E-01 -1.89400E-01
    8989.567     -5.127   0.720  4.11789E-01  6.07064E-01 -1.95275E-01
    8989.793     -4.902   0.760  4.17304E-01  6.22356E-01 -2.05052E-01
    8990.031     -4.664   0.800  4.23122E-01  6.37199E-01 -2.14078E-01
    8990.280     -4.414   0.840  4.34520E-01  6.51669E-01 -2.17148E-01
    8990.543     -4.152   0.880  4.53211E-01  6.65826E-01 -2.12615E-01
    8990.817     -3.877   0.920  4.73519E-01  6.79738E-01 -2.06219E-01
    8991.103     -3.591   0.960  4.85856E-01  6.93439E-01 -2.07583E-01
    8991.402     -3.292   1.000  4.87962E-01  7.06951E-01 -2.18989E-01
    8991.713     -2.981   1.040  4.87710E-01  7.20306E-01 -2.32596E-01
    8992.036     -2.658   1.080  4.90543E-01  7.33470E-01 -2.42928E-01
    8992.371     -2.323   1.120  4.92363E-01  7.46482E-01 -2.54119E-01
    8992.719     -1.976   1.160  4.92320E-01  7.59313E-01 -2.66994E-01
    8993.078     -1.616   1.200  5.01979E-01  7.71973E-01 -2.69994E-01
    8993.450     -1.244   1.240  5.32758E-01  7.84444E-01 -2.51686E-01
    8993.834     -0.860   1.280  5.83845E-01  7.96689E-01 -2.12845E-01
    8994.231     -0.464   1.320  6.44595E-01  8.08727E-01 -1.64133E-01
    8994.639     -0.055   1.360  7.10061E-01  8.20515E-01 -1.10453E-01
    8995.060      0.365   1.400  7.90101E-01  8.32029E-01 -4.19277E-02
    8995.493      0.798   1.440  8.98784E-01  8.43264E-01  5.55191E-02
    8995.938      1.243   1.480  1.03778E+00  8.54218E-01  1.83565E-01
    8996.395      1.700   1.520  1.18621E+00  8.64842E-01  3.21373E-01
    8996.864      2.170   1.560  1.31149E+00  8.75110E-01  4.36384E-01
    8997.346      2.651   1.600  1.38792E+00  8.85059E-01  5.02865E-01
    8997.839      3.145   1.640  1.40862E+00  8.94624E-01  5.13993E-01
    8998.345      3.651   1.680  1.37609E+00  9.03802E-01  4.72287E-01
    8998.864      4.169   1.720  1.30558E+00  9.12605E-01  3.92971E-01
    8999.394      4.700   1.760  1.23576E+00  9.20994E-01  3.14763E-01
    8999.936      5.242   1.800  1.18477E+00  9.29006E-01  2.55766E-01
    9000.491      5.797   1.840  1.13755E+00  9.36581E-01  2.00973E-01
    9001.058      6.364   1.880  1.09416E+00  9.43757E-01  1.50404E-01
    9001.637      6.943   1.920  1.07160E+00  9.50514E-01  1.21089E-01
    9002.229      7.534   1.960  1.06390E+00  9.56855E-01  1.07050E-01
    9002.832      8.138   2.000  1.05095E+00  9.62801E-01  8.81483E-02
    9003.448      8.753   2.040  1.03516E+00  9.68334E-01  6.68305E-02
    9004.076      9.381   2.080  1.03002E+00  9.73460E-01  5.65579E-02
    9004.716     10.021   2.120  1.03129E+00  9.78200E-01  5.30881E-02
    9005.368     10.674   2.160  1.02814E+00  9.82541E-01  4.55963E-02
    9006.032     11.338   2.200  1.02214E+00  9.86529E-01  3.56107E-02
    9006.709     12.015   2.240  1.02082E+00  9.90146E-01  3.06754E-02
    9007.398     12.704   2.280  1.03199E+00  9.93403E-01  3.85886E-02
    9008.099     13.405   2.320  1.06208E+00  9.96324E-01  6.57584E-02
    9008.812     14.118   2.360  1.10630E+00  9.98917E-01  1.07387E-01
    9009.538     14.843   2.400  1.14850E+00  1.00121E+00  1.47295E-01
    9010.275     15.581   2.440  1.17742E+00  1.00319E+00  1.74226E-01
    9011.025     16.331   2.480  1.18824E+00  1.00490E+00  1.83338E-01
    9011.787     17.093   2.520  1.17549E+00  1.00634E+00  1.69147E-01
    9012.561     17.867   2.560  1.13759E+00  1.00755E+00  1.30034E-01
    9013.348     18.653   2.600  1.08277E+00  1.00850E+00  7.42708E-02
    9014.146     19.452   2.640  1.03197E+00  1.00923E+00  2.27367E-02
    9014.957     20.263   2.680  9.99251E-01  1.00976E+00 -1.05050E-02
    9015.780     21.086   2.720  9.80774E-01  1.01011E+00 -2.93308E-02
    9016.615     21.921   2.760  9.68773E-01  1.01026E+00 -4.14902E-02
    9017.462     22.768   2.800  9.57329E-01  1.01028E+00 -5.29485E-02
    9018.322     23.628   2.840  9.44179E-01  1.01011E+00 -6.59363E-02
    9019.194     24.499   2.880  9.29335E-01  1.00984E+00 -8.05089E-02
    9020.078     25.383   2.920  9.14499E-01  1.00945E+00 -9.49534E-02
    9020.974     26.279   2.960  9.01741E-01  1.00894E+00 -1.07203E-01
    9021.882     27.188   3.000  8.92414E-01  1.00835E+00 -1.15932E-01
    9022.802     28.108   3.040  8.86807E-01  1.00766E+00 -1.20858E-01
    9023.735     29.041   3.080  8.84551E-01  1.00691E+00 -1.22355E-01
    9024.680     29.986   3.120  8.85121E-01  1.00610E+00 -1.20976E-01
    9025.637     30.943   3.160  8.87844E-01  1.00524E+00 -1.17397E-01
    9026.606     31.912   3.200  8.91669E-01  1.00434E+00 -1.12675E-01
    9027.588     32.893   3.240  8.95720E-01  1.00341E+00 -1.07688E-01
    9028.581     33.887   3.280  8.99251E-01  1.00244E+00 -1.03186E-01
    9029.587     34.893   3.320  9.01732E-01  1.00146E+00 -9.97275E-02
    9030.605     35.911   3.360  9.03217E-01  1.00048E+00 -9.72615E-02
    9031.636     36.941   3.400  9.04582E-01  9.99518E-01 -9.49361E-02
    9032.678     37.984   3.440  9.07083E-01  9.98540E-01 -9.14571E-02
    9033.733     39.038   3.480  9.11940E-01  9.97587E-01 -8.56467E-02
    9034.799     40.105   3.520  9.19959E-01  9.96641E-01 -7.66827E-02
    9035.878     41.184   3.560  9.31405E-01  9.95727E-01 -6.43216E-02
    9036.970     42.275   3.600  9.45931E-01  9.94846E-01 -4.89158E-02
    9038.073     43.379   3.640  9.62716E-01  9.93981E-01 -3.12646E-02
    9039.188     44.494   3.680  9.80658E-01  9.93173E-01 -1.25151E-02
    9040.316     45.622   3.720  9.98319E-01  9.92384E-01  5.93503E-03
    9041.456     46.762   3.760  1.01433E+00  9.91655E-01  2.26789E-02
    9042.608     47.914   3.800  1.02749E+00  9.90947E-01  3.65427E-02
    9043.773     49.078   3.840  1.03698E+00  9.90304E-01  4.66751E-02
    9044.949     50.255   3.880  1.04265E+00  9.89706E-01  5.29429E-02
    9046.138     51.443   3.920  1.04521E+00  9.89173E-01  5.60339E-02
    9047.339     52.644   3.960  1.04579E+00  9.88686E-01  5.71082E-02
    9048.552     53.857   4.000  1.04557E+00  9.88243E-01  5.73288E-02
    9049.777     55.083   4.040  1.04550E+00  9.87846E-01  5.76521E-02
    9051.015     56.320   4.080  1.04614E+00  9.87516E-01  5.86242E-02
    9052.264     57.570   4.120  1.04763E+00  9.87233E-01  6.03988E-02
    9053.526     58.832   4.160  1.04979E+00  9.87017E-01  6.27708E-02
    9054.800     60.106   4.200  1.05209E+00  9.86845E-01  6.52480E-02
    9056.086     61.392   4.240  1.05385E+00  9.86718E-01  6.71293E-02
    9057.385     62.691   4.280  1.05436E+00  9.86634E-01  6.77298E-02
    9058.696     64.001   4.320  1.05322E+00  9.86614E-01  6.66089E-02
    9060.018     65.324   4.360  1.05020E+00  9.86615E-01  6.35888E-02
    9061.353     66.659   4.400  1.04544E+00  9.86680E-01  5.87581E-02
    9062.701     68.006   4.440  1.03924E+00  9.86787E-01  5.24503E-02
    9064.060     69.366   4.480  1.03207E+00  9.86934E-01  4.51358E-02
    9065.432     70.737   4.520  1.02443E+00  9.87118E-01  3.73108E-02
    9066.815     72.121   4.560  1.01680E+00  9.87341E-01  2.94577E-02
    9068.211     73.517   4.600  1.00953E+00  9.87579E-01  2.19471E-02
    9069.620     74.925   4.640  1.00288E+00  9.87873E-01  1.50077E-02
    9071.040     76.346   4.680  9.96976E-01  9.88180E-01  8.79529E-03
    9072.472     77.778   4.720  9.91892E-01  9.88519E-01  3.37234E-03
    9073.917     79.223   4.760  9.87540E-01  9.88868E-01 -1.32757E-03
    9075.374     80.680   4.800  9.83773E-01  9.89245E-01 -5.47247E-03
    9076.843     82.149   4.840  9.80380E-01  9.89629E-01 -9.24921E-03
    9078.325     83.630   4.880  9.77309E-01  9.90019E-01 -1.27095E-02
    9079.818     85.124   4.920  9.74747E-01  9.90434E-01 -1.56875E-02
    9081.324     86.629   4.960  9.72926E-01  9.90852E-01 -1.79263E-02
    9082.842     88.147   5.000  9.72066E-01  9.91271E-01 -1.92052E-02
    9084.372     89.677   5.040  9.72116E-01  9.91690E-01 -1.95739E-02
    9085.914     91.220   5.080  9.72642E-01  9.92107E-01 -1.94646E-02
    9087.469     92.774   5.120  9.72959E-01  9.92519E-01 -1.95603E-02
    9089.035     94.341   5.160  9.72316E-01  9.92904E-01 -2.05876E-02
    9090.614     95.920   5.200  9.70233E-01  9.93283E-01 -2.30500E-02
    9092.205     97.511   5.240  9.66461E-01  9.93656E-01 -2.71950E-02
    9093.808     99.114   5.280  9.61070E-01  9.94022E-01 -3.29523E-02
    9095.424    100.729   5.320  9.54488E-01  9.94356E-01 -3.98683E-02
    9097.051    102.357   5.360  9.47530E-01  9.94655E-01 -4.71247E-02
    9098.691    103.997   5.400  9.41286E-01  9.94943E-01 -5.36565E-02
    9100.343    105.649   5.440  9.36805E-01  9.95196E-01 -5.83902E-02
    9102.007    107.313   5.480  9.34939E-01  9.95413E-01 -6.04744E-02
    9103.684    108.989   5.520  9.36209E-01  9.95618E-01 -5.94093E-02
    9105.372    110.678   5.560  9.40683E-01  9.95785E-01 -5.51024E-02
    9107.073    112.379   5.600  9.48051E-01  9.95915E-01 -4.78639E-02
    9108.786    114.092   5.640  9.57639E-01  9.96004E-01 -3.83654E-02
    9110.511    115.817   5.680  9.68527E-01  9.96055E-01 -2.75284E-02
    9112.249    117.554   5.720  9.79735E-01  9.96069E-01 -1.63340E-02
    9113.998    119.304   5.760  9.90469E-01  9.96068E-01 -5.59868E-03
    9115.760    121.066   5.800  1.00015E+00  9.96005E-01  4.14544E-03
    9117.534    122.840   5.840  1.00856E+00  9.95925E-01  1.26328E-02
    9119.320    124.626   5.880  1.01555E+00  9.95784E-01  1.97628E-02
    9121.118    126.424   5.920  1.02113E+00  9.95628E-01  2.54997E-02
    9122.929    128.234   5.960  1.02520E+00  9.95407E-01  2.97939E-02
    9124.752    130.057   6.000  1.02765E+00  9.95150E-01  3.25016E-02
