# # comment:                                                     FEFF 9.9.1  
# # Source:
# # Structure
# # Reduced
# # space
# # abc:
# # angles:
# # sites:
# # POT  SCF 100  7.0000   0, screened core-hole, AFOLP (folp(0)= 1.150)
# # Abs   Z=29 Rmt= 1.136 Rnm= 1.276 K  shell
# # Pot 1 Z=39 Rmt= 1.578 Rnm= 1.682
# # Pot 2 Z=29 Rmt= 1.102 Rnm= 1.278
# # Pot 3 Z= 8 Rmt= 1.030 Rnm= 1.128
# # Gam_ch=1.729E+00 H-L exch Vi= 0.000E+00 Vr= 0.000E+00
# # Mu=-8.494E+00eV kf=2.083E+00 Vint=-1.529E+01eV Rs_int= 1.741
# FMS rfms= 9.0000
# # PATH  Rmax=-1.000,  Keep_limit= 0.00, Heap_limit 0.00  Pwcrit= 2.50%
#  S02=0.950  Temp=   0.00  Debye_temp=   0.00  Global_sig2= 0.00000
#  Energy zero shift, vr, vi    0.00000E+00   0.00000E+00
#  Curved wave amplitude ratio filter   4.000%
#     file         sig2 tot  cw amp ratio   deg  nlegs   reff  inp sig2
#     0/   0 paths used
#  xsedge+ 50, used to normalize mu           2.4465E-04
#  -----------------------------------------------------------------------
#  omega    e    k    mu    mu0     chi     @#
    8983.701    -12.304  -1.000  3.18453E-02  5.23271E-02 -2.04818E-02
    8983.999    -12.005  -0.960  3.33357E-02  5.59972E-02 -2.26615E-02
    8984.286    -11.719  -0.920  3.49357E-02  6.00604E-02 -2.51247E-02
    8984.560    -11.444  -0.880  3.66590E-02  6.45730E-02 -2.79140E-02
    8984.822    -11.182  -0.840  3.85216E-02  6.96002E-02 -3.10785E-02
    8985.072    -10.932  -0.800  4.05422E-02  7.52173E-02 -3.46751E-02
    8985.310    -10.695  -0.760  4.27425E-02  8.15108E-02 -3.87683E-02
    8985.535    -10.469  -0.720  4.51472E-02  8.85776E-02 -4.34304E-02
    8985.749    -10.256  -0.680  4.77841E-02  9.65246E-02 -4.87405E-02
    8985.950    -10.055  -0.640  5.06823E-02  1.05464E-01 -5.47817E-02
    8986.139     -9.866  -0.600  5.38705E-02  1.15505E-01 -6.16347E-02
    8986.316     -9.689  -0.560  5.73727E-02  1.26741E-01 -6.93688E-02
    8986.480     -9.524  -0.520  6.12010E-02  1.39227E-01 -7.80256E-02
    8986.633     -9.372  -0.480  6.53467E-02  1.52945E-01 -8.75987E-02
    8986.773     -9.232  -0.440  6.97691E-02  1.67778E-01 -9.80092E-02
    8986.901     -9.104  -0.400  7.43867E-02  1.83472E-01 -1.09085E-01
    8987.017     -8.988  -0.360  7.90750E-02  1.99629E-01 -1.20554E-01
    8987.120     -8.884  -0.320  8.36762E-02  2.15735E-01 -1.32059E-01
    8987.212     -8.793  -0.280  8.80211E-02  2.31216E-01 -1.43195E-01
    8987.291     -8.713  -0.240  9.19559E-02  2.45517E-01 -1.53561E-01
    8987.358     -8.646  -0.200  9.53645E-02  2.58170E-01 -1.62805E-01
    8987.413     -8.591  -0.160  9.81761E-02  2.68829E-01 -1.70653E-01
    8987.456     -8.549  -0.120  1.00361E-01  2.77267E-01 -1.76907E-01
    8987.486     -8.518  -0.080  1.01916E-01  2.83355E-01 -1.81439E-01
    8987.510     -8.494   0.000  1.03170E-01  2.88252E-01 -1.85082E-01
    8987.565     -8.439   0.120  1.06004E-01  2.99295E-01 -1.93291E-01
    8987.608     -8.396   0.160  1.08084E-01  3.07913E-01 -1.99828E-01
    8987.663     -8.342   0.200  1.10610E-01  3.18931E-01 -2.08321E-01
    8987.730     -8.274   0.240  1.13490E-01  3.32247E-01 -2.18757E-01
    8987.809     -8.195   0.280  1.16541E-01  3.47615E-01 -2.31074E-01
    8987.901     -8.104   0.320  1.19676E-01  3.64712E-01 -2.45036E-01
    8988.004     -8.000   0.360  1.22749E-01  3.83070E-01 -2.60321E-01
    8988.120     -7.884   0.400  1.25799E-01  4.02250E-01 -2.76450E-01
    8988.248     -7.756   0.440  1.29031E-01  4.21808E-01 -2.92777E-01
    8988.388     -7.616   0.480  1.32768E-01  4.41419E-01 -3.08651E-01
    8988.541     -7.464   0.520  1.37464E-01  4.60852E-01 -3.23388E-01
    8988.705     -7.299   0.560  1.43550E-01  4.80011E-01 -3.36461E-01
    8988.882     -7.122   0.600  1.51270E-01  4.98865E-01 -3.47595E-01
    8989.071     -6.933   0.640  1.60686E-01  5.17436E-01 -3.56750E-01
    8989.272     -6.732   0.680  1.71750E-01  5.35776E-01 -3.64027E-01
    8989.486     -6.519   0.720  1.84476E-01  5.53967E-01 -3.69491E-01
    8989.711     -6.293   0.760  1.99084E-01  5.72068E-01 -3.72984E-01
    8989.949     -6.056   0.800  2.15413E-01  5.90087E-01 -3.74674E-01
    8990.199     -5.806   0.840  2.32324E-01  6.08102E-01 -3.75779E-01
    8990.461     -5.543   0.880  2.47830E-01  6.26118E-01 -3.78289E-01
    8990.735     -5.269   0.920  2.60818E-01  6.44127E-01 -3.83309E-01
    8991.022     -4.983   0.960  2.71923E-01  6.62110E-01 -3.90188E-01
    8991.320     -4.684   1.000  2.82780E-01  6.80081E-01 -3.97301E-01
    8991.631     -4.373   1.040  2.94649E-01  6.98003E-01 -4.03353E-01
    8991.954     -4.050   1.080  3.08352E-01  7.15832E-01 -4.07480E-01
    8992.290     -3.715   1.120  3.24892E-01  7.33522E-01 -4.08630E-01
    8992.637     -3.367   1.160  3.44875E-01  7.51039E-01 -4.06164E-01
    8992.997     -3.008   1.200  3.68283E-01  7.68328E-01 -4.00045E-01
    8993.369     -2.636   1.240  3.95367E-01  7.85352E-01 -3.89985E-01
    8993.753     -2.252   1.280  4.26612E-01  8.02051E-01 -3.75439E-01
    8994.149     -1.855   1.320  4.61649E-01  8.18387E-01 -3.56738E-01
    8994.557     -1.447   1.360  4.98810E-01  8.34296E-01 -3.35486E-01
    8994.978     -1.026   1.400  5.35628E-01  8.49741E-01 -3.14114E-01
    8995.411     -0.594   1.440  5.68837E-01  8.64664E-01 -2.95827E-01
    8995.856     -0.149   1.480  5.97404E-01  8.79046E-01 -2.81642E-01
    8996.313      0.309   1.520  6.23119E-01  8.92831E-01 -2.69712E-01
    8996.782      0.778   1.560  6.49705E-01  9.06030E-01 -2.56324E-01
    8997.264      1.260   1.600  6.84901E-01  9.18567E-01 -2.33666E-01
    8997.758      1.753   1.640  7.34473E-01  9.30454E-01 -1.95981E-01
    8998.264      2.259   1.680  7.91963E-01  9.41645E-01 -1.49683E-01
    8998.782      2.778   1.720  8.41348E-01  9.52176E-01 -1.10828E-01
    8999.312      3.308   1.760  8.75865E-01  9.62005E-01 -8.61402E-02
    8999.855      3.850   1.800  9.04368E-01  9.71131E-01 -6.67638E-02
    9000.410      4.405   1.840  9.37941E-01  9.79578E-01 -4.16373E-02
    9000.976      4.972   1.880  9.83418E-01  9.87330E-01 -3.91202E-03
    9001.556      5.551   1.920  1.04226E+00  9.94413E-01  4.78516E-02
    9002.147      6.142   1.960  1.10937E+00  1.00086E+00  1.08514E-01
    9002.750      6.746   2.000  1.17752E+00  1.00665E+00  1.70870E-01
    9003.366      7.362   2.040  1.24535E+00  1.01182E+00  2.33534E-01
    9003.994      7.990   2.080  1.31666E+00  1.01640E+00  3.00257E-01
    9004.634      8.630   2.120  1.38598E+00  1.02041E+00  3.65576E-01
    9005.286      9.282   2.160  1.43944E+00  1.02385E+00  4.15593E-01
    9005.951      9.946   2.200  1.46782E+00  1.02680E+00  4.41019E-01
    9006.627     10.623   2.240  1.46618E+00  1.02925E+00  4.36929E-01
    9007.316     11.312   2.280  1.43415E+00  1.03123E+00  4.02920E-01
    9008.017     12.013   2.320  1.37497E+00  1.03280E+00  3.42168E-01
    9008.731     12.726   2.360  1.30004E+00  1.03397E+00  2.66069E-01
    9009.456     13.452   2.400  1.23230E+00  1.03476E+00  1.97547E-01
    9010.194     14.189   2.440  1.18914E+00  1.03520E+00  1.53943E-01
    9010.943     14.939   2.480  1.16864E+00  1.03532E+00  1.33322E-01
    9011.705     15.701   2.520  1.16164E+00  1.03515E+00  1.26490E-01
    9012.480     16.475   2.560  1.15526E+00  1.03473E+00  1.20530E-01
    9013.266     17.262   2.600  1.14604E+00  1.03406E+00  1.11979E-01
    9014.065     18.060   2.640  1.13403E+00  1.03321E+00  1.00823E-01
    9014.875     18.871   2.680  1.12017E+00  1.03214E+00  8.80303E-02
    9015.698     19.694   2.720  1.10540E+00  1.03092E+00  7.44753E-02
    9016.533     20.529   2.760  1.08978E+00  1.02957E+00  6.02092E-02
    9017.381     21.376   2.800  1.07305E+00  1.02808E+00  4.49775E-02
    9018.240     22.236   2.840  1.05531E+00  1.02649E+00  2.88269E-02
    9019.112     23.108   2.880  1.03675E+00  1.02482E+00  1.19286E-02
    9019.996     23.992   2.920  1.01756E+00  1.02309E+00 -5.53218E-03
    9020.892     24.888   2.960  9.98449E-01  1.02130E+00 -2.28490E-02
    9021.800     25.796   3.000  9.80337E-01  1.01949E+00 -3.91501E-02
    9022.721     26.716   3.040  9.63777E-01  1.01764E+00 -5.38674E-02
    9023.654     27.649   3.080  9.49252E-01  1.01580E+00 -6.65450E-02
    9024.598     28.594   3.120  9.36983E-01  1.01395E+00 -7.69670E-02
    9025.555     29.551   3.160  9.26924E-01  1.01213E+00 -8.52066E-02
    9026.525     30.520   3.200  9.18950E-01  1.01032E+00 -9.13724E-02
    9027.506     31.502   3.240  9.12932E-01  1.00855E+00 -9.56202E-02
    9028.500     32.495   3.280  9.08528E-01  1.00684E+00 -9.83138E-02
    9029.506     33.501   3.320  9.05395E-01  1.00516E+00 -9.97623E-02
    9030.524     34.519   3.360  9.03434E-01  1.00354E+00 -1.00109E-01
    9031.554     35.549   3.400  9.02416E-01  1.00200E+00 -9.95836E-02
    9032.596     36.592   3.440  9.02069E-01  1.00051E+00 -9.84402E-02
    9033.651     37.646   3.480  9.02223E-01  9.99098E-01 -9.68751E-02
    9034.718     38.713   3.520  9.02781E-01  9.97787E-01 -9.50062E-02
    9035.797     39.792   3.560  9.03508E-01  9.96538E-01 -9.30301E-02
    9036.888     40.883   3.600  9.04346E-01  9.95371E-01 -9.10248E-02
    9037.991     41.987   3.640  9.05317E-01  9.94308E-01 -8.89908E-02
    9039.107     43.102   3.680  9.06485E-01  9.93332E-01 -8.68471E-02
    9040.235     44.230   3.720  9.08004E-01  9.92441E-01 -8.44374E-02
    9041.375     45.370   3.760  9.10256E-01  9.91636E-01 -8.13798E-02
    9042.527     46.522   3.800  9.13696E-01  9.90940E-01 -7.72444E-02
    9043.691     47.687   3.840  9.18613E-01  9.90332E-01 -7.17193E-02
    9044.868     48.863   3.880  9.25085E-01  9.89832E-01 -6.47474E-02
    9046.056     50.052   3.920  9.32890E-01  9.89420E-01 -5.65296E-02
    9047.257     51.253   3.960  9.41632E-01  9.89092E-01 -4.74599E-02
    9048.470     52.466   4.000  9.50855E-01  9.88848E-01 -3.79935E-02
    9049.696     53.691   4.040  9.60336E-01  9.88689E-01 -2.83532E-02
    9050.933     54.929   4.080  9.70131E-01  9.88635E-01 -1.85047E-02
    9052.183     56.178   4.120  9.80465E-01  9.88665E-01 -8.19911E-03
    9053.445     57.440   4.160  9.91653E-01  9.88754E-01  2.89945E-03
    9054.719     58.714   4.200  1.00383E+00  9.88945E-01  1.48863E-02
    9056.005     60.000   4.240  1.01660E+00  9.89215E-01  2.73836E-02
    9057.303     61.299   4.280  1.02921E+00  9.89540E-01  3.96721E-02
    9058.614     62.610   4.320  1.04093E+00  9.89941E-01  5.09865E-02
    9059.937     63.932   4.360  1.05118E+00  9.90417E-01  6.07651E-02
    9061.272     65.267   4.400  1.05974E+00  9.90966E-01  6.87704E-02
    9062.619     66.615   4.440  1.06651E+00  9.91542E-01  7.49734E-02
    9063.978     67.974   4.480  1.07142E+00  9.92205E-01  7.92188E-02
    9065.350     69.346   4.520  1.07413E+00  9.92891E-01  8.12407E-02
    9066.734     70.729   4.560  1.07450E+00  9.93619E-01  8.08808E-02
    9068.130     72.125   4.600  1.07260E+00  9.94409E-01  7.81938E-02
    9069.538     73.533   4.640  1.06868E+00  9.95215E-01  7.34676E-02
    9070.958     74.954   4.680  1.06328E+00  9.96057E-01  6.72220E-02
    9072.391     76.386   4.720  1.05689E+00  9.96932E-01  5.99611E-02
    9073.836     77.831   4.760  1.04992E+00  9.97817E-01  5.21013E-02
    9075.293     79.288   4.800  1.04272E+00  9.98731E-01  4.39941E-02
    9076.762     80.757   4.840  1.03561E+00  9.99650E-01  3.59653E-02
    9078.243     82.239   4.880  1.02895E+00  1.00057E+00  2.83810E-02
    9079.736     83.732   4.920  1.02312E+00  1.00149E+00  2.16317E-02
    9081.242     85.238   4.960  1.01838E+00  1.00241E+00  1.59767E-02
    9082.760     86.756   5.000  1.01476E+00  1.00332E+00  1.14461E-02
    9084.290     88.286   5.040  1.01206E+00  1.00420E+00  7.86649E-03
    9085.832     89.828   5.080  1.01005E+00  1.00507E+00  4.97857E-03
    9087.387     91.383   5.120  1.00849E+00  1.00591E+00  2.58231E-03
    9088.954     92.949   5.160  1.00736E+00  1.00674E+00  6.21984E-04
    9090.532     94.528   5.200  1.00673E+00  1.00753E+00 -8.00776E-04
    9092.124     96.119   5.240  1.00675E+00  1.00828E+00 -1.53356E-03
    9093.727     97.722   5.280  1.00748E+00  1.00899E+00 -1.51724E-03
    9095.342     99.338   5.320  1.00875E+00  1.00969E+00 -9.35691E-04
    9096.970    100.965   5.360  1.01008E+00  1.01031E+00 -2.31038E-04
    9098.610    102.605   5.400  1.01096E+00  1.01087E+00  8.37839E-05
    9100.262    104.257   5.440  1.01107E+00  1.01141E+00 -3.34108E-04
    9101.926    105.921   5.480  1.01031E+00  1.01187E+00 -1.55752E-03
    9103.602    107.598   5.520  1.00879E+00  1.01229E+00 -3.49558E-03
    9105.291    109.286   5.560  1.00655E+00  1.01263E+00 -6.08456E-03
    9106.992    110.987   5.600  1.00357E+00  1.01293E+00 -9.35267E-03
    9108.705    112.700   5.640  9.99763E-01  1.01315E+00 -1.33842E-02
    9110.430    114.425   5.680  9.95103E-01  1.01332E+00 -1.82143E-02
    9112.167    116.163   5.720  9.89693E-01  1.01342E+00 -2.37233E-02
    9113.917    117.912   5.760  9.83940E-01  1.01346E+00 -2.95232E-02
    9115.678    119.674   5.800  9.78396E-01  1.01344E+00 -3.50407E-02
    9117.452    121.448   5.840  9.73622E-01  1.01334E+00 -3.97135E-02
    9119.238    123.234   5.880  9.70010E-01  1.01318E+00 -4.31745E-02
    9121.037    125.032   5.920  9.67727E-01  1.01296E+00 -4.52343E-02
    9122.847    126.843   5.960  9.66999E-01  1.01268E+00 -4.56836E-02
    9124.670    128.665   6.000  9.68200E-01  1.01228E+00 -4.40806E-02
