# # comment:                                                     FEFF 9.9.1  
# # Source:
# # Structure
# # Reduced
# # space
# # abc:
# # angles:107.580080
# # sites:
# # POT  SCF 100  7.0000   0, screened core-hole, AFOLP (folp(0)= 1.150)
# # Abs   Z=29 Rmt= 1.243 Rnm= 1.312 K  shell
# # Pot 1 Z=56 Rmt= 1.904 Rnm= 1.971
# # Pot 2 Z=38 Rmt= 1.791 Rnm= 1.856
# # Pot 3 Z=29 Rmt= 1.233 Rnm= 1.306
# # Pot 4 Z= 8 Rmt= 1.078 Rnm= 1.127
# # Gam_ch=1.729E+00 H-L exch Vi= 0.000E+00 Vr= 0.000E+00
# # Mu=-1.016E+01eV kf=1.926E+00 Vint=-1.737E+01eV Rs_int= 1.883
# FMS rfms= 9.0000
# # PATH  Rmax=-1.000,  Keep_limit= 0.00, Heap_limit 0.00  Pwcrit= 2.50%
#  S02=0.950  Temp=   0.00  Debye_temp=   0.00  Global_sig2= 0.00000
#  Energy zero shift, vr, vi    0.00000E+00   0.00000E+00
#  Curved wave amplitude ratio filter   4.000%
#     file         sig2 tot  cw amp ratio   deg  nlegs   reff  inp sig2
#     0/   0 paths used
#  xsedge+ 50, used to normalize mu           2.4469E-04
#  -----------------------------------------------------------------------
#  omega    e    k    mu    mu0     chi     @#
    8985.276    -13.970  -1.000  3.34581E-02  5.29122E-02 -1.94540E-02
    8985.575    -13.671  -0.960  3.50011E-02  5.66902E-02 -2.16891E-02
    8985.861    -13.384  -0.920  3.66513E-02  6.08800E-02 -2.42287E-02
    8986.136    -13.110  -0.880  3.84220E-02  6.55414E-02 -2.71194E-02
    8986.398    -12.848  -0.840  4.03284E-02  7.07436E-02 -3.04152E-02
    8986.648    -12.598  -0.800  4.23886E-02  7.65667E-02 -3.41782E-02
    8986.885    -12.360  -0.760  4.46233E-02  8.31026E-02 -3.84793E-02
    8987.111    -12.135  -0.720  4.70564E-02  9.04548E-02 -4.33984E-02
    8987.324    -11.921  -0.680  4.97141E-02  9.87369E-02 -4.90228E-02
    8987.525    -11.720  -0.640  5.26245E-02  1.08069E-01 -5.54445E-02
    8987.714    -11.531  -0.600  5.58150E-02  1.18568E-01 -6.27532E-02
    8987.891    -11.354  -0.560  5.93093E-02  1.30334E-01 -7.10252E-02
    8988.056    -11.190  -0.520  6.31210E-02  1.43426E-01 -8.03052E-02
    8988.208    -11.037  -0.480  6.72461E-02  1.57828E-01 -9.05821E-02
    8988.348    -10.897  -0.440  7.16539E-02  1.73415E-01 -1.01761E-01
    8988.476    -10.769  -0.400  7.62786E-02  1.89918E-01 -1.13640E-01
    8988.592    -10.653  -0.360  8.10165E-02  2.06917E-01 -1.25900E-01
    8988.696    -10.550  -0.320  8.57312E-02  2.23865E-01 -1.38134E-01
    8988.787    -10.458  -0.280  9.02679E-02  2.40154E-01 -1.49886E-01
    8988.867    -10.379  -0.240  9.44733E-02  2.55199E-01 -1.60725E-01
    8988.934    -10.312  -0.200  9.82138E-02  2.68505E-01 -1.70291E-01
    8988.988    -10.257  -0.160  1.01385E-01  2.79708E-01 -1.78323E-01
    8989.031    -10.215  -0.120  1.03915E-01  2.88573E-01 -1.84658E-01
    8989.062    -10.184  -0.080  1.05759E-01  2.94965E-01 -1.89206E-01
    8989.086    -10.160   0.000  1.07277E-01  3.00105E-01 -1.92827E-01
    8989.141    -10.105   0.120  1.10676E-01  3.11706E-01 -2.01030E-01
    8989.184    -10.062   0.160  1.13256E-01  3.20718E-01 -2.07462E-01
    8989.238    -10.007   0.200  1.16580E-01  3.32275E-01 -2.15695E-01
    8989.305     -9.940   0.240  1.20524E-01  3.46200E-01 -2.25675E-01
    8989.385     -9.861   0.280  1.25017E-01  3.62239E-01 -2.37223E-01
    8989.476     -9.769   0.320  1.29857E-01  3.80021E-01 -2.50164E-01
    8989.580     -9.666   0.360  1.34797E-01  3.99078E-01 -2.64281E-01
    8989.696     -9.550   0.400  1.39465E-01  4.18887E-01 -2.79421E-01
    8989.824     -9.422   0.440  1.43461E-01  4.38990E-01 -2.95528E-01
    8989.964     -9.282   0.480  1.46472E-01  4.59030E-01 -3.12559E-01
    8990.116     -9.129   0.520  1.48316E-01  4.78741E-01 -3.30425E-01
    8990.281     -8.965   0.560  1.49128E-01  4.98014E-01 -3.48886E-01
    8990.458     -8.788   0.600  1.49237E-01  5.16815E-01 -3.67579E-01
    8990.647     -8.599   0.640  1.48986E-01  5.35172E-01 -3.86186E-01
    8990.848     -8.398   0.680  1.48815E-01  5.53160E-01 -4.04345E-01
    8991.061     -8.185   0.720  1.49327E-01  5.70850E-01 -4.21522E-01
    8991.287     -7.959   0.760  1.51218E-01  5.88264E-01 -4.37046E-01
    8991.524     -7.721   0.800  1.55369E-01  6.05501E-01 -4.50132E-01
    8991.774     -7.471   0.840  1.62574E-01  6.22584E-01 -4.60011E-01
    8992.036     -7.209   0.880  1.73628E-01  6.39524E-01 -4.65897E-01
    8992.311     -6.935   0.920  1.89447E-01  6.56361E-01 -4.66914E-01
    8992.597     -6.648   0.960  2.11023E-01  6.73061E-01 -4.62037E-01
    8992.896     -6.350   1.000  2.39215E-01  6.89642E-01 -4.50427E-01
    8993.207     -6.039   1.040  2.74121E-01  7.06054E-01 -4.31933E-01
    8993.530     -5.716   1.080  3.14624E-01  7.22301E-01 -4.07676E-01
    8993.865     -5.380   1.120  3.58382E-01  7.38339E-01 -3.79957E-01
    8994.213     -5.033   1.160  4.02834E-01  7.54123E-01 -3.51289E-01
    8994.572     -4.673   1.200  4.45108E-01  7.69645E-01 -3.24537E-01
    8994.944     -4.301   1.240  4.81106E-01  7.84832E-01 -3.03726E-01
    8995.328     -3.917   1.280  5.09799E-01  7.99651E-01 -2.89853E-01
    8995.725     -3.521   1.320  5.36002E-01  8.14091E-01 -2.78089E-01
    8996.133     -3.113   1.360  5.65494E-01  8.28097E-01 -2.62603E-01
    8996.554     -2.692   1.400  6.02834E-01  8.41638E-01 -2.38803E-01
    8996.986     -2.259   1.440  6.54202E-01  8.54680E-01 -2.00479E-01
    8997.431     -1.814   1.480  7.21758E-01  8.67215E-01 -1.45457E-01
    8997.889     -1.357   1.520  7.92604E-01  8.79193E-01 -8.65892E-02
    8998.358     -0.888   1.560  8.56845E-01  8.90605E-01 -3.37601E-02
    8998.840     -0.406   1.600  9.38799E-01  9.01449E-01  3.73500E-02
    8999.333      0.088   1.640  1.07114E+00  9.11719E-01  1.59426E-01
    8999.839      0.594   1.680  1.23655E+00  9.21373E-01  3.15178E-01
    9000.357      1.112   1.720  1.35338E+00  9.30431E-01  4.22946E-01
    9000.888      1.642   1.760  1.38115E+00  9.38895E-01  4.42255E-01
    9001.430      2.185   1.800  1.40977E+00  9.46769E-01  4.63005E-01
    9001.985      2.739   1.840  1.50102E+00  9.54079E-01  5.46944E-01
    9002.552      3.306   1.880  1.60585E+00  9.60790E-01  6.45061E-01
    9003.131      3.885   1.920  1.63211E+00  9.66950E-01  6.65155E-01
    9003.722      4.477   1.960  1.54353E+00  9.72590E-01  5.70937E-01
    9004.326      5.080   2.000  1.39997E+00  9.77698E-01  4.22268E-01
    9004.942      5.696   2.040  1.26756E+00  9.82305E-01  2.85254E-01
    9005.570      6.324   2.080  1.16968E+00  9.86424E-01  1.83254E-01
    9006.210      6.964   2.120  1.10234E+00  9.90105E-01  1.12232E-01
    9006.862      7.616   2.160  1.05804E+00  9.93341E-01  6.46953E-02
    9007.526      8.281   2.200  1.03374E+00  9.96167E-01  3.75715E-02
    9008.203      8.957   2.240  1.02356E+00  9.98614E-01  2.49489E-02
    9008.892      9.646   2.280  1.00986E+00  1.00072E+00  9.14322E-03
    9009.593     10.347   2.320  9.79224E-01  1.00246E+00 -2.32408E-02
    9010.306     11.060   2.360  9.56431E-01  1.00391E+00 -4.74829E-02
    9011.032     11.786   2.400  9.52289E-01  1.00510E+00 -5.28075E-02
    9011.769     12.523   2.440  9.60314E-01  1.00600E+00 -4.56878E-02
    9012.519     13.273   2.480  9.76045E-01  1.00667E+00 -3.06201E-02
    9013.281     14.035   2.520  9.95891E-01  1.00712E+00 -1.12261E-02
    9014.055     14.809   2.560  1.01557E+00  1.00739E+00  8.18606E-03
    9014.842     15.596   2.600  1.03094E+00  1.00747E+00  2.34682E-02
    9015.640     16.394   2.640  1.03929E+00  1.00741E+00  3.18751E-02
    9016.451     17.205   2.680  1.03979E+00  1.00722E+00  3.25638E-02
    9017.274     18.028   2.720  1.03281E+00  1.00689E+00  2.59163E-02
    9018.109     18.863   2.760  1.01979E+00  1.00649E+00  1.32972E-02
    9018.956     19.711   2.800  1.00203E+00  1.00599E+00 -3.95317E-03
    9019.816     20.570   2.840  9.81367E-01  1.00543E+00 -2.40588E-02
    9020.688     21.442   2.880  9.59765E-01  1.00482E+00 -4.50516E-02
    9021.571     22.326   2.920  9.38709E-01  1.00416E+00 -6.54550E-02
    9022.468     23.222   2.960  9.19322E-01  1.00347E+00 -8.41528E-02
    9023.376     24.130   3.000  9.02230E-01  1.00275E+00 -1.00523E-01
    9024.296     25.051   3.040  8.87786E-01  1.00205E+00 -1.14260E-01
    9025.229     25.983   3.080  8.76349E-01  1.00132E+00 -1.24970E-01
    9026.174     26.928   3.120  8.68233E-01  1.00061E+00 -1.32381E-01
    9027.131     27.885   3.160  8.63502E-01  9.99916E-01 -1.36415E-01
    9028.100     28.855   3.200  8.62229E-01  9.99250E-01 -1.37021E-01
    9029.082     29.836   3.240  8.64420E-01  9.98596E-01 -1.34176E-01
    9030.075     30.830   3.280  8.69629E-01  9.98001E-01 -1.28373E-01
    9031.081     31.836   3.320  8.77142E-01  9.97425E-01 -1.20283E-01
    9032.099     32.854   3.360  8.86461E-01  9.96909E-01 -1.10448E-01
    9033.129     33.884   3.400  8.97237E-01  9.96417E-01 -9.91797E-02
    9034.172     34.926   3.440  9.09291E-01  9.96012E-01 -8.67209E-02
    9035.226     35.981   3.480  9.22587E-01  9.95631E-01 -7.30430E-02
    9036.293     37.048   3.520  9.37318E-01  9.95316E-01 -5.79978E-02
    9037.372     38.127   3.560  9.53417E-01  9.95048E-01 -4.16312E-02
    9038.463     39.218   3.600  9.70494E-01  9.94827E-01 -2.43327E-02
    9039.567     40.321   3.640  9.87931E-01  9.94675E-01 -6.74387E-03
    9040.682     41.437   3.680  1.00481E+00  9.94572E-01  1.02414E-02
    9041.810     42.564   3.720  1.02029E+00  9.94540E-01  2.57525E-02
    9042.950     43.704   3.760  1.03375E+00  9.94575E-01  3.91731E-02
    9044.102     44.857   3.800  1.04470E+00  9.94636E-01  5.00651E-02
    9045.267     46.021   3.840  1.05285E+00  9.94763E-01  5.80841E-02
    9046.443     47.197   3.880  1.05804E+00  9.94936E-01  6.30997E-02
    9047.632     48.386   3.920  1.06059E+00  9.95175E-01  6.54125E-02
    9048.833     49.587   3.960  1.06099E+00  9.95435E-01  6.55561E-02
    9050.046     50.800   4.000  1.05981E+00  9.95759E-01  6.40486E-02
    9051.271     52.025   4.040  1.05718E+00  9.96125E-01  6.10590E-02
    9052.509     53.263   4.080  1.05308E+00  9.96530E-01  5.65533E-02
    9053.758     54.513   4.120  1.04766E+00  9.96950E-01  5.07146E-02
    9055.020     55.774   4.160  1.04177E+00  9.97428E-01  4.43450E-02
    9056.294     57.048   4.200  1.03654E+00  9.97921E-01  3.86148E-02
    9057.580     58.335   4.240  1.03297E+00  9.98448E-01  3.45256E-02
    9058.879     59.633   4.280  1.03159E+00  9.99006E-01  3.25869E-02
    9060.189     60.944   4.320  1.03232E+00  9.99574E-01  3.27438E-02
    9061.512     62.267   4.360  1.03468E+00  1.00017E+00  3.45085E-02
    9062.847     63.602   4.400  1.03803E+00  1.00075E+00  3.72820E-02
    9064.195     64.949   4.440  1.04192E+00  1.00135E+00  4.05748E-02
    9065.554     66.308   4.480  1.04607E+00  1.00198E+00  4.40903E-02
    9066.926     67.680   4.520  1.05021E+00  1.00258E+00  4.76241E-02
    9068.309     69.064   4.560  1.05410E+00  1.00318E+00  5.09188E-02
    9069.705     70.460   4.600  1.05719E+00  1.00378E+00  5.34042E-02
    9071.113     71.868   4.640  1.05861E+00  1.00438E+00  5.42316E-02
    9072.534     73.288   4.680  1.05737E+00  1.00494E+00  5.24341E-02
    9073.966     74.721   4.720  1.05266E+00  1.00550E+00  4.71613E-02
    9075.411     76.165   4.760  1.04399E+00  1.00604E+00  3.79478E-02
    9076.868     77.622   4.800  1.03155E+00  1.00656E+00  2.49920E-02
    9078.337     79.092   4.840  1.01639E+00  1.00706E+00  9.32654E-03
    9079.819     80.573   4.880  1.00027E+00  1.00751E+00 -7.24195E-03
    9081.312     82.066   4.920  9.85363E-01  1.00796E+00 -2.25964E-02
    9082.818     83.572   4.960  9.73427E-01  1.00835E+00 -3.49259E-02
    9084.336     85.090   5.000  9.65670E-01  1.00873E+00 -4.30592E-02
    9085.866     86.620   5.040  9.62377E-01  1.00904E+00 -4.66669E-02
    9087.408     88.162   5.080  9.63203E-01  1.00934E+00 -4.61365E-02
    9088.962     89.717   5.120  9.67049E-01  1.00959E+00 -4.25458E-02
    9090.529     91.283   5.160  9.72304E-01  1.00979E+00 -3.74828E-02
    9092.108     92.862   5.200  9.77291E-01  1.00996E+00 -3.26685E-02
    9093.699     94.453   5.240  9.80607E-01  1.01009E+00 -2.94840E-02
    9095.302     96.057   5.280  9.81513E-01  1.01018E+00 -2.86663E-02
    9096.918     97.672   5.320  9.79951E-01  1.01020E+00 -3.02521E-02
    9098.545     99.300   5.360  9.76579E-01  1.01021E+00 -3.36265E-02
    9100.185    100.939   5.400  9.72348E-01  1.01014E+00 -3.77960E-02
    9101.837    102.592   5.440  9.68321E-01  1.01006E+00 -4.17425E-02
    9103.501    104.256   5.480  9.65199E-01  1.00992E+00 -4.47191E-02
    9105.178    105.932   5.520  9.63452E-01  1.00975E+00 -4.63019E-02
    9106.866    107.621   5.560  9.63227E-01  1.00953E+00 -4.63023E-02
    9108.567    109.321   5.600  9.64704E-01  1.00929E+00 -4.45818E-02
    9110.280    111.034   5.640  9.67962E-01  1.00900E+00 -4.10394E-02
    9112.005    112.760   5.680  9.72644E-01  1.00866E+00 -3.60122E-02
    9113.743    114.497   5.720  9.78365E-01  1.00829E+00 -2.99296E-02
    9115.492    116.246   5.760  9.84367E-01  1.00790E+00 -2.35301E-02
    9117.254    118.008   5.800  9.90024E-01  1.00747E+00 -1.74417E-02
    9119.028    119.782   5.840  9.95075E-01  1.00702E+00 -1.19497E-02
    9120.814    121.568   5.880  9.99590E-01  1.00655E+00 -6.96362E-03
    9122.612    123.367   5.920  1.00396E+00  1.00605E+00 -2.08884E-03
    9124.423    125.177   5.960  1.00868E+00  1.00555E+00  3.12895E-03
    9126.245    127.000   6.000  1.01444E+00  1.00500E+00  9.43278E-03
