# # comment:                                                     FEFF 9.9.1  
# # Source:
# # Structure
# # Reduced
# # space
# # abc:
# # angles:
# # sites:
# # POT  SCF 100  7.0000   0, screened core-hole, AFOLP (folp(0)= 1.150)
# # Abs   Z=29 Rmt= 1.231 Rnm= 1.302 K  shell
# # Pot 1 Z=27 Rmt= 1.154 Rnm= 1.291
# # Pot 2 Z=29 Rmt= 1.169 Rnm= 1.271
# # Pot 3 Z= 8 Rmt= 1.004 Rnm= 1.108
# # Gam_ch=1.729E+00 H-L exch Vi= 0.000E+00 Vr= 0.000E+00
# # Mu=-7.780E+00eV kf=2.207E+00 Vint=-1.548E+01eV Rs_int= 1.644
# FMS rfms= 9.0000
# # PATH  Rmax=-1.000,  Keep_limit= 0.00, Heap_limit 0.00  Pwcrit= 2.50%
#  S02=0.950  Temp=   0.00  Debye_temp=   0.00  Global_sig2= 0.00000
#  Energy zero shift, vr, vi    0.00000E+00   0.00000E+00
#  Curved wave amplitude ratio filter   4.000%
#     file         sig2 tot  cw amp ratio   deg  nlegs   reff  inp sig2
#     0/   0 paths used
#  xsedge+ 50, used to normalize mu           2.4385E-04
#  -----------------------------------------------------------------------
#  omega    e    k    mu    mu0     chi     @#
    8983.877    -11.590  -1.000  3.28487E-02  5.47592E-02 -2.19104E-02
    8984.176    -11.291  -0.960  3.43625E-02  5.87214E-02 -2.43589E-02
    8984.463    -11.005  -0.920  3.59921E-02  6.31204E-02 -2.71283E-02
    8984.737    -10.731  -0.880  3.77545E-02  6.80198E-02 -3.02654E-02
    8984.999    -10.469  -0.840  3.96700E-02  7.34938E-02 -3.38238E-02
    8985.249    -10.219  -0.800  4.17631E-02  7.96280E-02 -3.78649E-02
    8985.487     -9.981  -0.760  4.40627E-02  8.65208E-02 -4.24581E-02
    8985.712     -9.755  -0.720  4.66025E-02  9.42829E-02 -4.76804E-02
    8985.926     -9.542  -0.680  4.94208E-02  1.03037E-01 -5.36157E-02
    8986.127     -9.341  -0.640  5.25593E-02  1.12910E-01 -6.03508E-02
    8986.316     -9.152  -0.600  5.60602E-02  1.24030E-01 -6.79696E-02
    8986.493     -8.975  -0.560  5.99613E-02  1.36503E-01 -7.65415E-02
    8986.657     -8.810  -0.520  6.42875E-02  1.50393E-01 -8.61051E-02
    8986.810     -8.658  -0.480  6.90389E-02  1.65684E-01 -9.66449E-02
    8986.950     -8.518  -0.440  7.41775E-02  1.82243E-01 -1.08065E-01
    8987.078     -8.390  -0.400  7.96145E-02  1.99783E-01 -1.20168E-01
    8987.194     -8.274  -0.360  8.52066E-02  2.17855E-01 -1.32648E-01
    8987.297     -8.170  -0.320  9.07645E-02  2.35875E-01 -1.45110E-01
    8987.389     -8.079  -0.280  9.60771E-02  2.53193E-01 -1.57116E-01
    8987.468     -8.000  -0.240  1.00943E-01  2.69184E-01 -1.68241E-01
    8987.535     -7.933  -0.200  1.05200E-01  2.83324E-01 -1.78124E-01
    8987.590     -7.878  -0.160  1.08739E-01  2.95225E-01 -1.86485E-01
    8987.632     -7.835  -0.120  1.11507E-01  3.04637E-01 -1.93130E-01
    8987.663     -7.805  -0.080  1.13487E-01  3.11422E-01 -1.97935E-01
    8987.687     -7.780   0.000  1.15083E-01  3.16876E-01 -2.01793E-01
    8987.742     -7.725   0.120  1.18434E-01  3.29180E-01 -2.10746E-01
    8987.785     -7.683   0.160  1.20946E-01  3.38746E-01 -2.17800E-01
    8987.840     -7.628   0.200  1.24023E-01  3.50990E-01 -2.26967E-01
    8987.907     -7.561   0.240  1.27431E-01  3.65718E-01 -2.38287E-01
    8987.986     -7.482   0.280  1.30915E-01  3.82674E-01 -2.51759E-01
    8988.078     -7.390   0.320  1.34059E-01  4.01449E-01 -2.67390E-01
    8988.181     -7.286   0.360  1.36394E-01  4.21512E-01 -2.85118E-01
    8988.297     -7.171   0.400  1.37462E-01  4.42298E-01 -3.04836E-01
    8988.425     -7.043   0.440  1.37129E-01  4.63329E-01 -3.26200E-01
    8988.565     -6.902   0.480  1.35500E-01  4.84176E-01 -3.48676E-01
    8988.718     -6.750   0.520  1.33182E-01  5.04612E-01 -3.71430E-01
    8988.882     -6.585   0.560  1.30842E-01  5.24462E-01 -3.93620E-01
    8989.059     -6.409   0.600  1.29250E-01  5.43751E-01 -4.14502E-01
    8989.248     -6.220   0.640  1.28782E-01  5.62449E-01 -4.33667E-01
    8989.449     -6.018   0.680  1.29749E-01  5.80682E-01 -4.50933E-01
    8989.662     -5.805   0.720  1.32143E-01  5.98486E-01 -4.66342E-01
    8989.888     -5.580   0.760  1.35990E-01  6.15956E-01 -4.79967E-01
    8990.126     -5.342   0.800  1.41268E-01  6.33139E-01 -4.91871E-01
    8990.376     -5.092   0.840  1.48050E-01  6.50105E-01 -5.02056E-01
    8990.638     -4.830   0.880  1.56311E-01  6.66854E-01 -5.10543E-01
    8990.912     -4.555   0.920  1.66241E-01  6.83452E-01 -5.17211E-01
    8991.199     -4.269   0.960  1.77934E-01  6.99850E-01 -5.21915E-01
    8991.497     -3.970   1.000  1.91296E-01  7.16072E-01 -5.24777E-01
    8991.808     -3.659   1.040  2.06050E-01  7.32115E-01 -5.26065E-01
    8992.131     -3.336   1.080  2.22705E-01  7.47943E-01 -5.25238E-01
    8992.467     -3.001   1.120  2.42831E-01  7.63519E-01 -5.20688E-01
    8992.814     -2.653   1.160  2.68352E-01  7.78841E-01 -5.10490E-01
    8993.174     -2.294   1.200  3.00794E-01  7.93843E-01 -4.93049E-01
    8993.546     -1.922   1.240  3.40876E-01  8.08517E-01 -4.67641E-01
    8993.930     -1.538   1.280  3.86791E-01  8.22832E-01 -4.36041E-01
    8994.326     -1.142   1.320  4.33969E-01  8.36736E-01 -4.02767E-01
    8994.734     -0.733   1.360  4.80922E-01  8.50200E-01 -3.69278E-01
    8995.155     -0.313   1.400  5.32347E-01  8.63193E-01 -3.30846E-01
    8995.588      0.120   1.440  5.94802E-01  8.75705E-01 -2.80904E-01
    8996.033      0.565   1.480  6.76036E-01  8.87687E-01 -2.11651E-01
    8996.490      1.022   1.520  7.89620E-01  8.99129E-01 -1.09509E-01
    8996.959      1.492   1.560  9.45402E-01  9.10028E-01  3.53743E-02
    8997.441      1.973   1.600  1.12566E+00  9.20336E-01  2.05322E-01
    8997.935      2.467   1.640  1.27351E+00  9.30072E-01  3.43439E-01
    8998.441      2.973   1.680  1.33183E+00  9.39235E-01  3.92598E-01
    8998.959      3.491   1.720  1.31160E+00  9.47804E-01  3.63792E-01
    8999.489      4.022   1.760  1.28108E+00  9.55761E-01  3.25319E-01
    9000.032      4.564   1.800  1.28369E+00  9.63149E-01  3.20537E-01
    9000.586      5.119   1.840  1.31822E+00  9.69974E-01  3.48247E-01
    9001.153      5.686   1.880  1.37387E+00  9.76223E-01  3.97643E-01
    9001.732      6.265   1.920  1.42536E+00  9.81924E-01  4.43441E-01
    9002.324      6.856   1.960  1.46255E+00  9.87106E-01  4.75441E-01
    9002.927      7.460   2.000  1.50485E+00  9.91758E-01  5.13094E-01
    9003.543      8.075   2.040  1.55859E+00  9.95931E-01  5.62656E-01
    9004.171      8.703   2.080  1.61974E+00  9.99614E-01  6.20126E-01
    9004.811      9.343   2.120  1.65861E+00  1.00284E+00  6.55767E-01
    9005.463      9.996   2.160  1.61907E+00  1.00565E+00  6.13429E-01
    9006.128     10.660   2.200  1.48570E+00  1.00804E+00  4.77658E-01
    9006.804     11.337   2.240  1.30902E+00  1.01007E+00  2.98948E-01
    9007.493     12.026   2.280  1.16121E+00  1.01172E+00  1.49486E-01
    9008.194     12.727   2.320  1.06959E+00  1.01306E+00  5.65306E-02
    9008.907     13.440   2.360  1.01389E+00  1.01410E+00 -2.06701E-04
    9009.633     14.165   2.400  9.69060E-01  1.01485E+00 -4.57907E-02
    9010.370     14.903   2.440  9.24819E-01  1.01533E+00 -9.05083E-02
    9011.120     15.653   2.480  8.90872E-01  1.01560E+00 -1.24730E-01
    9011.882     16.415   2.520  8.75828E-01  1.01564E+00 -1.39816E-01
    9012.656     17.189   2.560  8.81521E-01  1.01549E+00 -1.33967E-01
    9013.443     17.975   2.600  9.05646E-01  1.01518E+00 -1.09535E-01
    9014.241     18.774   2.640  9.37238E-01  1.01469E+00 -7.74568E-02
    9015.052     19.585   2.680  9.58559E-01  1.01410E+00 -5.55414E-02
    9015.875     20.408   2.720  9.67777E-01  1.01339E+00 -4.56100E-02
    9016.710     21.243   2.760  9.67519E-01  1.01258E+00 -4.50651E-02
    9017.558     22.090   2.800  9.62511E-01  1.01170E+00 -4.91898E-02
    9018.417     22.950   2.840  9.56329E-01  1.01076E+00 -5.44326E-02
    9019.289     23.821   2.880  9.50482E-01  1.00976E+00 -5.92733E-02
    9020.173     24.705   2.920  9.44582E-01  1.00873E+00 -6.41474E-02
    9021.069     25.601   2.960  9.37327E-01  1.00767E+00 -7.03426E-02
    9021.977     26.510   3.000  9.27657E-01  1.00658E+00 -7.89224E-02
    9022.898     27.430   3.040  9.15698E-01  1.00551E+00 -8.98111E-02
    9023.830     28.363   3.080  9.02956E-01  1.00444E+00 -1.01487E-01
    9024.775     29.308   3.120  8.91316E-01  1.00341E+00 -1.12091E-01
    9025.732     30.265   3.160  8.81961E-01  1.00238E+00 -1.20421E-01
    9026.702     31.234   3.200  8.75144E-01  1.00139E+00 -1.26249E-01
    9027.683     32.215   3.240  8.70559E-01  1.00047E+00 -1.29906E-01
    9028.677     33.209   3.280  8.67802E-01  9.99559E-01 -1.31757E-01
    9029.683     34.215   3.320  8.67061E-01  9.98718E-01 -1.31657E-01
    9030.701     35.233   3.360  8.68644E-01  9.97923E-01 -1.29279E-01
    9031.731     36.263   3.400  8.72519E-01  9.97178E-01 -1.24659E-01
    9032.773     37.306   3.440  8.78483E-01  9.96505E-01 -1.18021E-01
    9033.828     38.360   3.480  8.86254E-01  9.95906E-01 -1.09652E-01
    9034.895     39.427   3.520  8.95677E-01  9.95382E-01 -9.97045E-02
    9035.974     40.506   3.560  9.06701E-01  9.94913E-01 -8.82120E-02
    9037.065     41.597   3.600  9.19657E-01  9.94520E-01 -7.48634E-02
    9038.168     42.701   3.640  9.34755E-01  9.94205E-01 -5.94493E-02
    9039.284     43.816   3.680  9.52060E-01  9.93965E-01 -4.19045E-02
    9040.411     44.944   3.720  9.71470E-01  9.93781E-01 -2.23108E-02
    9041.551     46.084   3.760  9.92765E-01  9.93697E-01 -9.32490E-04
    9042.704     47.236   3.800  1.01525E+00  9.93668E-01  2.15835E-02
    9043.868     48.400   3.840  1.03813E+00  9.93713E-01  4.44144E-02
    9045.044     49.577   3.880  1.06063E+00  9.93811E-01  6.68155E-02
    9046.233     50.766   3.920  1.08209E+00  9.94005E-01  8.80853E-02
    9047.434     51.966   3.960  1.10183E+00  9.94230E-01  1.07603E-01
    9048.647     53.180   4.000  1.11941E+00  9.94549E-01  1.24861E-01
    9049.872     54.405   4.040  1.13397E+00  9.94919E-01  1.39051E-01
    9051.110     55.642   4.080  1.14419E+00  9.95335E-01  1.48858E-01
    9052.360     56.892   4.120  1.14864E+00  9.95819E-01  1.52826E-01
    9053.621     58.154   4.160  1.14622E+00  9.96349E-01  1.49872E-01
    9054.895     59.428   4.200  1.13674E+00  9.96923E-01  1.39821E-01
    9056.182     60.714   4.240  1.12107E+00  9.97537E-01  1.23533E-01
    9057.480     62.013   4.280  1.10102E+00  9.98212E-01  1.02808E-01
    9058.791     63.323   4.320  1.07873E+00  9.98903E-01  7.98290E-02
    9060.114     64.646   4.360  1.05643E+00  9.99607E-01  5.68274E-02
    9061.449     65.981   4.400  1.03595E+00  1.00037E+00  3.55862E-02
    9062.796     67.328   4.440  1.01815E+00  1.00114E+00  1.70180E-02
    9064.155     68.688   4.480  1.00307E+00  1.00191E+00  1.15862E-03
    9065.527     70.059   4.520  9.90248E-01  1.00272E+00 -1.24686E-02
    9066.911     71.443   4.560  9.79105E-01  1.00353E+00 -2.44205E-02
    9068.307     72.839   4.600  9.69427E-01  1.00436E+00 -3.49316E-02
    9069.715     74.247   4.640  9.61394E-01  1.00517E+00 -4.37754E-02
    9071.135     75.668   4.680  9.55486E-01  1.00597E+00 -5.04884E-02
    9072.568     77.100   4.720  9.52085E-01  1.00677E+00 -5.46888E-02
    9074.012     78.545   4.760  9.51196E-01  1.00754E+00 -5.63481E-02
    9075.469     80.002   4.800  9.52376E-01  1.00831E+00 -5.59305E-02
    9076.939     81.471   4.840  9.54873E-01  1.00906E+00 -5.41855E-02
    9078.420     82.952   4.880  9.57945E-01  1.00978E+00 -5.18302E-02
    9079.913     84.446   4.920  9.61226E-01  1.01046E+00 -4.92287E-02
    9081.419     85.951   4.960  9.64957E-01  1.01110E+00 -4.61404E-02
    9082.937     87.469   5.000  9.69866E-01  1.01172E+00 -4.18574E-02
    9084.467     88.999   5.040  9.76671E-01  1.01231E+00 -3.56377E-02
    9086.009     90.542   5.080  9.85604E-01  1.01283E+00 -2.72259E-02
    9087.564     92.096   5.120  9.96168E-01  1.01333E+00 -1.71609E-02
    9089.130     93.663   5.160  1.00718E+00  1.01376E+00 -6.57683E-03
    9090.709     95.242   5.200  1.01748E+00  1.01415E+00  3.32876E-03
    9092.300     96.833   5.240  1.02621E+00  1.01449E+00  1.17234E-02
    9093.904     98.436   5.280  1.03298E+00  1.01478E+00  1.81940E-02
    9095.519    100.051   5.320  1.03752E+00  1.01501E+00  2.25156E-02
    9097.147    101.679   5.360  1.03975E+00  1.01519E+00  2.45605E-02
    9098.786    103.319   5.400  1.03981E+00  1.01532E+00  2.44907E-02
    9100.439    104.971   5.440  1.03832E+00  1.01537E+00  2.29470E-02
    9102.103    106.635   5.480  1.03609E+00  1.01538E+00  2.07038E-02
    9103.779    108.312   5.520  1.03336E+00  1.01532E+00  1.80402E-02
    9105.468    110.000   5.560  1.02977E+00  1.01523E+00  1.45303E-02
    9107.168    111.701   5.600  1.02448E+00  1.01506E+00  9.42188E-03
    9108.881    113.414   5.640  1.01703E+00  1.01485E+00  2.17762E-03
    9110.607    115.139   5.680  1.00737E+00  1.01458E+00 -7.21137E-03
    9112.344    116.876   5.720  9.96245E-01  1.01427E+00 -1.80219E-02
    9114.093    118.626   5.760  9.85049E-01  1.01391E+00 -2.88578E-02
    9115.855    120.388   5.800  9.75245E-01  1.01348E+00 -3.82336E-02
    9117.629    122.162   5.840  9.67746E-01  1.01301E+00 -4.52645E-02
    9119.415    123.948   5.880  9.62761E-01  1.01253E+00 -4.97694E-02
    9121.214    125.746   5.920  9.60265E-01  1.01199E+00 -5.17255E-02
    9123.024    127.557   5.960  9.60713E-01  1.01142E+00 -5.07024E-02
    9124.847    129.379   6.000  9.65341E-01  1.01080E+00 -4.54615E-02
