# # comment:                                                     FEFF 9.9.1  
# # Source:
# # Structure
# # Reduced
# # space
# # abc:
# # angles:
# # sites:
# # POT  SCF 100  7.0000   0, screened core-hole, AFOLP (folp(0)= 1.150)
# # Abs   Z=29 Rmt= 1.167 Rnm= 1.335 K  shell
# # Pot 1 Z=55 Rmt= 2.182 Rnm= 2.219
# # Pot 2 Z=29 Rmt= 1.167 Rnm= 1.335
# # Pot 3 Z= 8 Rmt= 1.021 Rnm= 1.126
# # Gam_ch=1.729E+00 H-L exch Vi= 0.000E+00 Vr= 0.000E+00
# # Mu=-7.282E+00eV kf=1.877E+00 Vint=-1.434E+01eV Rs_int= 1.933
# FMS rfms= 9.0000
# # PATH  Rmax=-1.000,  Keep_limit= 0.00, Heap_limit 0.00  Pwcrit= 2.50%
#  S02=0.950  Temp=   0.00  Debye_temp=   0.00  Global_sig2= 0.00000
#  Energy zero shift, vr, vi    0.00000E+00   0.00000E+00
#  Curved wave amplitude ratio filter   4.000%
#     file         sig2 tot  cw amp ratio   deg  nlegs   reff  inp sig2
#     0/   0 paths used
#  xsedge+ 50, used to normalize mu           2.3919E-04
#  -----------------------------------------------------------------------
#  omega    e    k    mu    mu0     chi     @#
    8984.849    -11.092  -1.000  5.11951E-02  6.18527E-02 -1.06577E-02
    8985.148    -10.793  -0.960  5.47077E-02  6.64384E-02 -1.17308E-02
    8985.434    -10.507  -0.920  5.86039E-02  7.15340E-02 -1.29302E-02
    8985.708    -10.232  -0.880  6.29422E-02  7.72138E-02 -1.42716E-02
    8985.970     -9.970  -0.840  6.77915E-02  8.35641E-02 -1.57726E-02
    8986.220     -9.720  -0.800  7.32323E-02  9.06848E-02 -1.74525E-02
    8986.458     -9.483  -0.760  7.93582E-02  9.86904E-02 -1.93322E-02
    8986.684     -9.257  -0.720  8.62760E-02  1.07710E-01 -2.14338E-02
    8986.897     -9.044  -0.680  9.41049E-02  1.17885E-01 -2.37802E-02
    8987.098     -8.842  -0.640  1.02972E-01  1.29366E-01 -2.63938E-02
    8987.287     -8.654  -0.600  1.13003E-01  1.42298E-01 -2.92946E-02
    8987.464     -8.477  -0.560  1.24309E-01  1.56807E-01 -3.24982E-02
    8987.629     -8.312  -0.520  1.36954E-01  1.72965E-01 -3.60117E-02
    8987.781     -8.160  -0.480  1.50926E-01  1.90756E-01 -3.98299E-02
    8987.921     -8.020  -0.440  1.66094E-01  2.10023E-01 -4.39297E-02
    8988.049     -7.892  -0.400  1.82169E-01  2.30435E-01 -4.82652E-02
    8988.165     -7.776  -0.360  1.98704E-01  2.51468E-01 -5.27640E-02
    8988.269     -7.672  -0.320  2.15118E-01  2.72445E-01 -5.73261E-02
    8988.360     -7.581  -0.280  2.30784E-01  2.92610E-01 -6.18266E-02
    8988.439     -7.501  -0.240  2.45114E-01  3.11237E-01 -6.61229E-02
    8988.506     -7.434  -0.200  2.57646E-01  3.27712E-01 -7.00654E-02
    8988.561     -7.379  -0.160  2.68075E-01  3.41583E-01 -7.35085E-02
    8988.604     -7.337  -0.120  2.76237E-01  3.52559E-01 -7.63223E-02
    8988.634     -7.306  -0.080  2.82067E-01  3.60473E-01 -7.84056E-02
    8988.659     -7.282   0.000  2.86703E-01  3.66836E-01 -8.01332E-02
    8988.714     -7.227   0.120  2.96801E-01  3.81187E-01 -8.43856E-02
    8988.756     -7.184   0.160  3.04608E-01  3.92346E-01 -8.77378E-02
    8988.811     -7.130   0.200  3.14454E-01  4.06644E-01 -9.21903E-02
    8988.878     -7.062   0.240  3.26058E-01  4.23869E-01 -9.78116E-02
    8988.958     -6.983   0.280  3.39054E-01  4.43709E-01 -1.04655E-01
    8989.049     -6.892   0.320  3.52983E-01  4.65698E-01 -1.12715E-01
    8989.153     -6.788   0.360  3.67306E-01  4.89232E-01 -1.21926E-01
    8989.268     -6.672   0.400  3.81539E-01  5.13667E-01 -1.32128E-01
    8989.396     -6.544   0.440  3.95215E-01  5.38429E-01 -1.43214E-01
    8989.537     -6.404   0.480  4.07826E-01  5.63051E-01 -1.55225E-01
    8989.689     -6.252   0.520  4.18730E-01  5.87224E-01 -1.68494E-01
    8989.854     -6.087   0.560  4.27220E-01  6.10791E-01 -1.83571E-01
    8990.030     -5.910   0.600  4.33031E-01  6.33687E-01 -2.00656E-01
    8990.219     -5.721   0.640  4.37046E-01  6.55940E-01 -2.18895E-01
    8990.421     -5.520   0.680  4.41635E-01  6.77620E-01 -2.35985E-01
    8990.634     -5.307   0.720  4.49984E-01  6.98766E-01 -2.48783E-01
    8990.859     -5.081   0.760  4.65047E-01  7.19478E-01 -2.54432E-01
    8991.097     -4.844   0.800  4.88400E-01  7.39800E-01 -2.51401E-01
    8991.347     -4.594   0.840  5.19665E-01  7.59743E-01 -2.40078E-01
    8991.609     -4.331   0.880  5.56262E-01  7.79342E-01 -2.23080E-01
    8991.884     -4.057   0.920  5.93831E-01  7.98597E-01 -2.04766E-01
    8992.170     -3.771   0.960  6.27546E-01  8.17472E-01 -1.89926E-01
    8992.469     -3.472   1.000  6.53509E-01  8.35963E-01 -1.82455E-01
    8992.780     -3.161   1.040  6.70078E-01  8.54015E-01 -1.83936E-01
    8993.103     -2.838   1.080  6.78418E-01  8.71607E-01 -1.93189E-01
    8993.438     -2.503   1.120  6.80626E-01  8.88671E-01 -2.08045E-01
    8993.786     -2.155   1.160  6.78585E-01  9.05178E-01 -2.26593E-01
    8994.145     -1.796   1.200  6.74675E-01  9.21075E-01 -2.46400E-01
    8994.517     -1.424   1.240  6.72313E-01  9.36308E-01 -2.63995E-01
    8994.901     -1.040   1.280  6.75419E-01  9.50865E-01 -2.75446E-01
    8995.297     -0.643   1.320  6.87640E-01  9.64672E-01 -2.77032E-01
    8995.706     -0.235   1.360  7.11285E-01  9.77717E-01 -2.66432E-01
    8996.126      0.186   1.400  7.45537E-01  9.89973E-01 -2.44435E-01
    8996.559      0.618   1.440  7.86377E-01  1.00139E+00 -2.15014E-01
    8997.004      1.063   1.480  8.31190E-01  1.01199E+00 -1.80797E-01
    8997.461      1.521   1.520  8.83686E-01  1.02174E+00 -1.38054E-01
    8997.931      1.990   1.560  9.36395E-01  1.03066E+00 -9.42600E-02
    8998.412      2.472   1.600  9.83220E-01  1.03873E+00 -5.55139E-02
    8998.906      2.965   1.640  1.02118E+00  1.04598E+00 -2.48073E-02
    8999.412      3.471   1.680  1.04972E+00  1.05242E+00 -2.70057E-03
    8999.930      3.990   1.720  1.07199E+00  1.05806E+00  1.39269E-02
    9000.461      4.520   1.760  1.09301E+00  1.06293E+00  3.00781E-02
    9001.003      5.062   1.800  1.11639E+00  1.06707E+00  4.93149E-02
    9001.558      5.617   1.840  1.14398E+00  1.07049E+00  7.34881E-02
    9002.125      6.184   1.880  1.17448E+00  1.07325E+00  1.01232E-01
    9002.704      6.763   1.920  1.20011E+00  1.07537E+00  1.24743E-01
    9003.295      7.355   1.960  1.21663E+00  1.07689E+00  1.39739E-01
    9003.899      7.958   2.000  1.23045E+00  1.07786E+00  1.52589E-01
    9004.514      8.574   2.040  1.22727E+00  1.07831E+00  1.48961E-01
    9005.142      9.202   2.080  1.20865E+00  1.07828E+00  1.30372E-01
    9005.782      9.842   2.120  1.20312E+00  1.07780E+00  1.25320E-01
    9006.435     10.494   2.160  1.20562E+00  1.07692E+00  1.28698E-01
    9007.099     11.158   2.200  1.19721E+00  1.07570E+00  1.21513E-01
    9007.776     11.835   2.240  1.18244E+00  1.07414E+00  1.08303E-01
    9008.465     12.524   2.280  1.18047E+00  1.07228E+00  1.08194E-01
    9009.166     13.225   2.320  1.19991E+00  1.07017E+00  1.29743E-01
    9009.879     13.938   2.360  1.21929E+00  1.06784E+00  1.51453E-01
    9010.604     14.664   2.400  1.23331E+00  1.06533E+00  1.67983E-01
    9011.342     15.401   2.440  1.24020E+00  1.06265E+00  1.77555E-01
    9012.092     16.151   2.480  1.23808E+00  1.05984E+00  1.78239E-01
    9012.854     16.913   2.520  1.22568E+00  1.05691E+00  1.68772E-01
    9013.628     17.687   2.560  1.20405E+00  1.05392E+00  1.50133E-01
    9014.414     18.474   2.600  1.17645E+00  1.05086E+00  1.25589E-01
    9015.213     19.272   2.640  1.14693E+00  1.04777E+00  9.91601E-02
    9016.024     20.083   2.680  1.11768E+00  1.04466E+00  7.30175E-02
    9016.847     20.906   2.720  1.09023E+00  1.04157E+00  4.86597E-02
    9017.682     21.741   2.760  1.06575E+00  1.03848E+00  2.72709E-02
    9018.529     22.588   2.800  1.04483E+00  1.03543E+00  9.39626E-03
    9019.389     23.448   2.840  1.02754E+00  1.03243E+00 -4.88054E-03
    9020.260     24.320   2.880  1.01346E+00  1.02947E+00 -1.60062E-02
    9021.144     25.204   2.920  1.00151E+00  1.02661E+00 -2.51021E-02
    9022.040     26.100   2.960  9.90819E-01  1.02382E+00 -3.29997E-02
    9022.949     27.008   3.000  9.80900E-01  1.02113E+00 -4.02316E-02
    9023.869     27.928   3.040  9.71648E-01  1.01853E+00 -4.68837E-02
    9024.802     28.861   3.080  9.63424E-01  1.01605E+00 -5.26267E-02
    9025.747     29.806   3.120  9.56773E-01  1.01369E+00 -5.69201E-02
    9026.704     30.763   3.160  9.52068E-01  1.01146E+00 -5.93966E-02
    9027.673     31.732   3.200  9.49507E-01  1.00936E+00 -5.98519E-02
    9028.654     32.714   3.240  9.49102E-01  1.00738E+00 -5.82751E-02
    9029.648     33.707   3.280  9.50634E-01  1.00555E+00 -5.49153E-02
    9030.654     34.713   3.320  9.53544E-01  1.00385E+00 -5.03092E-02
    9031.672     35.731   3.360  9.56979E-01  1.00229E+00 -4.53104E-02
    9032.702     36.762   3.400  9.59968E-01  1.00088E+00 -4.09122E-02
    9033.745     37.804   3.440  9.61565E-01  9.99604E-01 -3.80385E-02
    9034.799     38.859   3.480  9.61306E-01  9.98483E-01 -3.71774E-02
    9035.866     39.925   3.520  9.59177E-01  9.97497E-01 -3.83206E-02
    9036.945     41.004   3.560  9.55534E-01  9.96667E-01 -4.11329E-02
    9038.036     42.095   3.600  9.50803E-01  9.95972E-01 -4.51693E-02
    9039.140     43.199   3.640  9.45565E-01  9.95432E-01 -4.98678E-02
    9040.255     44.314   3.680  9.40388E-01  9.95026E-01 -5.46382E-02
    9041.383     45.442   3.720  9.35767E-01  9.94773E-01 -5.90051E-02
    9042.523     46.582   3.760  9.32155E-01  9.94650E-01 -6.24945E-02
    9043.675     47.734   3.800  9.30044E-01  9.94657E-01 -6.46122E-02
    9044.839     48.899   3.840  9.29834E-01  9.94791E-01 -6.49565E-02
    9046.016     50.075   3.880  9.31783E-01  9.95072E-01 -6.32896E-02
    9047.205     51.264   3.920  9.35943E-01  9.95456E-01 -5.95135E-02
    9048.405     52.465   3.960  9.42163E-01  9.95964E-01 -5.38004E-02
    9049.619     53.678   4.000  9.50003E-01  9.96614E-01 -4.66113E-02
    9050.844     54.903   4.040  9.58798E-01  9.97339E-01 -3.85416E-02
    9052.081     56.141   4.080  9.68069E-01  9.98202E-01 -3.01328E-02
    9053.331     57.390   4.120  9.77368E-01  9.99157E-01 -2.17886E-02
    9054.593     58.652   4.160  9.86475E-01  1.00020E+00 -1.37241E-02
    9055.867     59.926   4.200  9.95220E-01  1.00133E+00 -6.10827E-03
    9057.153     61.212   4.240  1.00335E+00  1.00256E+00  7.84863E-04
    9058.452     62.511   4.280  1.01048E+00  1.00386E+00  6.62594E-03
    9059.762     63.822   4.320  1.01649E+00  1.00522E+00  1.12652E-02
    9061.085     65.144   4.360  1.02157E+00  1.00664E+00  1.49237E-02
    9062.420     66.479   4.400  1.02632E+00  1.00814E+00  1.81879E-02
    9063.767     67.827   4.440  1.03155E+00  1.00968E+00  2.18749E-02
    9065.127     69.186   4.480  1.03794E+00  1.01128E+00  2.66589E-02
    9066.498     70.558   4.520  1.04574E+00  1.01290E+00  3.28407E-02
    9067.882     71.941   4.560  1.05478E+00  1.01456E+00  4.02242E-02
    9069.278     73.337   4.600  1.06442E+00  1.01622E+00  4.81960E-02
    9070.686     74.746   4.640  1.07380E+00  1.01792E+00  5.58879E-02
    9072.107     76.166   4.680  1.08204E+00  1.01961E+00  6.24347E-02
    9073.539     77.598   4.720  1.08842E+00  1.02128E+00  6.71349E-02
    9074.984     79.043   4.760  1.09248E+00  1.02297E+00  6.95067E-02
    9076.441     80.500   4.800  1.09401E+00  1.02463E+00  6.93769E-02
    9077.910     81.969   4.840  1.09331E+00  1.02628E+00  6.70334E-02
    9079.391     83.451   4.880  1.09081E+00  1.02790E+00  6.29123E-02
    9080.885     84.944   4.920  1.08737E+00  1.02950E+00  5.78789E-02
    9082.391     86.450   4.960  1.08383E+00  1.03103E+00  5.27987E-02
    9083.908     87.968   5.000  1.08078E+00  1.03251E+00  4.82713E-02
    9085.438     89.498   5.040  1.07844E+00  1.03395E+00  4.44882E-02
    9086.981     91.040   5.080  1.07647E+00  1.03531E+00  4.11630E-02
    9088.535     92.595   5.120  1.07434E+00  1.03659E+00  3.77469E-02
    9090.102     94.161   5.160  1.07134E+00  1.03782E+00  3.35241E-02
    9091.681     95.740   5.200  1.06683E+00  1.03897E+00  2.78607E-02
    9093.272     97.331   5.240  1.06043E+00  1.04003E+00  2.03978E-02
    9094.875     98.934   5.280  1.05223E+00  1.04101E+00  1.12245E-02
    9096.490    100.550   5.320  1.04282E+00  1.04187E+00  9.43861E-04
    9098.118    102.177   5.360  1.03313E+00  1.04267E+00 -9.54065E-03
    9099.758    103.817   5.400  1.02397E+00  1.04336E+00 -1.93958E-02
    9101.410    105.469   5.440  1.01582E+00  1.04396E+00 -2.81415E-02
    9103.074    107.133   5.480  1.00880E+00  1.04444E+00 -3.56445E-02
    9104.751    108.810   5.520  1.00294E+00  1.04483E+00 -4.18895E-02
    9106.439    110.498   5.560  9.98272E-01  1.04511E+00 -4.68343E-02
    9108.140    112.199   5.600  9.94875E-01  1.04529E+00 -5.04117E-02
    9109.853    113.912   5.640  9.92758E-01  1.04535E+00 -5.25941E-02
    9111.578    115.637   5.680  9.91961E-01  1.04532E+00 -5.33628E-02
    9113.315    117.375   5.720  9.92454E-01  1.04518E+00 -5.27276E-02
    9115.065    119.124   5.760  9.94178E-01  1.04495E+00 -5.07710E-02
    9116.827    120.886   5.800  9.96843E-01  1.04460E+00 -4.77599E-02
    9118.601    122.660   5.840  1.00007E+00  1.04417E+00 -4.41007E-02
    9120.387    124.446   5.880  1.00353E+00  1.04366E+00 -4.01310E-02
    9122.185    126.244   5.920  1.00706E+00  1.04306E+00 -3.59995E-02
    9123.996    128.055   5.960  1.01068E+00  1.04234E+00 -3.16607E-02
    9125.818    129.878   6.000  1.01472E+00  1.04149E+00 -2.67691E-02
