# # comment:                                                     FEFF 9.9.1  
# # Source:
# # Structure
# # Reduced
# # space
# # abc:
# # angles:105.500320
# # sites:
# # POT  SCF 100  7.0000   0, screened core-hole, AFOLP (folp(0)= 1.150)
# # Abs   Z=29 Rmt= 1.183 Rnm= 1.312 K  shell
# # Pot 1 Z=29 Rmt= 1.183 Rnm= 1.312
# # Pot 2 Z=53 Rmt= 1.178 Rnm= 1.463
# # Pot 3 Z= 8 Rmt= 1.048 Rnm= 1.182
# # Gam_ch=1.729E+00 H-L exch Vi= 0.000E+00 Vr= 0.000E+00
# # Mu=-6.838E+00eV kf=2.098E+00 Vint=-1.321E+01eV Rs_int= 1.729
# FMS rfms= 9.0000
# # PATH  Rmax=-1.000,  Keep_limit= 0.00, Heap_limit 0.00  Pwcrit= 2.50%
#  S02=0.950  Temp=   0.00  Debye_temp=   0.00  Global_sig2= 0.00000
#  Energy zero shift, vr, vi    0.00000E+00   0.00000E+00
#  Curved wave amplitude ratio filter   4.000%
#     file         sig2 tot  cw amp ratio   deg  nlegs   reff  inp sig2
#     0/   0 paths used
#  xsedge+ 50, used to normalize mu           2.4132E-04
#  -----------------------------------------------------------------------
#  omega    e    k    mu    mu0     chi     @#
    8983.292    -10.648  -1.000  3.15941E-02  5.67181E-02 -2.51241E-02
    8983.591    -10.349  -0.960  3.29000E-02  6.08034E-02 -2.79033E-02
    8983.878    -10.063  -0.920  3.42759E-02  6.53328E-02 -3.10569E-02
    8984.152     -9.788  -0.880  3.57273E-02  7.03702E-02 -3.46429E-02
    8984.414     -9.526  -0.840  3.72604E-02  7.59896E-02 -3.87292E-02
    8984.664     -9.276  -0.800  3.88823E-02  8.22766E-02 -4.33943E-02
    8984.902     -9.039  -0.760  4.06008E-02  8.93291E-02 -4.87283E-02
    8985.127     -8.813  -0.720  4.24243E-02  9.72573E-02 -5.48331E-02
    8985.341     -8.600  -0.680  4.43616E-02  1.06182E-01 -6.18207E-02
    8985.542     -8.398  -0.640  4.64214E-02  1.16231E-01 -6.98098E-02
    8985.731     -8.210  -0.600  4.86114E-02  1.27529E-01 -7.89172E-02
    8985.908     -8.033  -0.560  5.09365E-02  1.40180E-01 -8.92436E-02
    8986.072     -7.868  -0.520  5.33962E-02  1.54247E-01 -1.00851E-01
    8986.224     -7.716  -0.480  5.59815E-02  1.69712E-01 -1.13731E-01
    8986.365     -7.576  -0.440  5.86711E-02  1.86442E-01 -1.27771E-01
    8986.493     -7.448  -0.400  6.14279E-02  2.04149E-01 -1.42722E-01
    8986.609     -7.332  -0.360  6.41985E-02  2.22386E-01 -1.58188E-01
    8986.712     -7.228  -0.320  6.69161E-02  2.40570E-01 -1.73654E-01
    8986.804     -7.137  -0.280  6.95068E-02  2.58051E-01 -1.88545E-01
    8986.883     -7.057  -0.240  7.18986E-02  2.74204E-01 -2.02306E-01
    8986.950     -6.990  -0.200  7.40284E-02  2.88498E-01 -2.14470E-01
    8987.005     -6.935  -0.160  7.58458E-02  3.00541E-01 -2.24695E-01
    8987.047     -6.893  -0.120  7.73139E-02  3.10076E-01 -2.32762E-01
    8987.078     -6.862  -0.080  7.84080E-02  3.16954E-01 -2.38546E-01
    8987.102     -6.838   0.000  7.93664E-02  3.22487E-01 -2.43120E-01
    8987.157     -6.783   0.120  8.14788E-02  3.34980E-01 -2.53501E-01
    8987.200     -6.740   0.160  8.30309E-02  3.44721E-01 -2.61690E-01
    8987.255     -6.686   0.200  8.49627E-02  3.57178E-01 -2.72215E-01
    8987.322     -6.618   0.240  8.72905E-02  3.72236E-01 -2.84946E-01
    8987.401     -6.539   0.280  8.99565E-02  3.89598E-01 -2.99642E-01
    8987.492     -6.448   0.320  9.29931E-02  4.08924E-01 -3.15931E-01
    8987.596     -6.344   0.360  9.63659E-02  4.29690E-01 -3.33324E-01
    8987.712     -6.228   0.400  1.00060E-01  4.51378E-01 -3.51318E-01
    8987.840     -6.100   0.440  1.04115E-01  4.73492E-01 -3.69377E-01
    8987.980     -5.960   0.480  1.08635E-01  4.95637E-01 -3.87002E-01
    8988.133     -5.808   0.520  1.13852E-01  5.17597E-01 -4.03745E-01
    8988.297     -5.643   0.560  1.20005E-01  5.39195E-01 -4.19191E-01
    8988.474     -5.466   0.600  1.27508E-01  5.60411E-01 -4.32904E-01
    8988.663     -5.277   0.640  1.36787E-01  5.81248E-01 -4.44461E-01
    8988.864     -5.076   0.680  1.48292E-01  6.01757E-01 -4.53465E-01
    8989.077     -4.863   0.720  1.62262E-01  6.22001E-01 -4.59740E-01
    8989.303     -4.637   0.760  1.78320E-01  6.42039E-01 -4.63719E-01
    8989.541     -4.400   0.800  1.95161E-01  6.61857E-01 -4.66696E-01
    8989.791     -4.150   0.840  2.11037E-01  6.81534E-01 -4.70498E-01
    8990.053     -3.887   0.880  2.24838E-01  7.01028E-01 -4.76190E-01
    8990.327     -3.613   0.920  2.37030E-01  7.20346E-01 -4.83315E-01
    8990.614     -3.327   0.960  2.48857E-01  7.39443E-01 -4.90587E-01
    8990.912     -3.028   1.000  2.61021E-01  7.58327E-01 -4.97306E-01
    8991.223     -2.717   1.040  2.73336E-01  7.76914E-01 -5.03578E-01
    8991.546     -2.394   1.080  2.85759E-01  7.95174E-01 -5.09415E-01
    8991.882     -2.059   1.120  2.99543E-01  8.13056E-01 -5.13513E-01
    8992.229     -1.711   1.160  3.17291E-01  8.30480E-01 -5.13189E-01
    8992.589     -1.352   1.200  3.42161E-01  8.47431E-01 -5.05269E-01
    8992.961     -0.980   1.240  3.76624E-01  8.63805E-01 -4.87181E-01
    8993.345     -0.596   1.280  4.21533E-01  8.79607E-01 -4.58075E-01
    8993.741     -0.199   1.320  4.72574E-01  8.94737E-01 -4.22162E-01
    8994.149      0.209   1.360  5.17649E-01  9.09198E-01 -3.91549E-01
    8994.570      0.630   1.400  5.48366E-01  9.22934E-01 -3.74568E-01
    8995.003      1.062   1.440  5.71122E-01  9.35894E-01 -3.64772E-01
    8995.448      1.507   1.480  5.94881E-01  9.48089E-01 -3.53209E-01
    8995.905      1.965   1.520  6.23155E-01  9.59473E-01 -3.36319E-01
    8996.374      2.434   1.560  6.56816E-01  9.70064E-01 -3.13248E-01
    8996.856      2.916   1.600  7.01552E-01  9.79841E-01 -2.78289E-01
    8997.350      3.409   1.640  7.66912E-01  9.88829E-01 -2.21917E-01
    8997.856      3.915   1.680  8.60989E-01  9.96991E-01 -1.36002E-01
    8998.374      4.434   1.720  9.90272E-01  1.00440E+00 -1.41248E-02
    8998.904      4.964   1.760  1.14587E+00  1.01102E+00  1.34849E-01
    8999.447      5.506   1.800  1.29749E+00  1.01688E+00  2.80609E-01
    9000.001      6.061   1.840  1.41697E+00  1.02205E+00  3.94914E-01
    9000.568      6.628   1.880  1.49908E+00  1.02654E+00  4.72539E-01
    9001.147      7.207   1.920  1.54946E+00  1.03036E+00  5.19100E-01
    9001.739      7.799   1.960  1.56941E+00  1.03356E+00  5.35854E-01
    9002.342      8.402   2.000  1.56454E+00  1.03619E+00  5.28352E-01
    9002.958      9.018   2.040  1.54849E+00  1.03828E+00  5.10208E-01
    9003.586      9.646   2.080  1.53160E+00  1.03986E+00  4.91746E-01
    9004.226     10.286   2.120  1.51020E+00  1.04095E+00  4.69255E-01
    9004.878     10.938   2.160  1.47478E+00  1.04163E+00  4.33149E-01
    9005.543     11.602   2.200  1.41983E+00  1.04191E+00  3.77917E-01
    9006.219     12.279   2.240  1.35490E+00  1.04182E+00  3.13084E-01
    9006.908     12.968   2.280  1.30013E+00  1.04141E+00  2.58714E-01
    9007.609     13.669   2.320  1.26178E+00  1.04072E+00  2.21067E-01
    9008.322     14.382   2.360  1.22351E+00  1.03977E+00  1.83744E-01
    9009.048     15.108   2.400  1.17146E+00  1.03858E+00  1.32878E-01
    9009.785     15.845   2.440  1.11557E+00  1.03721E+00  7.83674E-02
    9010.535     16.595   2.480  1.07166E+00  1.03569E+00  3.59753E-02
    9011.297     17.357   2.520  1.05273E+00  1.03399E+00  1.87355E-02
    9012.071     18.131   2.560  1.05300E+00  1.03219E+00  2.08081E-02
    9012.858     18.918   2.600  1.05633E+00  1.03031E+00  2.60202E-02
    9013.656     19.716   2.640  1.05741E+00  1.02837E+00  2.90404E-02
    9014.467     20.527   2.680  1.05665E+00  1.02636E+00  3.02877E-02
    9015.290     21.350   2.720  1.05464E+00  1.02433E+00  3.03032E-02
    9016.125     22.185   2.760  1.05101E+00  1.02228E+00  2.87291E-02
    9016.973     23.032   2.800  1.04477E+00  1.02022E+00  2.45488E-02
    9017.832     23.892   2.840  1.03511E+00  1.01820E+00  1.69088E-02
    9018.704     24.764   2.880  1.02153E+00  1.01621E+00  5.32277E-03
    9019.588     25.648   2.920  1.00385E+00  1.01426E+00 -1.04090E-02
    9020.484     26.544   2.960  9.82565E-01  1.01238E+00 -2.98171E-02
    9021.392     27.452   3.000  9.58849E-01  1.01055E+00 -5.17055E-02
    9022.313     28.372   3.040  9.34470E-01  1.00878E+00 -7.43108E-02
    9023.245     29.305   3.080  9.11214E-01  1.00711E+00 -9.58951E-02
    9024.190     30.250   3.120  8.89657E-01  1.00552E+00 -1.15867E-01
    9025.147     31.207   3.160  8.69966E-01  1.00403E+00 -1.34061E-01
    9026.117     32.176   3.200  8.52582E-01  1.00264E+00 -1.50061E-01
    9027.098     33.158   3.240  8.38013E-01  1.00137E+00 -1.63357E-01
    9028.092     34.151   3.280  8.26684E-01  1.00017E+00 -1.73487E-01
    9029.097     35.157   3.320  8.18998E-01  9.99111E-01 -1.80114E-01
    9030.116     36.175   3.360  8.15348E-01  9.98170E-01 -1.82822E-01
    9031.146     37.206   3.400  8.15611E-01  9.97325E-01 -1.81714E-01
    9032.188     38.248   3.440  8.19738E-01  9.96599E-01 -1.76861E-01
    9033.243     39.303   3.480  8.27579E-01  9.95992E-01 -1.68413E-01
    9034.310     40.369   3.520  8.38723E-01  9.95507E-01 -1.56784E-01
    9035.389     41.448   3.560  8.52410E-01  9.95119E-01 -1.42709E-01
    9036.480     42.539   3.600  8.68042E-01  9.94871E-01 -1.26829E-01
    9037.583     43.643   3.640  8.85017E-01  9.94719E-01 -1.09702E-01
    9038.699     44.758   3.680  9.02834E-01  9.94683E-01 -9.18495E-02
    9039.826     45.886   3.720  9.21174E-01  9.94743E-01 -7.35686E-02
    9040.966     47.026   3.760  9.40024E-01  9.94917E-01 -5.48938E-02
    9042.118     48.178   3.800  9.59363E-01  9.95206E-01 -3.58424E-02
    9043.283     49.343   3.840  9.79115E-01  9.95583E-01 -1.64682E-02
    9044.459     50.519   3.880  9.99251E-01  9.96047E-01  3.20414E-03
    9045.648     51.708   3.920  1.01966E+00  9.96597E-01  2.30615E-02
    9046.849     52.909   3.960  1.04009E+00  9.97253E-01  4.28325E-02
    9048.062     54.122   4.000  1.06003E+00  9.97969E-01  6.20646E-02
    9049.287     55.347   4.040  1.07879E+00  9.98786E-01  8.00041E-02
    9050.525     56.585   4.080  1.09515E+00  9.99658E-01  9.54871E-02
    9051.775     57.834   4.120  1.10791E+00  1.00060E+00  1.07301E-01
    9053.036     59.096   4.160  1.11618E+00  1.00160E+00  1.14584E-01
    9054.310     60.370   4.200  1.11964E+00  1.00264E+00  1.17001E-01
    9055.597     61.656   4.240  1.11865E+00  1.00375E+00  1.14906E-01
    9056.895     62.955   4.280  1.11425E+00  1.00489E+00  1.09357E-01
    9058.206     64.266   4.320  1.10778E+00  1.00606E+00  1.01716E-01
    9059.529     65.588   4.360  1.10058E+00  1.00728E+00  9.33011E-02
    9060.864     66.923   4.400  1.09367E+00  1.00849E+00  8.51831E-02
    9062.211     68.271   4.440  1.08778E+00  1.00975E+00  7.80292E-02
    9063.570     69.630   4.480  1.08306E+00  1.01099E+00  7.20648E-02
    9064.942     71.002   4.520  1.07942E+00  1.01226E+00  6.71587E-02
    9066.326     72.385   4.560  1.07643E+00  1.01350E+00  6.29282E-02
    9067.722     73.781   4.600  1.07363E+00  1.01475E+00  5.88733E-02
    9069.130     75.190   4.640  1.07053E+00  1.01596E+00  5.45721E-02
    9070.550     76.610   4.680  1.06696E+00  1.01718E+00  4.97802E-02
    9071.983     78.042   4.720  1.06265E+00  1.01836E+00  4.42905E-02
    9073.427     79.487   4.760  1.05747E+00  1.01951E+00  3.79626E-02
    9074.884     80.944   4.800  1.05140E+00  1.02061E+00  3.07968E-02
    9076.353     82.413   4.840  1.04466E+00  1.02166E+00  2.29921E-02
    9077.835     83.895   4.880  1.03759E+00  1.02266E+00  1.49307E-02
    9079.328     85.388   4.920  1.03060E+00  1.02362E+00  6.98022E-03
    9080.834     86.894   4.960  1.02386E+00  1.02451E+00 -6.53926E-04
    9082.352     88.412   5.000  1.01750E+00  1.02536E+00 -7.86015E-03
    9083.882     89.942   5.040  1.01153E+00  1.02612E+00 -1.45915E-02
    9085.424     91.484   5.080  1.00595E+00  1.02681E+00 -2.08677E-02
    9086.979     93.039   5.120  1.00061E+00  1.02745E+00 -2.68342E-02
    9088.545     94.605   5.160  9.95323E-01  1.02800E+00 -3.26808E-02
    9090.124     96.184   5.200  9.89992E-01  1.02848E+00 -3.84856E-02
    9091.715     97.775   5.240  9.84718E-01  1.02887E+00 -4.41542E-02
    9093.319     99.378   5.280  9.79787E-01  1.02921E+00 -4.94214E-02
    9094.934    100.994   5.320  9.75449E-01  1.02944E+00 -5.39901E-02
    9096.562    102.621   5.360  9.72082E-01  1.02961E+00 -5.75291E-02
    9098.201    104.261   5.400  9.69847E-01  1.02968E+00 -5.98307E-02
    9099.853    105.913   5.440  9.68859E-01  1.02969E+00 -6.08272E-02
    9101.518    107.577   5.480  9.68987E-01  1.02961E+00 -6.06272E-02
    9103.194    109.254   5.520  9.70080E-01  1.02946E+00 -5.93822E-02
    9104.883    110.942   5.560  9.71970E-01  1.02923E+00 -5.72586E-02
    9106.583    112.643   5.600  9.74569E-01  1.02892E+00 -5.43468E-02
    9108.296    114.356   5.640  9.77886E-01  1.02855E+00 -5.06622E-02
    9110.022    116.081   5.680  9.81926E-01  1.02808E+00 -4.61558E-02
    9111.759    117.819   5.720  9.86768E-01  1.02759E+00 -4.08210E-02
    9113.508    119.568   5.760  9.92260E-01  1.02702E+00 -3.47644E-02
    9115.270    121.330   5.800  9.98119E-01  1.02639E+00 -2.82699E-02
    9117.044    123.104   5.840  1.00397E+00  1.02571E+00 -2.17420E-02
    9118.830    124.890   5.880  1.00937E+00  1.02499E+00 -1.56212E-02
    9120.629    126.688   5.920  1.01395E+00  1.02421E+00 -1.02536E-02
    9122.439    128.499   5.960  1.01757E+00  1.02342E+00 -5.84624E-03
    9124.262    130.322   6.000  1.02016E+00  1.02256E+00 -2.39997E-03
