# # comment:                                                     FEFF 9.9.1  
# # Source:
# # Structure
# # Reduced
# # space
# # abc:
# # angles:
# # sites:
# # POT  SCF 100  7.0000   0, screened core-hole, AFOLP (folp(0)= 1.150)
# # Abs   Z=29 Rmt= 1.350 Rnm= 1.407 K  shell
# # Pot 1 Z= 3 Rmt= 1.256 Rnm= 1.316
# # Pot 2 Z=29 Rmt= 1.340 Rnm= 1.400
# # Pot 3 Z=15 Rmt= 0.949 Rnm= 1.157
# # Pot 4 Z= 8 Rmt= 0.936 Rnm= 1.034
# # Gam_ch=1.729E+00 H-L exch Vi= 0.000E+00 Vr= 0.000E+00
# # Mu=-6.073E+00eV kf=2.386E+00 Vint=-1.725E+01eV Rs_int= 1.520
# FMS rfms= 9.0000
# # PATH  Rmax=-1.000,  Keep_limit= 0.00, Heap_limit 0.00  Pwcrit= 2.50%
#  S02=0.950  Temp=   0.00  Debye_temp=   0.00  Global_sig2= 0.00000
#  Energy zero shift, vr, vi    0.00000E+00   0.00000E+00
#  Curved wave amplitude ratio filter   4.000%
#     file         sig2 tot  cw amp ratio   deg  nlegs   reff  inp sig2
#     0/   0 paths used
#  xsedge+ 50, used to normalize mu           2.4676E-04
#  -----------------------------------------------------------------------
#  omega    e    k    mu    mu0     chi     @#
    8983.668     -9.883  -1.000  5.06670E-02  5.53173E-02 -4.65029E-03
    8983.967     -9.584  -0.960  5.39758E-02  5.93880E-02 -5.41226E-03
    8984.253     -9.298  -0.920  5.76119E-02  6.39178E-02 -6.30595E-03
    8984.527     -9.023  -0.880  6.16198E-02  6.89748E-02 -7.35502E-03
    8984.790     -8.761  -0.840  6.60514E-02  7.46387E-02 -8.58739E-03
    8985.039     -8.511  -0.800  7.09661E-02  8.10019E-02 -1.00359E-02
    8985.277     -8.274  -0.760  7.64320E-02  8.81705E-02 -1.17385E-02
    8985.503     -8.048  -0.720  8.25255E-02  9.62645E-02 -1.37390E-02
    8985.716     -7.835  -0.680  8.93303E-02  1.05416E-01 -1.60861E-02
    8985.917     -7.633  -0.640  9.69341E-02  1.15766E-01 -1.88319E-02
    8986.106     -7.444  -0.600  1.05422E-01  1.27451E-01 -2.20288E-02
    8986.283     -7.268  -0.560  1.14866E-01  1.40589E-01 -2.57228E-02
    8986.448     -7.103  -0.520  1.25307E-01  1.55251E-01 -2.99437E-02
    8986.600     -6.951  -0.480  1.36731E-01  1.71423E-01 -3.46911E-02
    8986.740     -6.811  -0.440  1.49042E-01  1.88961E-01 -3.99186E-02
    8986.868     -6.682  -0.400  1.62039E-01  2.07559E-01 -4.55204E-02
    8986.984     -6.567  -0.360  1.75404E-01  2.26732E-01 -5.13279E-02
    8987.088     -6.463  -0.320  1.88728E-01  2.45852E-01 -5.71233E-02
    8987.179     -6.372  -0.280  2.01550E-01  2.64220E-01 -6.26697E-02
    8987.258     -6.292  -0.240  2.13421E-01  2.81168E-01 -6.77472E-02
    8987.325     -6.225  -0.200  2.23953E-01  2.96137E-01 -7.21838E-02
    8987.380     -6.170  -0.160  2.32853E-01  3.08720E-01 -7.58673E-02
    8987.423     -6.128  -0.120  2.39919E-01  3.18661E-01 -7.87413E-02
    8987.453     -6.097  -0.080  2.45029E-01  3.25818E-01 -8.07893E-02
    8987.478     -6.073   0.000  2.49143E-01  3.31567E-01 -8.24235E-02
    8987.533     -6.018   0.120  2.58444E-01  3.44519E-01 -8.60752E-02
    8987.575     -5.975   0.160  2.65727E-01  3.54578E-01 -8.88502E-02
    8987.630     -5.920   0.200  2.75063E-01  3.67382E-01 -9.23190E-02
    8987.697     -5.853   0.240  2.86435E-01  3.82784E-01 -9.63485E-02
    8987.777     -5.774   0.280  2.99662E-01  4.00413E-01 -1.00751E-01
    8987.868     -5.683   0.320  3.14546E-01  4.19816E-01 -1.05270E-01
    8987.972     -5.579   0.360  3.30782E-01  4.40406E-01 -1.09623E-01
    8988.087     -5.463   0.400  3.47975E-01  4.61518E-01 -1.13543E-01
    8988.215     -5.335   0.440  3.65761E-01  4.82606E-01 -1.16845E-01
    8988.356     -5.195   0.480  3.83673E-01  5.03232E-01 -1.19559E-01
    8988.508     -5.043   0.520  4.01089E-01  5.23099E-01 -1.22011E-01
    8988.673     -4.878   0.560  4.17220E-01  5.42062E-01 -1.24841E-01
    8988.849     -4.701   0.600  4.31226E-01  5.60127E-01 -1.28901E-01
    8989.038     -4.512   0.640  4.42598E-01  5.77343E-01 -1.34745E-01
    8989.240     -4.311   0.680  4.51713E-01  5.93795E-01 -1.42082E-01
    8989.453     -4.098   0.720  4.60139E-01  6.09587E-01 -1.49448E-01
    8989.678     -3.872   0.760  4.70284E-01  6.24858E-01 -1.54574E-01
    8989.916     -3.635   0.800  4.84676E-01  6.39682E-01 -1.55006E-01
    8990.166     -3.385   0.840  5.05314E-01  6.54175E-01 -1.48861E-01
    8990.428     -3.122   0.880  5.32918E-01  6.68361E-01 -1.35444E-01
    8990.703     -2.848   0.920  5.66899E-01  6.82331E-01 -1.15431E-01
    8990.989     -2.562   0.960  6.04952E-01  6.96100E-01 -9.11481E-02
    8991.288     -2.263   1.000  6.42777E-01  7.09731E-01 -6.69546E-02
    8991.599     -1.952   1.040  6.74585E-01  7.23201E-01 -4.86153E-02
    8991.922     -1.629   1.080  6.96145E-01  7.36556E-01 -4.04109E-02
    8992.257     -1.294   1.120  7.09357E-01  7.49775E-01 -4.04180E-02
    8992.605     -0.946   1.160  7.23460E-01  7.62871E-01 -3.94107E-02
    8992.964     -0.587   1.200  7.48482E-01  7.75813E-01 -2.73301E-02
    8993.336     -0.215   1.240  7.87608E-01  7.88606E-01 -9.98175E-04
    8993.720      0.169   1.280  8.35101E-01  8.01231E-01  3.38703E-02
    8994.116      0.566   1.320  8.83449E-01  8.13666E-01  6.97834E-02
    8994.525      0.974   1.360  9.29473E-01  8.25910E-01  1.03563E-01
    8994.945      1.395   1.400  9.71726E-01  8.37915E-01  1.33811E-01
    8995.378      1.827   1.440  1.01294E+00  8.49655E-01  1.63288E-01
    8995.823      2.272   1.480  1.06433E+00  8.61145E-01  2.03184E-01
    8996.280      2.730   1.520  1.13152E+00  8.72317E-01  2.59205E-01
    8996.750      3.199   1.560  1.20138E+00  8.83183E-01  3.18202E-01
    8997.231      3.681   1.600  1.25867E+00  8.93716E-01  3.64954E-01
    8997.725      4.174   1.640  1.30047E+00  9.03889E-01  3.96584E-01
    8998.231      4.680   1.680  1.32581E+00  9.13674E-01  4.12136E-01
    8998.749      5.199   1.720  1.33267E+00  9.23086E-01  4.09586E-01
    8999.280      5.729   1.760  1.31434E+00  9.32098E-01  3.82240E-01
    8999.822      6.271   1.800  1.26211E+00  9.40687E-01  3.21422E-01
    9000.377      6.826   1.840  1.18306E+00  9.48848E-01  2.34215E-01
    9000.944      7.393   1.880  1.10309E+00  9.56556E-01  1.46534E-01
    9001.523      7.972   1.920  1.04290E+00  9.63854E-01  7.90440E-02
    9002.114      8.564   1.960  1.01123E+00  9.70696E-01  4.05299E-02
    9002.718      9.167   2.000  1.00827E+00  9.77084E-01  3.11882E-02
    9003.333      9.783   2.040  1.02819E+00  9.83018E-01  4.51733E-02
    9003.961     10.411   2.080  1.05798E+00  9.88521E-01  6.94601E-02
    9004.601     11.051   2.120  1.08015E+00  9.93597E-01  8.65494E-02
    9005.254     11.703   2.160  1.08198E+00  9.98226E-01  8.37571E-02
    9005.918     12.367   2.200  1.06424E+00  1.00242E+00  6.18225E-02
    9006.595     13.044   2.240  1.04050E+00  1.00621E+00  3.42896E-02
    9007.284     13.733   2.280  1.02396E+00  1.00959E+00  1.43610E-02
    9007.985     14.434   2.320  1.01701E+00  1.01260E+00  4.40759E-03
    9008.698     15.147   2.360  1.01312E+00  1.01520E+00 -2.08115E-03
    9009.423     15.873   2.400  1.00583E+00  1.01746E+00 -1.16298E-02
    9010.161     16.610   2.440  9.93450E-01  1.01936E+00 -2.59127E-02
    9010.911     17.360   2.480  9.79514E-01  1.02093E+00 -4.14156E-02
    9011.673     18.122   2.520  9.69193E-01  1.02217E+00 -5.29805E-02
    9012.447     18.896   2.560  9.63158E-01  1.02315E+00 -5.99870E-02
    9013.233     19.683   2.600  9.58475E-01  1.02381E+00 -6.53373E-02
    9014.032     20.481   2.640  9.53560E-01  1.02422E+00 -7.06646E-02
    9014.843     21.292   2.680  9.47412E-01  1.02441E+00 -7.69993E-02
    9015.666     22.115   2.720  9.38165E-01  1.02436E+00 -8.61962E-02
    9016.501     22.950   2.760  9.25807E-01  1.02408E+00 -9.82765E-02
    9017.348     23.797   2.800  9.15929E-01  1.02365E+00 -1.07719E-01
    9018.208     24.657   2.840  9.10829E-01  1.02302E+00 -1.12193E-01
    9019.079     25.529   2.880  9.10055E-01  1.02224E+00 -1.12181E-01
    9019.963     26.413   2.920  9.12471E-01  1.02132E+00 -1.08846E-01
    9020.859     27.309   2.960  9.16007E-01  1.02027E+00 -1.04268E-01
    9021.768     28.217   3.000  9.19700E-01  1.01912E+00 -9.94159E-02
    9022.688     29.137   3.040  9.23371E-01  1.01789E+00 -9.45192E-02
    9023.621     30.070   3.080  9.27256E-01  1.01656E+00 -8.93076E-02
    9024.566     31.015   3.120  9.32015E-01  1.01518E+00 -8.31687E-02
    9025.523     31.972   3.160  9.38100E-01  1.01376E+00 -7.56574E-02
    9026.492     32.941   3.200  9.45360E-01  1.01229E+00 -6.69319E-02
    9027.474     33.923   3.240  9.53549E-01  1.01079E+00 -5.72417E-02
    9028.467     34.916   3.280  9.62277E-01  1.00928E+00 -4.70040E-02
    9029.473     35.922   3.320  9.70995E-01  1.00777E+00 -3.67771E-02
    9030.491     36.940   3.360  9.79192E-01  1.00629E+00 -2.70933E-02
    9031.521     37.971   3.400  9.86532E-01  1.00480E+00 -1.82730E-02
    9032.564     39.013   3.440  9.92981E-01  1.00333E+00 -1.03535E-02
    9033.618     40.068   3.480  9.98978E-01  1.00190E+00 -2.92163E-03
    9034.685     41.134   3.520  1.00515E+00  1.00053E+00  4.62107E-03
    9035.764     42.213   3.560  1.01194E+00  9.99175E-01  1.27688E-02
    9036.855     43.304   3.600  1.01967E+00  9.97890E-01  2.17811E-02
    9037.959     44.408   3.640  1.02836E+00  9.96674E-01  3.16852E-02
    9039.074     45.523   3.680  1.03790E+00  9.95509E-01  4.23932E-02
    9040.202     46.651   3.720  1.04809E+00  9.94397E-01  5.36956E-02
    9041.342     47.791   3.760  1.05870E+00  9.93381E-01  6.53166E-02
    9042.494     48.943   3.800  1.06921E+00  9.92422E-01  7.67891E-02
    9043.658     50.108   3.840  1.07895E+00  9.91563E-01  8.73893E-02
    9044.835     51.284   3.880  1.08706E+00  9.90763E-01  9.62986E-02
    9046.024     52.473   3.920  1.09285E+00  9.90064E-01  1.02784E-01
    9047.224     53.674   3.960  1.09572E+00  9.89425E-01  1.06299E-01
    9048.438     54.887   4.000  1.09538E+00  9.88887E-01  1.06491E-01
    9049.663     56.112   4.040  1.09176E+00  9.88410E-01  1.03347E-01
    9050.900     57.350   4.080  1.08504E+00  9.88036E-01  9.70082E-02
    9052.150     58.599   4.120  1.07552E+00  9.87745E-01  8.77733E-02
    9053.412     59.861   4.160  1.06356E+00  9.87533E-01  7.60265E-02
    9054.686     61.135   4.200  1.04960E+00  9.87400E-01  6.22046E-02
    9055.972     62.421   4.240  1.03398E+00  9.87325E-01  4.66552E-02
    9057.271     63.720   4.280  1.01712E+00  9.87348E-01  2.97710E-02
    9058.581     65.031   4.320  9.99524E-01  9.87428E-01  1.20963E-02
    9059.904     66.353   4.360  9.81979E-01  9.87605E-01 -5.62630E-03
    9061.239     67.688   4.400  9.65425E-01  9.87835E-01 -2.24097E-02
    9062.586     69.036   4.440  9.50918E-01  9.88114E-01 -3.71963E-02
    9063.946     70.395   4.480  9.39273E-01  9.88464E-01 -4.91917E-02
    9065.317     71.767   4.520  9.30903E-01  9.88883E-01 -5.79807E-02
    9066.701     73.150   4.560  9.25776E-01  9.89325E-01 -6.35490E-02
    9068.097     74.546   4.600  9.23560E-01  9.89832E-01 -6.62722E-02
    9069.505     75.955   4.640  9.23618E-01  9.90382E-01 -6.67640E-02
    9070.926     77.375   4.680  9.25358E-01  9.90969E-01 -6.56118E-02
    9072.358     78.807   4.720  9.28353E-01  9.91594E-01 -6.32411E-02
    9073.803     80.252   4.760  9.32489E-01  9.92229E-01 -5.97407E-02
    9075.260     81.709   4.800  9.37921E-01  9.92895E-01 -5.49746E-02
    9076.729     83.178   4.840  9.44740E-01  9.93570E-01 -4.88302E-02
    9078.210     84.660   4.880  9.52883E-01  9.94273E-01 -4.13906E-02
    9079.704     86.153   4.920  9.61954E-01  9.94979E-01 -3.30255E-02
    9081.210     87.659   4.960  9.71308E-01  9.95686E-01 -2.43772E-02
    9082.727     89.177   5.000  9.80263E-01  9.96390E-01 -1.61271E-02
    9084.258     90.707   5.040  9.88230E-01  9.97090E-01 -8.85984E-03
    9085.800     92.249   5.080  9.94827E-01  9.97761E-01 -2.93357E-03
    9087.354     93.804   5.120  9.99976E-01  9.98421E-01  1.55491E-03
    9088.921     95.370   5.160  1.00378E+00  9.99048E-01  4.72990E-03
    9090.500     96.949   5.200  1.00653E+00  9.99660E-01  6.86527E-03
    9092.091     98.540   5.240  1.00849E+00  1.00021E+00  8.28043E-03
    9093.694    100.143   5.280  1.00991E+00  1.00075E+00  9.16133E-03
    9095.310    101.759   5.320  1.01070E+00  1.00125E+00  9.44884E-03
    9096.937    103.386   5.360  1.01054E+00  1.00171E+00  8.83572E-03
    9098.577    105.026   5.400  1.00906E+00  1.00212E+00  6.93849E-03
    9100.229    106.678   5.440  1.00602E+00  1.00246E+00  3.56291E-03
    9101.893    108.342   5.480  1.00170E+00  1.00276E+00 -1.05981E-03
    9103.570    110.019   5.520  9.96711E-01  1.00301E+00 -6.29457E-03
    9105.258    111.707   5.560  9.91803E-01  1.00318E+00 -1.13804E-02
    9106.959    113.408   5.600  9.87654E-01  1.00331E+00 -1.56586E-02
    9108.672    115.121   5.640  9.84760E-01  1.00337E+00 -1.86108E-02
    9110.397    116.846   5.680  9.83616E-01  1.00338E+00 -1.97610E-02
    9112.134    118.584   5.720  9.84677E-01  1.00331E+00 -1.86377E-02
    9113.884    120.333   5.760  9.88309E-01  1.00320E+00 -1.48925E-02
    9115.646    122.095   5.800  9.94517E-01  1.00301E+00 -8.49731E-03
    9117.420    123.869   5.840  1.00290E+00  1.00276E+00  1.36961E-04
    9119.206    125.655   5.880  1.01271E+00  1.00248E+00  1.02253E-02
    9121.004    127.453   5.920  1.02291E+00  1.00211E+00  2.07979E-02
    9122.815    129.264   5.960  1.03250E+00  1.00172E+00  3.07784E-02
    9124.637    131.087   6.000  1.04024E+00  1.00119E+00  3.90552E-02
