# # comment:                                                     FEFF 9.9.1  
# # Source:
# # Structure
# # Reduced
# # space
# # abc:
# # angles:
# # sites:
# # POT  SCF 100  7.0000   0, screened core-hole, AFOLP (folp(0)= 1.150)
# # Abs   Z=29 Rmt= 1.155 Rnm= 1.273 K  shell
# # Pot 1 Z=56 Rmt= 1.938 Rnm= 1.995
# # Pot 2 Z=68 Rmt= 1.615 Rnm= 1.693
# # Pot 3 Z=29 Rmt= 1.131 Rnm= 1.286
# # Pot 4 Z= 8 Rmt= 1.086 Rnm= 1.136
# # Gam_ch=1.729E+00 H-L exch Vi= 0.000E+00 Vr= 0.000E+00
# # Mu=-9.367E+00eV kf=1.978E+00 Vint=-1.777E+01eV Rs_int= 1.834
# FMS rfms= 9.0000
# # PATH  Rmax=-1.000,  Keep_limit= 0.00, Heap_limit 0.00  Pwcrit= 2.50%
#  S02=0.950  Temp=   0.00  Debye_temp=   0.00  Global_sig2= 0.00000
#  Energy zero shift, vr, vi    0.00000E+00   0.00000E+00
#  Curved wave amplitude ratio filter   4.000%
#     file         sig2 tot  cw amp ratio   deg  nlegs   reff  inp sig2
#     0/   0 paths used
#  xsedge+ 50, used to normalize mu           2.4523E-04
#  -----------------------------------------------------------------------
#  omega    e    k    mu    mu0     chi     @#
    8985.145    -13.177  -1.000  3.63188E-02  5.54112E-02 -1.90924E-02
    8985.444    -12.878  -0.960  3.82598E-02  5.94405E-02 -2.11807E-02
    8985.731    -12.592  -0.920  4.03741E-02  6.39163E-02 -2.35422E-02
    8986.005    -12.317  -0.880  4.26868E-02  6.89042E-02 -2.62174E-02
    8986.267    -12.055  -0.840  4.52273E-02  7.44803E-02 -2.92530E-02
    8986.517    -11.805  -0.800  4.80304E-02  8.07328E-02 -3.27024E-02
    8986.755    -11.568  -0.760  5.11365E-02  8.77630E-02 -3.66264E-02
    8986.980    -11.342  -0.720  5.45920E-02  9.56849E-02 -4.10930E-02
    8987.194    -11.129  -0.680  5.84484E-02  1.04624E-01 -4.61760E-02
    8987.395    -10.927  -0.640  6.27612E-02  1.14714E-01 -5.19530E-02
    8987.584    -10.738  -0.600  6.75852E-02  1.26084E-01 -5.84991E-02
    8987.761    -10.562  -0.560  7.29674E-02  1.38846E-01 -6.58782E-02
    8987.925    -10.397  -0.520  7.89356E-02  1.53064E-01 -7.41285E-02
    8988.078    -10.245  -0.480  8.54820E-02  1.68724E-01 -8.32424E-02
    8988.218    -10.104  -0.440  9.25451E-02  1.85689E-01 -9.31441E-02
    8988.346     -9.976  -0.400  9.99946E-02  2.03664E-01 -1.03670E-01
    8988.462     -9.861  -0.360  1.07628E-01  2.22187E-01 -1.14559E-01
    8988.565     -9.757  -0.320  1.15187E-01  2.40656E-01 -1.25469E-01
    8988.657     -9.666  -0.280  1.22392E-01  2.58405E-01 -1.36013E-01
    8988.736     -9.586  -0.240  1.28984E-01  2.74791E-01 -1.45807E-01
    8988.803     -9.519  -0.200  1.34757E-01  2.89275E-01 -1.54517E-01
    8988.858     -9.464  -0.160  1.39573E-01  3.01462E-01 -1.61889E-01
    8988.901     -9.422  -0.120  1.43348E-01  3.11098E-01 -1.67750E-01
    8988.931     -9.391  -0.080  1.46039E-01  3.18041E-01 -1.72002E-01
    8988.955     -9.367   0.000  1.48141E-01  3.23621E-01 -1.75480E-01
    8989.010     -9.312   0.120  1.53037E-01  3.36200E-01 -1.83162E-01
    8989.053     -9.269   0.160  1.56869E-01  3.45991E-01 -1.89122E-01
    8989.108     -9.214   0.200  1.61753E-01  3.58492E-01 -1.96740E-01
    8989.175     -9.147   0.240  1.67589E-01  3.73539E-01 -2.05950E-01
    8989.254     -9.068   0.280  1.74192E-01  3.90820E-01 -2.16628E-01
    8989.346     -8.977   0.320  1.81368E-01  4.09946E-01 -2.28578E-01
    8989.449     -8.873   0.360  1.88736E-01  4.30322E-01 -2.41587E-01
    8989.565     -8.757   0.400  1.95864E-01  4.51400E-01 -2.55535E-01
    8989.693     -8.629   0.440  2.02204E-01  4.72658E-01 -2.70454E-01
    8989.833     -8.489   0.480  2.07058E-01  4.93652E-01 -2.86595E-01
    8989.986     -8.337   0.520  2.09868E-01  5.14148E-01 -3.04280E-01
    8990.150     -8.172   0.560  2.10510E-01  5.34003E-01 -3.23494E-01
    8990.327     -7.995   0.600  2.09571E-01  5.53166E-01 -3.43595E-01
    8990.516     -7.806   0.640  2.08337E-01  5.71711E-01 -3.63375E-01
    8990.717     -7.605   0.680  2.08078E-01  5.89691E-01 -3.81613E-01
    8990.931     -7.392   0.720  2.09683E-01  6.07189E-01 -3.97506E-01
    8991.156     -7.166   0.760  2.13518E-01  6.24309E-01 -4.10790E-01
    8991.394     -6.928   0.800  2.19676E-01  6.41123E-01 -4.21448E-01
    8991.644     -6.679   0.840  2.28258E-01  6.57672E-01 -4.29415E-01
    8991.906     -6.416   0.880  2.39622E-01  6.74001E-01 -4.34379E-01
    8992.180     -6.142   0.920  2.54300E-01  6.90142E-01 -4.35843E-01
    8992.467     -5.856   0.960  2.73045E-01  7.06115E-01 -4.33070E-01
    8992.765     -5.557   1.000  2.97160E-01  7.21908E-01 -4.24749E-01
    8993.076     -5.246   1.040  3.28157E-01  7.37543E-01 -4.09386E-01
    8993.399     -4.923   1.080  3.66085E-01  7.52991E-01 -3.86905E-01
    8993.735     -4.588   1.120  4.08343E-01  7.68217E-01 -3.59875E-01
    8994.082     -4.240   1.160  4.52944E-01  7.83226E-01 -3.30282E-01
    8994.442     -3.881   1.200  5.02582E-01  7.97992E-01 -2.95410E-01
    8994.814     -3.509   1.240  5.57273E-01  8.12450E-01 -2.55177E-01
    8995.198     -3.125   1.280  6.00482E-01  8.26594E-01 -2.26111E-01
    8995.594     -2.728   1.320  6.12616E-01  8.40393E-01 -2.27777E-01
    8996.002     -2.320   1.360  6.02040E-01  8.53798E-01 -2.51758E-01
    8996.423     -1.899   1.400  5.92846E-01  8.66799E-01 -2.73953E-01
    8996.856     -1.466   1.440  6.01432E-01  8.79366E-01 -2.77933E-01
    8997.301     -1.021   1.480  6.35088E-01  8.91468E-01 -2.56380E-01
    8997.758     -0.564   1.520  6.86900E-01  9.03079E-01 -2.16179E-01
    8998.227     -0.095   1.560  7.29409E-01  9.14170E-01 -1.84761E-01
    8998.709      0.387   1.600  7.29098E-01  9.24755E-01 -1.95657E-01
    8999.203      0.880   1.640  7.08218E-01  9.34788E-01 -2.26570E-01
    8999.709      1.386   1.680  7.16589E-01  9.44286E-01 -2.27697E-01
    9000.227      1.905   1.720  7.77190E-01  9.53207E-01 -1.76017E-01
    9000.757      2.435   1.760  8.93420E-01  9.61571E-01 -6.81512E-02
    9001.300      2.977   1.800  1.06118E+00  9.69378E-01  9.18017E-02
    9001.854      3.532   1.840  1.27315E+00  9.76629E-01  2.96519E-01
    9002.421      4.099   1.880  1.47442E+00  9.83309E-01  4.91108E-01
    9003.001      4.678   1.920  1.58425E+00  9.89465E-01  5.94784E-01
    9003.592      5.270   1.960  1.57961E+00  9.95080E-01  5.84527E-01
    9004.195      5.873   2.000  1.49428E+00  1.00016E+00  4.94121E-01
    9004.811      6.489   2.040  1.38463E+00  1.00474E+00  3.79888E-01
    9005.439      7.117   2.080  1.29810E+00  1.00882E+00  2.89282E-01
    9006.079      7.757   2.120  1.25329E+00  1.01244E+00  2.40848E-01
    9006.731      8.409   2.160  1.24039E+00  1.01560E+00  2.24788E-01
    9007.396      9.073   2.200  1.23176E+00  1.01834E+00  2.13418E-01
    9008.072      9.750   2.240  1.20718E+00  1.02067E+00  1.86515E-01
    9008.761     10.439   2.280  1.17142E+00  1.02261E+00  1.48806E-01
    9009.462     11.140   2.320  1.14265E+00  1.02418E+00  1.18466E-01
    9010.175     11.853   2.360  1.13317E+00  1.02540E+00  1.07770E-01
    9010.901     12.579   2.400  1.14097E+00  1.02631E+00  1.14664E-01
    9011.639     13.316   2.440  1.15449E+00  1.02690E+00  1.27586E-01
    9012.388     14.066   2.480  1.17328E+00  1.02724E+00  1.46044E-01
    9013.150     14.828   2.520  1.19235E+00  1.02732E+00  1.65030E-01
    9013.925     15.602   2.560  1.20016E+00  1.02718E+00  1.72980E-01
    9014.711     16.389   2.600  1.19029E+00  1.02681E+00  1.63477E-01
    9015.509     17.187   2.640  1.16498E+00  1.02626E+00  1.38715E-01
    9016.320     17.998   2.680  1.13035E+00  1.02552E+00  1.04830E-01
    9017.143     18.821   2.720  1.09269E+00  1.02465E+00  6.80400E-02
    9017.978     19.656   2.760  1.05635E+00  1.02364E+00  3.27082E-02
    9018.826     20.503   2.800  1.02348E+00  1.02252E+00  9.62171E-04
    9019.685     21.363   2.840  9.95662E-01  1.02130E+00 -2.56369E-02
    9020.557     22.235   2.880  9.73780E-01  1.01998E+00 -4.61962E-02
    9021.441     23.119   2.920  9.57683E-01  1.01862E+00 -6.09350E-02
    9022.337     24.015   2.960  9.46428E-01  1.01717E+00 -7.07405E-02
    9023.245     24.923   3.000  9.38720E-01  1.01570E+00 -7.69777E-02
    9024.166     25.843   3.040  9.33219E-01  1.01419E+00 -8.09720E-02
    9025.098     26.776   3.080  9.28902E-01  1.01267E+00 -8.37723E-02
    9026.043     27.721   3.120  9.25235E-01  1.01115E+00 -8.59200E-02
    9027.000     28.678   3.160  9.21650E-01  1.00963E+00 -8.79843E-02
    9027.970     29.647   3.200  9.17410E-01  1.00812E+00 -9.07095E-02
    9028.951     30.629   3.240  9.11867E-01  1.00663E+00 -9.47663E-02
    9029.945     31.622   3.280  9.04462E-01  1.00516E+00 -1.00698E-01
    9030.951     32.628   3.320  8.95201E-01  1.00375E+00 -1.08547E-01
    9031.969     33.646   3.360  8.84647E-01  1.00238E+00 -1.17729E-01
    9032.999     34.677   3.400  8.74025E-01  1.00103E+00 -1.27001E-01
    9034.041     35.719   3.440  8.64744E-01  9.99764E-01 -1.35020E-01
    9035.096     36.774   3.480  8.58106E-01  9.98531E-01 -1.40424E-01
    9036.163     37.840   3.520  8.55290E-01  9.97390E-01 -1.42099E-01
    9037.242     38.919   3.560  8.56823E-01  9.96301E-01 -1.39478E-01
    9038.333     40.011   3.600  8.62687E-01  9.95266E-01 -1.32580E-01
    9039.436     41.114   3.640  8.72523E-01  9.94329E-01 -1.21806E-01
    9040.552     42.229   3.680  8.85589E-01  9.93450E-01 -1.07861E-01
    9041.679     43.357   3.720  9.00997E-01  9.92670E-01 -9.16726E-02
    9042.819     44.497   3.760  9.17791E-01  9.91948E-01 -7.41571E-02
    9043.972     45.649   3.800  9.34997E-01  9.91305E-01 -5.63082E-02
    9045.136     46.814   3.840  9.51455E-01  9.90764E-01 -3.93098E-02
    9046.312     47.990   3.880  9.66063E-01  9.90283E-01 -2.42200E-02
    9047.501     49.179   3.920  9.78425E-01  9.89881E-01 -1.14560E-02
    9048.702     50.380   3.960  9.88829E-01  9.89580E-01 -7.51196E-04
    9049.915     51.593   4.000  9.98033E-01  9.89337E-01  8.69568E-03
    9051.140     52.818   4.040  1.00710E+00  9.89171E-01  1.79246E-02
    9052.378     54.056   4.080  1.01693E+00  9.89082E-01  2.78473E-02
    9053.628     55.305   4.120  1.02791E+00  9.89050E-01  3.88605E-02
    9054.889     56.567   4.160  1.03972E+00  9.89114E-01  5.06052E-02
    9056.164     57.841   4.200  1.05092E+00  9.89235E-01  6.16900E-02
    9057.450     59.127   4.240  1.05941E+00  9.89429E-01  6.99778E-02
    9058.748     60.426   4.280  1.06328E+00  9.89696E-01  7.35796E-02
    9060.059     61.737   4.320  1.06184E+00  9.90013E-01  7.18259E-02
    9061.382     63.059   4.360  1.05584E+00  9.90377E-01  6.54666E-02
    9062.717     64.394   4.400  1.04720E+00  9.90809E-01  5.63932E-02
    9064.064     65.742   4.440  1.03833E+00  9.91288E-01  4.70422E-02
    9065.423     67.101   4.480  1.03167E+00  9.91832E-01  3.98399E-02
    9066.795     68.473   4.520  1.02919E+00  9.92394E-01  3.67985E-02
    9068.179     69.856   4.560  1.03222E+00  9.92996E-01  3.92191E-02
    9069.575     71.252   4.600  1.04092E+00  9.93659E-01  4.72566E-02
    9070.983     72.661   4.640  1.05398E+00  9.94335E-01  5.96468E-02
    9072.403     74.081   4.680  1.06883E+00  9.95020E-01  7.38125E-02
    9073.836     75.513   4.720  1.08216E+00  9.95738E-01  8.64205E-02
    9075.281     76.958   4.760  1.09085E+00  9.96487E-01  9.43672E-02
    9076.737     78.415   4.800  1.09306E+00  9.97243E-01  9.58176E-02
    9078.207     79.884   4.840  1.08869E+00  9.98026E-01  9.06620E-02
    9079.688     81.366   4.880  1.07881E+00  9.98788E-01  8.00240E-02
    9081.181     82.859   4.920  1.06506E+00  9.99571E-01  6.54935E-02
    9082.687     84.365   4.960  1.04898E+00  1.00033E+00  4.86515E-02
    9084.205     85.883   5.000  1.03216E+00  1.00108E+00  3.10822E-02
    9085.735     87.413   5.040  1.01620E+00  1.00183E+00  1.43658E-02
    9087.277     88.955   5.080  1.00237E+00  1.00257E+00 -2.08835E-04
    9088.832     90.510   5.120  9.91408E-01  1.00328E+00 -1.18752E-02
    9090.399     92.076   5.160  9.83491E-01  1.00396E+00 -2.04672E-02
    9091.977     93.655   5.200  9.78328E-01  1.00462E+00 -2.62920E-02
    9093.568     95.246   5.240  9.75251E-01  1.00525E+00 -2.99980E-02
    9095.172     96.849   5.280  9.73527E-01  1.00586E+00 -3.23337E-02
    9096.787     98.465   5.320  9.72533E-01  1.00641E+00 -3.38772E-02
    9098.415    100.092   5.360  9.72091E-01  1.00692E+00 -3.48269E-02
    9100.055    101.732   5.400  9.72349E-01  1.00741E+00 -3.50576E-02
    9101.707    103.384   5.440  9.73352E-01  1.00783E+00 -3.44792E-02
    9103.371    105.048   5.480  9.74709E-01  1.00821E+00 -3.35000E-02
    9105.047    106.725   5.520  9.75482E-01  1.00854E+00 -3.30599E-02
    9106.736    108.413   5.560  9.74753E-01  1.00881E+00 -3.40544E-02
    9108.437    110.114   5.600  9.72461E-01  1.00905E+00 -3.65863E-02
    9110.149    111.827   5.640  9.69209E-01  1.00920E+00 -3.99869E-02
    9111.875    113.552   5.680  9.66221E-01  1.00932E+00 -4.30996E-02
    9113.612    115.290   5.720  9.64467E-01  1.00938E+00 -4.49083E-02
    9115.362    117.039   5.760  9.64211E-01  1.00938E+00 -4.51712E-02
    9117.123    118.801   5.800  9.64764E-01  1.00932E+00 -4.45566E-02
    9118.897    120.575   5.840  9.64959E-01  1.00921E+00 -4.42524E-02
    9120.683    122.361   5.880  9.63986E-01  1.00906E+00 -4.50714E-02
    9122.482    124.159   5.920  9.62157E-01  1.00883E+00 -4.66767E-02
    9124.292    125.970   5.960  9.61086E-01  1.00856E+00 -4.74728E-02
    9126.115    127.793   6.000  9.62304E-01  1.00817E+00 -4.58647E-02
