# # comment:                                                     FEFF 9.9.1  
# # Source:
# # Structure
# # Reduced
# # space
# # abc:
# # angles:
# # sites:
# # POT  SCF 100  7.0000   0, screened core-hole, AFOLP (folp(0)= 1.150)
# # Abs   Z=29 Rmt= 1.251 Rnm= 1.335 K  shell
# # Pot 1 Z=29 Rmt= 1.228 Rnm= 1.340
# # Pot 2 Z= 8 Rmt= 1.005 Rnm= 1.131
# # Pot 3 Z= 9 Rmt= 1.018 Rnm= 1.120
# # Gam_ch=1.729E+00 H-L exch Vi= 0.000E+00 Vr= 0.000E+00
# # Mu=-6.786E+00eV kf=2.014E+00 Vint=-1.276E+01eV Rs_int= 1.801
# FMS rfms= 9.0000
# # PATH  Rmax=-1.000,  Keep_limit= 0.00, Heap_limit 0.00  Pwcrit= 2.50%
#  S02=0.950  Temp=   0.00  Debye_temp=   0.00  Global_sig2= 0.00000
#  Energy zero shift, vr, vi    0.00000E+00   0.00000E+00
#  Curved wave amplitude ratio filter   4.000%
#     file         sig2 tot  cw amp ratio   deg  nlegs   reff  inp sig2
#     0/   0 paths used
#  xsedge+ 50, used to normalize mu           2.4191E-04
#  -----------------------------------------------------------------------
#  omega    e    k    mu    mu0     chi     @#
    8983.314    -10.596  -1.000  3.11135E-02  5.53373E-02 -2.42238E-02
    8983.613    -10.297  -0.960  3.23322E-02  5.93022E-02 -2.69700E-02
    8983.899    -10.011  -0.920  3.36113E-02  6.36962E-02 -3.00849E-02
    8984.174     -9.736  -0.880  3.49566E-02  6.85805E-02 -3.36239E-02
    8984.436     -9.474  -0.840  3.63751E-02  7.40264E-02 -3.76513E-02
    8984.686     -9.224  -0.800  3.78752E-02  8.01161E-02 -4.22409E-02
    8984.923     -8.987  -0.760  3.94667E-02  8.69435E-02 -4.74768E-02
    8985.149     -8.761  -0.720  4.11612E-02  9.46143E-02 -5.34531E-02
    8985.362     -8.548  -0.680  4.29719E-02  1.03245E-01 -6.02727E-02
    8985.564     -8.347  -0.640  4.49129E-02  1.12956E-01 -6.80436E-02
    8985.752     -8.158  -0.600  4.69980E-02  1.23869E-01 -7.68709E-02
    8985.929     -7.981  -0.560  4.92385E-02  1.36083E-01 -8.68443E-02
    8986.094     -7.816  -0.520  5.16391E-02  1.49657E-01 -9.80176E-02
    8986.246     -7.664  -0.480  5.41925E-02  1.64574E-01 -1.10382E-01
    8986.386     -7.524  -0.440  5.68737E-02  1.80705E-01 -1.23832E-01
    8986.514     -7.396  -0.400  5.96343E-02  1.97775E-01 -1.38141E-01
    8986.630     -7.280  -0.360  6.24027E-02  2.15353E-01 -1.52951E-01
    8986.734     -7.176  -0.320  6.50899E-02  2.32880E-01 -1.67790E-01
    8986.825     -7.085  -0.280  6.76029E-02  2.49732E-01 -1.82129E-01
    8986.905     -7.005  -0.240  6.98598E-02  2.65306E-01 -1.95446E-01
    8986.972     -6.938  -0.200  7.18018E-02  2.79091E-01 -2.07289E-01
    8987.027     -6.883  -0.160  7.33962E-02  2.90709E-01 -2.17313E-01
    8987.069     -6.841  -0.120  7.46317E-02  2.99910E-01 -2.25279E-01
    8987.100     -6.810  -0.080  7.55094E-02  3.06550E-01 -2.31041E-01
    8987.124     -6.786   0.000  7.62099E-02  3.11894E-01 -2.35684E-01
    8987.179     -6.731   0.120  7.78183E-02  3.23969E-01 -2.46151E-01
    8987.222     -6.688   0.160  7.89873E-02  3.33381E-01 -2.54393E-01
    8987.276     -6.634   0.200  8.03749E-02  3.45411E-01 -2.65036E-01
    8987.344     -6.566   0.240  8.19707E-02  3.59977E-01 -2.78006E-01
    8987.423     -6.487   0.280  8.36704E-02  3.76819E-01 -2.93149E-01
    8987.514     -6.396   0.320  8.53709E-02  3.95558E-01 -3.10187E-01
    8987.618     -6.292   0.360  8.69679E-02  4.15718E-01 -3.28750E-01
    8987.734     -6.176   0.400  8.84517E-02  4.36830E-01 -3.48378E-01
    8987.862     -6.048   0.440  8.98396E-02  4.58421E-01 -3.68581E-01
    8988.002     -5.908   0.480  9.12315E-02  4.80119E-01 -3.88888E-01
    8988.154     -5.756   0.520  9.27935E-02  5.01676E-01 -4.08882E-01
    8988.319     -5.591   0.560  9.47450E-02  5.22960E-01 -4.28215E-01
    8988.496     -5.414   0.600  9.72947E-02  5.43931E-01 -4.46636E-01
    8988.685     -5.225   0.640  1.00627E-01  5.64583E-01 -4.63956E-01
    8988.886     -5.024   0.680  1.04980E-01  5.84984E-01 -4.80004E-01
    8989.099     -4.811   0.720  1.10477E-01  6.05146E-01 -4.94670E-01
    8989.325     -4.585   0.760  1.17309E-01  6.25121E-01 -5.07812E-01
    8989.562     -4.348   0.800  1.25602E-01  6.44948E-01 -5.19345E-01
    8989.812     -4.098   0.840  1.35247E-01  6.64593E-01 -5.29345E-01
    8990.075     -3.835   0.880  1.46186E-01  6.84090E-01 -5.37904E-01
    8990.349     -3.561   0.920  1.58485E-01  7.03379E-01 -5.44894E-01
    8990.635     -3.275   0.960  1.72954E-01  7.22470E-01 -5.49516E-01
    8990.934     -2.976   1.000  1.90788E-01  7.41283E-01 -5.50495E-01
    8991.245     -2.665   1.040  2.12970E-01  7.59791E-01 -5.46821E-01
    8991.568     -2.342   1.080  2.39230E-01  7.77922E-01 -5.38691E-01
    8991.903     -2.007   1.120  2.67928E-01  7.95639E-01 -5.27711E-01
    8992.251     -1.659   1.160  2.97998E-01  8.12884E-01 -5.14886E-01
    8992.610     -1.300   1.200  3.31026E-01  8.29576E-01 -4.98550E-01
    8992.982     -0.928   1.240  3.69345E-01  8.45676E-01 -4.76332E-01
    8993.366     -0.544   1.280  4.10965E-01  8.61123E-01 -4.50158E-01
    8993.763     -0.147   1.320  4.49666E-01  8.75901E-01 -4.26235E-01
    8994.171      0.261   1.360  4.81969E-01  8.89956E-01 -4.07987E-01
    8994.592      0.682   1.400  5.12123E-01  9.03233E-01 -3.91111E-01
    8995.024      1.114   1.440  5.49445E-01  9.15746E-01 -3.66300E-01
    8995.469      1.559   1.480  6.04477E-01  9.27467E-01 -3.22991E-01
    8995.927      2.017   1.520  6.86930E-01  9.38373E-01 -2.51443E-01
    8996.396      2.486   1.560  7.96471E-01  9.48464E-01 -1.51993E-01
    8996.878      2.968   1.600  9.21323E-01  9.57745E-01 -3.64223E-02
    8997.371      3.461   1.640  1.05811E+00  9.66244E-01  9.18654E-02
    8997.877      3.967   1.680  1.21875E+00  9.73947E-01  2.44804E-01
    8998.396      4.486   1.720  1.40629E+00  9.80888E-01  4.25403E-01
    8998.926      5.016   1.760  1.59055E+00  9.87103E-01  6.03443E-01
    8999.468      5.558   1.800  1.72740E+00  9.92605E-01  7.34791E-01
    9000.023      6.113   1.840  1.79881E+00  9.97452E-01  8.01360E-01
    9000.590      6.680   1.880  1.81177E+00  1.00164E+00  8.10124E-01
    9001.169      7.259   1.920  1.77955E+00  1.00524E+00  7.74312E-01
    9001.761      7.850   1.960  1.71989E+00  1.00825E+00  7.11638E-01
    9002.364      8.454   2.000  1.64844E+00  1.01075E+00  6.37690E-01
    9002.980      9.070   2.040  1.57909E+00  1.01276E+00  5.66338E-01
    9003.608      9.698   2.080  1.51325E+00  1.01432E+00  4.98924E-01
    9004.248     10.338   2.120  1.43859E+00  1.01548E+00  4.23116E-01
    9004.900     10.990   2.160  1.35882E+00  1.01625E+00  3.42569E-01
    9005.564     11.654   2.200  1.28394E+00  1.01670E+00  2.67245E-01
    9006.241     12.331   2.240  1.21042E+00  1.01684E+00  1.93582E-01
    9006.930     13.020   2.280  1.13019E+00  1.01672E+00  1.13462E-01
    9007.631     13.721   2.320  1.04821E+00  1.01636E+00  3.18436E-02
    9008.344     14.434   2.360  9.83269E-01  1.01580E+00 -3.25283E-02
    9009.070     15.160   2.400  9.50784E-01  1.01508E+00 -6.42950E-02
    9009.807     15.897   2.440  9.50419E-01  1.01418E+00 -6.37621E-02
    9010.557     16.647   2.480  9.56788E-01  1.01318E+00 -5.63937E-02
    9011.319     17.409   2.520  9.62762E-01  1.01209E+00 -4.93279E-02
    9012.093     18.183   2.560  9.67780E-01  1.01092E+00 -4.31381E-02
    9012.880     18.970   2.600  9.70802E-01  1.00970E+00 -3.88970E-02
    9013.678     19.768   2.640  9.71010E-01  1.00844E+00 -3.74283E-02
    9014.489     20.579   2.680  9.68231E-01  1.00717E+00 -3.89373E-02
    9015.312     21.402   2.720  9.63048E-01  1.00587E+00 -4.28262E-02
    9016.147     22.237   2.760  9.55969E-01  1.00461E+00 -4.86386E-02
    9016.994     23.084   2.800  9.47044E-01  1.00337E+00 -5.63298E-02
    9017.854     23.944   2.840  9.36045E-01  1.00218E+00 -6.61349E-02
    9018.726     24.816   2.880  9.22581E-01  1.00103E+00 -7.84490E-02
    9019.610     25.699   2.920  9.06279E-01  9.99949E-01 -9.36705E-02
    9020.506     26.596   2.960  8.87336E-01  9.98922E-01 -1.11586E-01
    9021.414     27.504   3.000  8.66679E-01  9.97973E-01 -1.31294E-01
    9022.334     28.424   3.040  8.45701E-01  9.97104E-01 -1.51402E-01
    9023.267     29.357   3.080  8.26063E-01  9.96317E-01 -1.70254E-01
    9024.212     30.302   3.120  8.09440E-01  9.95637E-01 -1.86197E-01
    9025.169     31.259   3.160  7.97183E-01  9.95025E-01 -1.97842E-01
    9026.138     32.228   3.200  7.90286E-01  9.94542E-01 -2.04256E-01
    9027.120     33.210   3.240  7.89176E-01  9.94128E-01 -2.04952E-01
    9028.113     34.203   3.280  7.93598E-01  9.93827E-01 -2.00229E-01
    9029.119     35.209   3.320  8.02891E-01  9.93638E-01 -1.90747E-01
    9030.137     36.227   3.360  8.15614E-01  9.93538E-01 -1.77924E-01
    9031.167     37.257   3.400  8.30648E-01  9.93528E-01 -1.62880E-01
    9032.210     38.300   3.440  8.47066E-01  9.93630E-01 -1.46564E-01
    9033.265     39.354   3.480  8.64305E-01  9.93822E-01 -1.29517E-01
    9034.331     40.421   3.520  8.82094E-01  9.94123E-01 -1.12029E-01
    9035.410     41.500   3.560  9.00524E-01  9.94511E-01 -9.39867E-02
    9036.501     42.591   3.600  9.20023E-01  9.94983E-01 -7.49603E-02
    9037.605     43.695   3.640  9.41050E-01  9.95538E-01 -5.44882E-02
    9038.720     44.810   3.680  9.63789E-01  9.96176E-01 -3.23869E-02
    9039.848     45.938   3.720  9.88205E-01  9.96893E-01 -8.68864E-03
    9040.988     47.078   3.760  1.01407E+00  9.97689E-01  1.63769E-02
    9042.140     48.230   3.800  1.04097E+00  9.98561E-01  4.24122E-02
    9043.305     49.395   3.840  1.06827E+00  9.99485E-01  6.87882E-02
    9044.481     50.571   3.880  1.09527E+00  1.00048E+00  9.47898E-02
    9045.670     51.760   3.920  1.12092E+00  1.00152E+00  1.19398E-01
    9046.871     52.961   3.960  1.14369E+00  1.00261E+00  1.41087E-01
    9048.084     54.174   4.000  1.16178E+00  1.00376E+00  1.58025E-01
    9049.309     55.399   4.040  1.17360E+00  1.00492E+00  1.68683E-01
    9050.547     56.637   4.080  1.17863E+00  1.00612E+00  1.72515E-01
    9051.796     57.886   4.120  1.17743E+00  1.00733E+00  1.70106E-01
    9053.058     59.148   4.160  1.17124E+00  1.00856E+00  1.62677E-01
    9054.332     60.422   4.200  1.16123E+00  1.00981E+00  1.51423E-01
    9055.618     61.708   4.240  1.14834E+00  1.01107E+00  1.37268E-01
    9056.917     63.007   4.280  1.13319E+00  1.01231E+00  1.20876E-01
    9058.228     64.317   4.320  1.11655E+00  1.01355E+00  1.02998E-01
    9059.550     65.640   4.360  1.09939E+00  1.01478E+00  8.46098E-02
    9060.885     66.975   4.400  1.08281E+00  1.01598E+00  6.68326E-02
    9062.233     68.323   4.440  1.06772E+00  1.01716E+00  5.05616E-02
    9063.592     69.682   4.480  1.05455E+00  1.01828E+00  3.62687E-02
    9064.964     71.054   4.520  1.04346E+00  1.01939E+00  2.40690E-02
    9066.347     72.437   4.560  1.03446E+00  1.02047E+00  1.39849E-02
    9067.743     73.833   4.600  1.02752E+00  1.02147E+00  6.04678E-03
    9069.152     75.241   4.640  1.02266E+00  1.02244E+00  2.20812E-04
    9070.572     76.662   4.680  1.01961E+00  1.02334E+00 -3.73839E-03
    9072.004     78.094   4.720  1.01783E+00  1.02420E+00 -6.36264E-03
    9073.449     79.539   4.760  1.01655E+00  1.02499E+00 -8.44354E-03
    9074.906     80.996   4.800  1.01483E+00  1.02569E+00 -1.08668E-02
    9076.375     82.465   4.840  1.01211E+00  1.02634E+00 -1.42338E-02
    9077.857     83.947   4.880  1.00847E+00  1.02693E+00 -1.84595E-02
    9079.350     85.440   4.920  1.00454E+00  1.02742E+00 -2.28765E-02
    9080.856     86.946   4.960  1.00104E+00  1.02785E+00 -2.68068E-02
    9082.374     88.464   5.000  9.98103E-01  1.02819E+00 -3.00910E-02
    9083.904     89.994   5.040  9.95221E-01  1.02846E+00 -3.32421E-02
    9085.446     91.536   5.080  9.91666E-01  1.02865E+00 -3.69845E-02
    9087.001     93.090   5.120  9.87038E-01  1.02878E+00 -4.17417E-02
    9088.567     94.657   5.160  9.81452E-01  1.02881E+00 -4.73540E-02
    9090.146     96.236   5.200  9.75558E-01  1.02877E+00 -5.32168E-02
    9091.737     97.827   5.240  9.70004E-01  1.02866E+00 -5.86594E-02
    9093.340     99.430   5.280  9.65274E-01  1.02847E+00 -6.31976E-02
    9094.956    101.046   5.320  9.61484E-01  1.02820E+00 -6.67169E-02
    9096.583    102.673   5.360  9.58435E-01  1.02788E+00 -6.94428E-02
    9098.223    104.313   5.400  9.55689E-01  1.02748E+00 -7.17885E-02
    9099.875    105.965   5.440  9.52928E-01  1.02700E+00 -7.40744E-02
    9101.539    107.629   5.480  9.50098E-01  1.02650E+00 -7.64035E-02
    9103.216    109.306   5.520  9.47229E-01  1.02591E+00 -7.86792E-02
    9104.904    110.994   5.560  9.44796E-01  1.02529E+00 -8.04926E-02
    9106.605    112.695   5.600  9.43576E-01  1.02460E+00 -8.10271E-02
    9108.318    114.408   5.640  9.44726E-01  1.02387E+00 -7.91488E-02
    9110.043    116.133   5.680  9.49396E-01  1.02313E+00 -7.37344E-02
    9111.781    117.871   5.720  9.58335E-01  1.02233E+00 -6.39912E-02
    9113.530    119.620   5.760  9.71858E-01  1.02151E+00 -4.96504E-02
    9115.292    121.382   5.800  9.89552E-01  1.02066E+00 -3.11060E-02
    9117.066    123.156   5.840  1.01020E+00  1.01978E+00 -9.57133E-03
    9118.852    124.942   5.880  1.03187E+00  1.01889E+00  1.29774E-02
    9120.650    126.740   5.920  1.05234E+00  1.01802E+00  3.43222E-02
    9122.461    128.551   5.960  1.06949E+00  1.01713E+00  5.23554E-02
    9124.284    130.373   6.000  1.08160E+00  1.01624E+00  6.53675E-02
