# # comment:                                                     FEFF 9.9.1  
# # Source:
# # Structure
# # Reduced
# # space
# # abc:
# # angles:
# # sites:
# # POT  SCF 100  7.0000   0, screened core-hole, AFOLP (folp(0)= 1.150)
# # Abs   Z=29 Rmt= 1.359 Rnm= 1.418 K  shell
# # Pot 1 Z= 3 Rmt= 1.237 Rnm= 1.297
# # Pot 2 Z=29 Rmt= 1.359 Rnm= 1.418
# # Pot 3 Z=15 Rmt= 0.944 Rnm= 1.155
# # Pot 4 Z= 8 Rmt= 0.939 Rnm= 1.042
# # Gam_ch=1.729E+00 H-L exch Vi= 0.000E+00 Vr= 0.000E+00
# # Mu=-6.740E+00eV kf=2.365E+00 Vint=-1.774E+01eV Rs_int= 1.534
# FMS rfms= 9.0000
# # PATH  Rmax=-1.000,  Keep_limit= 0.00, Heap_limit 0.00  Pwcrit= 2.50%
#  S02=0.950  Temp=   0.00  Debye_temp=   0.00  Global_sig2= 0.00000
#  Energy zero shift, vr, vi    0.00000E+00   0.00000E+00
#  Curved wave amplitude ratio filter   4.000%
#     file         sig2 tot  cw amp ratio   deg  nlegs   reff  inp sig2
#     0/   0 paths used
#  xsedge+ 50, used to normalize mu           2.4683E-04
#  -----------------------------------------------------------------------
#  omega    e    k    mu    mu0     chi     @#
    8983.888    -10.550  -1.000  5.56510E-02  5.49090E-02  7.42000E-04
    8984.187    -10.251  -0.960  5.97527E-02  5.89277E-02  8.24979E-04
    8984.473     -9.964  -0.920  6.43276E-02  6.33975E-02  9.30146E-04
    8984.748     -9.690  -0.880  6.94487E-02  6.83852E-02  1.06343E-03
    8985.010     -9.428  -0.840  7.52010E-02  7.39691E-02  1.23194E-03
    8985.260     -9.178  -0.800  8.16835E-02  8.02394E-02  1.44410E-03
    8985.498     -8.940  -0.760  8.90099E-02  8.73002E-02  1.70965E-03
    8985.723     -8.715  -0.720  9.73087E-02  9.52691E-02  2.03965E-03
    8985.937     -8.501  -0.680  1.06722E-01  1.04276E-01  2.44629E-03
    8986.138     -8.300  -0.640  1.17399E-01  1.14457E-01  2.94260E-03
    8986.327     -8.111  -0.600  1.29489E-01  1.25947E-01  3.54199E-03
    8986.503     -7.934  -0.560  1.43119E-01  1.38862E-01  4.25761E-03
    8986.668     -7.770  -0.520  1.58372E-01  1.53270E-01  5.10161E-03
    8986.820     -7.617  -0.480  1.75241E-01  1.69157E-01  6.08426E-03
    8986.961     -7.477  -0.440  1.93596E-01  1.86384E-01  7.21277E-03
    8987.089     -7.349  -0.400  2.13137E-01  2.04647E-01  8.48944E-03
    8987.204     -7.233  -0.360  2.33383E-01  2.23474E-01  9.90840E-03
    8987.308     -7.130  -0.320  2.53698E-01  2.42247E-01  1.14511E-02
    8987.400     -7.038  -0.280  2.73364E-01  2.60283E-01  1.30816E-02
    8987.479     -6.959  -0.240  2.91668E-01  2.76924E-01  1.47434E-02
    8987.546     -6.892  -0.200  3.07985E-01  2.91623E-01  1.63617E-02
    8987.601     -6.837  -0.160  3.21832E-01  3.03981E-01  1.78510E-02
    8987.643     -6.795  -0.120  3.32869E-01  3.13744E-01  1.91250E-02
    8987.674     -6.764  -0.080  3.40878E-01  3.20774E-01  2.01043E-02
    8987.698     -6.740   0.000  3.47353E-01  3.26419E-01  2.09333E-02
    8987.753     -6.685   0.120  3.61747E-01  3.39158E-01  2.25882E-02
    8987.796     -6.642   0.160  3.73104E-01  3.49023E-01  2.40804E-02
    8987.851     -6.587   0.200  3.87811E-01  3.61624E-01  2.61872E-02
    8987.918     -6.520   0.240  4.05816E-01  3.76776E-01  2.90397E-02
    8987.997     -6.441   0.280  4.26895E-01  3.94121E-01  3.27738E-02
    8988.088     -6.350   0.320  4.50695E-01  4.13216E-01  3.74793E-02
    8988.192     -6.246   0.360  4.76605E-01  4.33487E-01  4.31182E-02
    8988.308     -6.130   0.400  5.03694E-01  4.54309E-01  4.93852E-02
    8988.436     -6.002   0.440  5.30688E-01  4.75147E-01  5.55404E-02
    8988.576     -5.862   0.480  5.55807E-01  4.95535E-01  6.02718E-02
    8988.728     -5.709   0.520  5.76969E-01  5.15224E-01  6.17453E-02
    8988.893     -5.545   0.560  5.92038E-01  5.34068E-01  5.79698E-02
    8989.070     -5.368   0.600  5.99487E-01  5.52038E-01  4.74482E-02
    8989.259     -5.179   0.640  5.98889E-01  5.69220E-01  2.96688E-02
    8989.460     -4.978   0.680  5.90528E-01  5.85698E-01  4.82996E-03
    8989.673     -4.765   0.720  5.74536E-01  6.01570E-01 -2.70347E-02
    8989.899     -4.539   0.760  5.50993E-01  6.16936E-01 -6.59435E-02
    8990.137     -4.301   0.800  5.22161E-01  6.31924E-01 -1.09764E-01
    8990.387     -4.051   0.840  4.94255E-01  6.46590E-01 -1.52335E-01
    8990.649     -3.789   0.880  4.75557E-01  6.60994E-01 -1.85438E-01
    8990.923     -3.515   0.920  4.71688E-01  6.75225E-01 -2.03537E-01
    8991.210     -3.228   0.960  4.82353E-01  6.89297E-01 -2.06944E-01
    8991.508     -2.930   1.000  5.01895E-01  7.03231E-01 -2.01337E-01
    8991.819     -2.619   1.040  5.23320E-01  7.17043E-01 -1.93723E-01
    8992.142     -2.296   1.080  5.43159E-01  7.30777E-01 -1.87619E-01
    8992.477     -1.960   1.120  5.63199E-01  7.44390E-01 -1.81191E-01
    8992.825     -1.613   1.160  5.88762E-01  7.57894E-01 -1.69132E-01
    8993.185     -1.253   1.200  6.23170E-01  7.71299E-01 -1.48129E-01
    8993.556     -0.881   1.240  6.66104E-01  7.84546E-01 -1.18443E-01
    8993.941     -0.497   1.280  7.19299E-01  7.97655E-01 -7.83559E-02
    8994.337     -0.101   1.320  7.87154E-01  8.10582E-01 -2.34283E-02
    8994.745      0.307   1.360  8.68858E-01  8.23324E-01  4.55339E-02
    8995.166      0.728   1.400  9.53532E-01  8.35836E-01  1.17696E-01
    8995.599      1.161   1.440  1.02624E+00  8.48108E-01  1.78135E-01
    8996.044      1.606   1.480  1.07861E+00  8.60111E-01  2.18503E-01
    8996.501      2.063   1.520  1.11653E+00  8.71817E-01  2.44715E-01
    8996.970      2.532   1.560  1.15784E+00  8.83198E-01  2.74639E-01
    8997.452      3.014   1.600  1.22197E+00  8.94244E-01  3.27726E-01
    8997.946      3.508   1.640  1.30564E+00  9.04926E-01  4.00718E-01
    8998.452      4.014   1.680  1.38710E+00  9.15216E-01  4.71882E-01
    8998.970      4.532   1.720  1.43664E+00  9.25107E-01  5.11533E-01
    8999.500      5.062   1.760  1.42288E+00  9.34591E-01  4.88291E-01
    9000.043      5.605   1.800  1.34548E+00  9.43623E-01  4.01853E-01
    9000.597      6.159   1.840  1.24546E+00  9.52217E-01  2.93240E-01
    9001.164      6.726   1.880  1.16429E+00  9.60350E-01  2.03936E-01
    9001.743      7.305   1.920  1.10572E+00  9.68038E-01  1.37684E-01
    9002.335      7.897   1.960  1.06718E+00  9.75218E-01  9.19652E-02
    9002.938      8.500   2.000  1.05088E+00  9.81950E-01  6.89332E-02
    9003.554      9.116   2.040  1.05085E+00  9.88195E-01  6.26541E-02
    9004.182      9.744   2.080  1.05441E+00  9.93975E-01  6.04309E-02
    9004.822     10.384   2.120  1.05011E+00  9.99290E-01  5.08206E-02
    9005.474     11.036   2.160  1.03435E+00  1.00413E+00  3.02245E-02
    9006.139     11.701   2.200  1.00857E+00  1.00850E+00  7.08810E-05
    9006.815     12.377   2.240  9.78688E-01  1.01245E+00 -3.37621E-02
    9007.504     13.066   2.280  9.54656E-01  1.01595E+00 -6.12973E-02
    9008.205     13.767   2.320  9.42299E-01  1.01904E+00 -7.67393E-02
    9008.918     14.480   2.360  9.39086E-01  1.02171E+00 -8.26262E-02
    9009.644     15.206   2.400  9.39636E-01  1.02398E+00 -8.43477E-02
    9010.381     15.943   2.440  9.41840E-01  1.02590E+00 -8.40619E-02
    9011.131     16.693   2.480  9.44986E-01  1.02743E+00 -8.24479E-02
    9011.893     17.455   2.520  9.46272E-01  1.02863E+00 -8.23585E-02
    9012.667     18.229   2.560  9.43648E-01  1.02952E+00 -8.58730E-02
    9013.454     19.016   2.600  9.38251E-01  1.03010E+00 -9.18444E-02
    9014.252     19.814   2.640  9.31131E-01  1.03038E+00 -9.92531E-02
    9015.063     20.625   2.680  9.22691E-01  1.03042E+00 -1.07725E-01
    9015.886     21.448   2.720  9.15424E-01  1.03020E+00 -1.14778E-01
    9016.721     22.283   2.760  9.17170E-01  1.02975E+00 -1.12582E-01
    9017.569     23.131   2.800  9.30906E-01  1.02912E+00 -9.82120E-02
    9018.428     23.990   2.840  9.49162E-01  1.02829E+00 -7.91235E-02
    9019.300     24.862   2.880  9.66678E-01  1.02729E+00 -6.06082E-02
    9020.184     25.746   2.920  9.80547E-01  1.02613E+00 -4.55814E-02
    9021.080     26.642   2.960  9.90226E-01  1.02484E+00 -3.46172E-02
    9021.988     27.550   3.000  9.96342E-01  1.02344E+00 -2.70963E-02
    9022.909     28.471   3.040  9.99654E-01  1.02196E+00 -2.23100E-02
    9023.841     29.403   3.080  1.00076E+00  1.02039E+00 -1.96208E-02
    9024.786     30.348   3.120  1.00036E+00  1.01873E+00 -1.83675E-02
    9025.743     31.305   3.160  9.99006E-01  1.01703E+00 -1.80234E-02
    9026.712     32.275   3.200  9.96907E-01  1.01531E+00 -1.84008E-02
    9027.694     33.256   3.240  9.93934E-01  1.01355E+00 -1.96178E-02
    9028.688     34.250   3.280  9.89756E-01  1.01177E+00 -2.20122E-02
    9029.693     35.256   3.320  9.84593E-01  1.01000E+00 -2.54112E-02
    9030.711     36.274   3.360  9.79209E-01  1.00824E+00 -2.90347E-02
    9031.742     37.304   3.400  9.74733E-01  1.00649E+00 -3.17595E-02
    9032.784     38.346   3.440  9.72250E-01  1.00480E+00 -3.25467E-02
    9033.839     39.401   3.480  9.72449E-01  1.00312E+00 -3.06708E-02
    9034.905     40.468   3.520  9.75718E-01  1.00151E+00 -2.57879E-02
    9035.984     41.547   3.560  9.82021E-01  9.99938E-01 -1.79176E-02
    9037.076     42.638   3.600  9.91005E-01  9.98419E-01 -7.41347E-03
    9038.179     43.741   3.640  1.00221E+00  9.96973E-01  5.24003E-03
    9039.295     44.857   3.680  1.01518E+00  9.95604E-01  1.95814E-02
    9040.422     45.984   3.720  1.02943E+00  9.94314E-01  3.51161E-02
    9041.562     47.124   3.760  1.04443E+00  9.93106E-01  5.13252E-02
    9042.714     48.277   3.800  1.05949E+00  9.92000E-01  6.74930E-02
    9043.879     49.441   3.840  1.07353E+00  9.90959E-01  8.25665E-02
    9045.055     50.617   3.880  1.08536E+00  9.90023E-01  9.53347E-02
    9046.244     51.806   3.920  1.09385E+00  9.89172E-01  1.04680E-01
    9047.445     53.007   3.960  1.09810E+00  9.88407E-01  1.09697E-01
    9048.658     54.220   4.000  1.09756E+00  9.87748E-01  1.09811E-01
    9049.883     55.445   4.040  1.09223E+00  9.87177E-01  1.05054E-01
    9051.121     56.683   4.080  1.08264E+00  9.86692E-01  9.59503E-02
    9052.370     57.933   4.120  1.06970E+00  9.86315E-01  8.33805E-02
    9053.632     59.194   4.160  1.05441E+00  9.86024E-01  6.83879E-02
    9054.906     60.468   4.200  1.03782E+00  9.85816E-01  5.20001E-02
    9056.193     61.755   4.240  1.02073E+00  9.85694E-01  3.50325E-02
    9057.491     63.053   4.280  1.00388E+00  9.85677E-01  1.82041E-02
    9058.802     64.364   4.320  9.87837E-01  9.85743E-01  2.09432E-03
    9060.125     65.687   4.360  9.73032E-01  9.85888E-01 -1.28563E-02
    9061.460     67.022   4.400  9.59795E-01  9.86091E-01 -2.62956E-02
    9062.807     68.369   4.440  9.48399E-01  9.86392E-01 -3.79925E-02
    9064.166     69.728   4.480  9.38851E-01  9.86747E-01 -4.78962E-02
    9065.538     71.100   4.520  9.31209E-01  9.87176E-01 -5.59674E-02
    9066.922     72.484   4.560  9.25592E-01  9.87676E-01 -6.20840E-02
    9068.318     73.880   4.600  9.22146E-01  9.88202E-01 -6.60553E-02
    9069.726     75.288   4.640  9.21109E-01  9.88815E-01 -6.77057E-02
    9071.146     76.708   4.680  9.22424E-01  9.89449E-01 -6.70248E-02
    9072.579     78.141   4.720  9.25830E-01  9.90122E-01 -6.42928E-02
    9074.023     79.585   4.760  9.30952E-01  9.90832E-01 -5.98805E-02
    9075.480     81.042   4.800  9.37437E-01  9.91577E-01 -5.41400E-02
    9076.949     82.512   4.840  9.44933E-01  9.92333E-01 -4.74004E-02
    9078.431     83.993   4.880  9.53064E-01  9.93118E-01 -4.00536E-02
    9079.924     85.486   4.920  9.61319E-01  9.93909E-01 -3.25900E-02
    9081.430     86.992   4.960  9.69244E-01  9.94724E-01 -2.54803E-02
    9082.948     88.510   5.000  9.76511E-01  9.95517E-01 -1.90054E-02
    9084.478     90.040   5.040  9.83005E-01  9.96305E-01 -1.32997E-02
    9086.020     91.582   5.080  9.88722E-01  9.97087E-01 -8.36447E-03
    9087.575     93.137   5.120  9.93736E-01  9.97837E-01 -4.10066E-03
    9089.141     94.703   5.160  9.98296E-01  9.98577E-01 -2.80932E-04
    9090.720     96.282   5.200  1.00274E+00  9.99282E-01  3.45795E-03
    9092.311     97.873   5.240  1.00746E+00  9.99949E-01  7.51586E-03
    9093.915     99.477   5.280  1.01273E+00  1.00060E+00  1.21294E-02
    9095.530    101.092   5.320  1.01834E+00  1.00118E+00  1.71585E-02
    9097.158    102.720   5.360  1.02373E+00  1.00172E+00  2.20094E-02
    9098.797    104.359   5.400  1.02803E+00  1.00222E+00  2.58142E-02
    9100.449    106.011   5.440  1.03039E+00  1.00265E+00  2.77422E-02
    9102.114    107.676   5.480  1.03035E+00  1.00302E+00  2.73253E-02
    9103.790    109.352   5.520  1.02799E+00  1.00335E+00  2.46373E-02
    9105.479    111.041   5.560  1.02384E+00  1.00361E+00  2.02331E-02
    9107.179    112.741   5.600  1.01872E+00  1.00379E+00  1.49351E-02
    9108.892    114.454   5.640  1.01353E+00  1.00392E+00  9.61259E-03
    9110.617    116.180   5.680  1.00901E+00  1.00397E+00  5.03534E-03
    9112.355    117.917   5.720  1.00574E+00  1.00398E+00  1.76069E-03
    9114.104    119.666   5.760  1.00391E+00  1.00388E+00  3.16956E-05
    9115.866    121.428   5.800  1.00344E+00  1.00373E+00 -2.93086E-04
    9117.640    123.202   5.840  1.00376E+00  1.00351E+00  2.49986E-04
    9119.426    124.988   5.880  1.00412E+00  1.00324E+00  8.73824E-04
    9121.224    126.787   5.920  1.00386E+00  1.00291E+00  9.51267E-04
    9123.035    128.597   5.960  1.00297E+00  1.00251E+00  4.51615E-04
    9124.858    130.420   6.000  1.00207E+00  1.00197E+00  9.50475E-05
