# # comment:                                                     FEFF 9.9.1  
# # Source:
# # Structure
# # Reduced
# # space
# # abc:
# # angles:
# # sites:
# # POT  SCF 100  7.0000   0, screened core-hole, AFOLP (folp(0)= 1.150)
# # Abs   Z=29 Rmt= 1.212 Rnm= 1.319 K  shell
# # Pot 1 Z=29 Rmt= 1.212 Rnm= 1.319
# # Pot 2 Z=50 Rmt= 1.490 Rnm= 1.564
# # Pot 3 Z= 8 Rmt= 1.024 Rnm= 1.102
# # Gam_ch=1.729E+00 H-L exch Vi= 0.000E+00 Vr= 0.000E+00
# # Mu=-6.514E+00eV kf=2.168E+00 Vint=-1.507E+01eV Rs_int= 1.673
# FMS rfms= 9.0000
# # PATH  Rmax=-1.000,  Keep_limit= 0.00, Heap_limit 0.00  Pwcrit= 2.50%
#  S02=0.950  Temp=   0.00  Debye_temp=   0.00  Global_sig2= 0.00000
#  Energy zero shift, vr, vi    0.00000E+00   0.00000E+00
#  Curved wave amplitude ratio filter   4.000%
#     file         sig2 tot  cw amp ratio   deg  nlegs   reff  inp sig2
#     0/   0 paths used
#  xsedge+ 50, used to normalize mu           2.4454E-04
#  -----------------------------------------------------------------------
#  omega    e    k    mu    mu0     chi     @#
    8983.456    -10.324  -1.000  3.99283E-02  5.72999E-02 -1.73716E-02
    8983.754    -10.026  -0.960  4.21733E-02  6.15301E-02 -1.93568E-02
    8984.041     -9.739  -0.920  4.46201E-02  6.62345E-02 -2.16144E-02
    8984.315     -9.465  -0.880  4.72969E-02  7.14831E-02 -2.41862E-02
    8984.577     -9.203  -0.840  5.02365E-02  7.73572E-02 -2.71207E-02
    8984.827     -8.953  -0.800  5.34777E-02  8.39513E-02 -3.04736E-02
    8985.065     -8.715  -0.760  5.70654E-02  9.13736E-02 -3.43082E-02
    8985.290     -8.489  -0.720  6.10512E-02  9.97464E-02 -3.86952E-02
    8985.504     -8.276  -0.680  6.54926E-02  1.09204E-01 -4.37118E-02
    8985.705     -8.075  -0.640  7.04510E-02  1.19890E-01 -4.94389E-02
    8985.894     -7.886  -0.600  7.59873E-02  1.31942E-01 -5.59550E-02
    8986.071     -7.709  -0.560  8.21532E-02  1.45481E-01 -6.33278E-02
    8986.235     -7.544  -0.520  8.89778E-02  1.60577E-01 -7.15990E-02
    8986.388     -7.392  -0.480  9.64491E-02  1.77214E-01 -8.07653E-02
    8986.528     -7.252  -0.440  1.04492E-01  1.95248E-01 -9.07557E-02
    8986.656     -7.124  -0.400  1.12950E-01  2.14362E-01 -1.01412E-01
    8986.772     -7.008  -0.360  1.21585E-01  2.34064E-01 -1.12479E-01
    8986.875     -6.904  -0.320  1.30092E-01  2.53713E-01 -1.23621E-01
    8986.967     -6.813  -0.280  1.38146E-01  2.72595E-01 -1.34448E-01
    8987.046     -6.734  -0.240  1.45452E-01  2.90024E-01 -1.44572E-01
    8987.113     -6.667  -0.200  1.51786E-01  3.05429E-01 -1.53643E-01
    8987.168     -6.612  -0.160  1.57009E-01  3.18387E-01 -1.61377E-01
    8987.211     -6.569  -0.120  1.61063E-01  3.28630E-01 -1.67566E-01
    8987.241     -6.539  -0.080  1.63937E-01  3.36009E-01 -1.72072E-01
    8987.266     -6.514   0.000  1.66204E-01  3.41938E-01 -1.75733E-01
    8987.320     -6.459   0.120  1.71174E-01  3.55312E-01 -1.84137E-01
    8987.363     -6.417   0.160  1.74965E-01  3.65703E-01 -1.90738E-01
    8987.418     -6.362   0.200  1.79636E-01  3.78966E-01 -1.99330E-01
    8987.485     -6.295   0.240  1.85005E-01  3.94921E-01 -2.09916E-01
    8987.564     -6.216   0.280  1.90789E-01  4.13252E-01 -2.22463E-01
    8987.656     -6.124   0.320  1.96618E-01  4.33493E-01 -2.36875E-01
    8987.759     -6.020   0.360  2.02063E-01  4.55026E-01 -2.52963E-01
    8987.875     -5.905   0.400  2.06821E-01  4.77256E-01 -2.70436E-01
    8988.003     -5.777   0.440  2.10776E-01  4.99580E-01 -2.88804E-01
    8988.143     -5.636   0.480  2.14218E-01  5.21582E-01 -3.07364E-01
    8988.296     -5.484   0.520  2.17853E-01  5.42964E-01 -3.25111E-01
    8988.460     -5.319   0.560  2.22788E-01  5.63576E-01 -3.40788E-01
    8988.637     -5.143   0.600  2.30265E-01  5.83381E-01 -3.53117E-01
    8988.826     -4.954   0.640  2.41656E-01  6.02439E-01 -3.60783E-01
    8989.027     -4.753   0.680  2.58173E-01  6.20786E-01 -3.62613E-01
    8989.241     -4.539   0.720  2.81106E-01  6.38554E-01 -3.57448E-01
    8989.466     -4.314   0.760  3.11358E-01  6.55834E-01 -3.44476E-01
    8989.704     -4.076   0.800  3.48751E-01  6.72665E-01 -3.23914E-01
    8989.954     -3.826   0.840  3.90771E-01  6.89154E-01 -2.98383E-01
    8990.216     -3.564   0.880  4.31209E-01  7.05310E-01 -2.74102E-01
    8990.490     -3.289   0.920  4.61052E-01  7.21192E-01 -2.60140E-01
    8990.777     -3.003   0.960  4.71977E-01  7.36802E-01 -2.64825E-01
    8991.076     -2.704   1.000  4.63276E-01  7.52154E-01 -2.88878E-01
    8991.386     -2.393   1.040  4.46639E-01  7.67249E-01 -3.20610E-01
    8991.710     -2.070   1.080  4.38460E-01  7.82064E-01 -3.43604E-01
    8992.045     -1.735   1.120  4.47050E-01  7.96588E-01 -3.49537E-01
    8992.392     -1.388   1.160  4.69881E-01  8.10803E-01 -3.40922E-01
    8992.752     -1.028   1.200  5.01964E-01  8.24692E-01 -3.22729E-01
    8993.124     -0.656   1.240  5.43248E-01  8.38212E-01 -2.94964E-01
    8993.508     -0.272   1.280  5.91861E-01  8.51357E-01 -2.59495E-01
    8993.904      0.124   1.320  6.33556E-01  8.64082E-01 -2.30526E-01
    8994.313      0.533   1.360  6.50140E-01  8.76382E-01 -2.26242E-01
    8994.733      0.953   1.400  6.38581E-01  8.88208E-01 -2.49626E-01
    8995.166      1.386   1.440  6.16691E-01  8.99554E-01 -2.82863E-01
    8995.611      1.831   1.480  6.10544E-01  9.10416E-01 -2.99872E-01
    8996.068      2.288   1.520  6.37687E-01  9.20749E-01 -2.83063E-01
    8996.538      2.758   1.560  7.04451E-01  9.30549E-01 -2.26098E-01
    8997.019      3.239   1.600  8.04505E-01  9.39812E-01 -1.35307E-01
    8997.513      3.733   1.640  9.14088E-01  9.48538E-01 -3.44503E-02
    8998.019      4.239   1.680  1.00542E+00  9.56709E-01  4.87127E-02
    8998.537      4.757   1.720  1.07372E+00  9.64325E-01  1.09391E-01
    8999.067      5.288   1.760  1.14788E+00  9.71387E-01  1.76493E-01
    8999.610      5.830   1.800  1.25486E+00  9.77922E-01  2.76942E-01
    9000.165      6.385   1.840  1.37066E+00  9.83936E-01  3.86726E-01
    9000.732      6.952   1.880  1.45022E+00  9.89415E-01  4.60807E-01
    9001.311      7.531   1.920  1.49664E+00  9.94385E-01  5.02252E-01
    9001.902      8.122   1.960  1.52664E+00  9.98855E-01  5.27786E-01
    9002.506      8.726   2.000  1.51033E+00  1.00286E+00  5.07473E-01
    9003.121      9.341   2.040  1.42314E+00  1.00642E+00  4.16718E-01
    9003.749      9.969   2.080  1.31198E+00  1.00953E+00  3.02450E-01
    9004.389     10.609   2.120  1.23457E+00  1.01223E+00  2.22347E-01
    9005.041     11.262   2.160  1.20164E+00  1.01451E+00  1.87122E-01
    9005.706     11.926   2.200  1.19504E+00  1.01645E+00  1.78590E-01
    9006.383     12.603   2.240  1.19234E+00  1.01802E+00  1.74324E-01
    9007.071     13.292   2.280  1.18427E+00  1.01928E+00  1.64989E-01
    9007.772     13.993   2.320  1.17291E+00  1.02022E+00  1.52694E-01
    9008.486     14.706   2.360  1.16257E+00  1.02089E+00  1.41675E-01
    9009.211     15.431   2.400  1.15530E+00  1.02129E+00  1.34008E-01
    9009.949     16.169   2.440  1.15701E+00  1.02146E+00  1.35545E-01
    9010.699     16.919   2.480  1.17278E+00  1.02140E+00  1.51379E-01
    9011.461     17.681   2.520  1.18614E+00  1.02116E+00  1.64981E-01
    9012.235     18.455   2.560  1.16914E+00  1.02075E+00  1.48397E-01
    9013.021     19.241   2.600  1.11656E+00  1.02017E+00  9.63884E-02
    9013.820     20.040   2.640  1.06653E+00  1.01946E+00  4.70661E-02
    9014.630     20.851   2.680  1.02655E+00  1.01863E+00  7.92269E-03
    9015.453     21.674   2.720  9.97201E-01  1.01768E+00 -2.04821E-02
    9016.289     22.509   2.760  9.77017E-01  1.01667E+00 -3.96533E-02
    9017.136     23.356   2.800  9.62429E-01  1.01556E+00 -5.31293E-02
    9017.995     24.216   2.840  9.50202E-01  1.01442E+00 -6.42132E-02
    9018.867     25.087   2.880  9.38294E-01  1.01321E+00 -7.49147E-02
    9019.751     25.971   2.920  9.25672E-01  1.01198E+00 -8.63123E-02
    9020.647     26.867   2.960  9.12305E-01  1.01073E+00 -9.84229E-02
    9021.555     27.776   3.000  8.99294E-01  1.00947E+00 -1.10171E-01
    9022.476     28.696   3.040  8.88375E-01  1.00822E+00 -1.19849E-01
    9023.409     29.629   3.080  8.81058E-01  1.00697E+00 -1.25908E-01
    9024.353     30.574   3.120  8.77709E-01  1.00574E+00 -1.28027E-01
    9025.311     31.531   3.160  8.77072E-01  1.00454E+00 -1.27467E-01
    9026.280     32.500   3.200  8.77573E-01  1.00338E+00 -1.25805E-01
    9027.261     33.481   3.240  8.78222E-01  1.00224E+00 -1.24013E-01
    9028.255     34.475   3.280  8.78766E-01  1.00116E+00 -1.22390E-01
    9029.261     35.481   3.320  8.79563E-01  1.00012E+00 -1.20559E-01
    9030.279     36.499   3.360  8.81275E-01  9.99157E-01 -1.17882E-01
    9031.309     37.529   3.400  8.84257E-01  9.98242E-01 -1.13985E-01
    9032.351     38.572   3.440  8.88542E-01  9.97398E-01 -1.08855E-01
    9033.406     39.626   3.480  8.94352E-01  9.96606E-01 -1.02254E-01
    9034.473     40.693   3.520  9.02144E-01  9.95889E-01 -9.37451E-02
    9035.552     41.772   3.560  9.12048E-01  9.95247E-01 -8.31992E-02
    9036.643     42.863   3.600  9.23816E-01  9.94682E-01 -7.08659E-02
    9037.746     43.967   3.640  9.36764E-01  9.94173E-01 -5.74088E-02
    9038.862     45.082   3.680  9.50004E-01  9.93763E-01 -4.37591E-02
    9039.990     46.210   3.720  9.62468E-01  9.93408E-01 -3.09400E-02
    9041.130     47.350   3.760  9.73260E-01  9.93129E-01 -1.98683E-02
    9042.282     48.502   3.800  9.81609E-01  9.92927E-01 -1.13178E-02
    9043.446     49.666   3.840  9.87334E-01  9.92780E-01 -5.44646E-03
    9044.623     50.843   3.880  9.91059E-01  9.92730E-01 -1.67181E-03
    9045.811     52.031   3.920  9.93710E-01  9.92734E-01  9.76284E-04
    9047.012     53.232   3.960  9.96325E-01  9.92790E-01  3.53491E-03
    9048.225     54.445   4.000  9.99838E-01  9.92940E-01  6.89783E-03
    9049.451     55.671   4.040  1.00479E+00  9.93141E-01  1.16484E-02
    9050.688     56.908   4.080  1.01140E+00  9.93391E-01  1.80106E-02
    9051.938     58.158   4.120  1.01957E+00  9.93710E-01  2.58639E-02
    9053.200     59.420   4.160  1.02894E+00  9.94074E-01  3.48668E-02
    9054.474     60.694   4.200  1.03876E+00  9.94485E-01  4.42795E-02
    9055.760     61.980   4.240  1.04808E+00  9.94958E-01  5.31216E-02
    9057.058     63.279   4.280  1.05620E+00  9.95453E-01  6.07428E-02
    9058.369     64.589   4.320  1.06336E+00  9.96010E-01  6.73532E-02
    9059.692     65.912   4.360  1.07041E+00  9.96604E-01  7.38037E-02
    9061.027     67.247   4.400  1.07798E+00  9.97213E-01  8.07703E-02
    9062.374     68.594   4.440  1.08606E+00  9.97855E-01  8.82064E-02
    9063.733     69.954   4.480  1.09368E+00  9.98508E-01  9.51750E-02
    9065.105     71.325   4.520  1.09970E+00  9.99212E-01  1.00489E-01
    9066.489     72.709   4.560  1.10323E+00  9.99903E-01  1.03328E-01
    9067.885     74.105   4.600  1.10392E+00  1.00062E+00  1.03300E-01
    9069.293     75.513   4.640  1.10164E+00  1.00134E+00  1.00301E-01
    9070.713     76.934   4.680  1.09651E+00  1.00206E+00  9.44500E-02
    9072.146     78.366   4.720  1.08876E+00  1.00277E+00  8.59818E-02
    9073.591     79.811   4.760  1.07868E+00  1.00349E+00  7.51894E-02
    9075.048     81.268   4.800  1.06647E+00  1.00418E+00  6.22972E-02
    9076.517     82.737   4.840  1.05230E+00  1.00488E+00  4.74236E-02
    9077.998     84.218   4.880  1.03625E+00  1.00553E+00  3.07285E-02
    9079.492     85.712   4.920  1.01883E+00  1.00619E+00  1.26458E-02
    9080.997     87.217   4.960  1.00083E+00  1.00682E+00 -5.98572E-03
    9082.515     88.735   5.000  9.83361E-01  1.00741E+00 -2.40476E-02
    9084.045     90.265   5.040  9.67522E-01  1.00796E+00 -4.04415E-02
    9085.588     91.808   5.080  9.54245E-01  1.00850E+00 -5.42567E-02
    9087.142     93.362   5.120  9.44214E-01  1.00898E+00 -6.47647E-02
    9088.709     94.929   5.160  9.37961E-01  1.00944E+00 -7.14772E-02
    9090.288     96.508   5.200  9.35659E-01  1.00986E+00 -7.41991E-02
    9091.879     98.099   5.240  9.37098E-01  1.01023E+00 -7.31354E-02
    9093.482     99.702   5.280  9.41850E-01  1.01054E+00 -6.86942E-02
    9095.097    101.317   5.320  9.49526E-01  1.01083E+00 -6.13055E-02
    9096.725    102.945   5.360  9.59448E-01  1.01105E+00 -5.16046E-02
    9098.365    104.585   5.400  9.70248E-01  1.01123E+00 -4.09810E-02
    9100.017    106.237   5.440  9.79705E-01  1.01136E+00 -3.16538E-02
    9101.681    107.901   5.480  9.85671E-01  1.01142E+00 -2.57508E-02
    9103.357    109.577   5.520  9.87419E-01  1.01146E+00 -2.40424E-02
    9105.046    111.266   5.560  9.85868E-01  1.01143E+00 -2.55650E-02
    9106.747    112.967   5.600  9.83104E-01  1.01136E+00 -2.82542E-02
    9108.460    114.680   5.640  9.81069E-01  1.01122E+00 -3.01479E-02
    9110.185    116.405   5.680  9.80707E-01  1.01105E+00 -3.03463E-02
    9111.922    118.142   5.720  9.81595E-01  1.01082E+00 -2.92281E-02
    9113.672    119.892   5.760  9.82873E-01  1.01055E+00 -2.76765E-02
    9115.433    121.654   5.800  9.84060E-01  1.01024E+00 -2.61748E-02
    9117.207    123.428   5.840  9.85577E-01  1.00988E+00 -2.43015E-02
    9118.993    125.214   5.880  9.88558E-01  1.00946E+00 -2.09017E-02
    9120.792    127.012   5.920  9.94233E-01  1.00903E+00 -1.47963E-02
    9122.602    128.822   5.960  1.00286E+00  1.00856E+00 -5.70015E-03
    9124.425    130.645   6.000  1.01333E+00  1.00800E+00  5.33127E-03
