# # comment:                                                     FEFF 9.9.1  
# # Source:
# # Structure
# # Reduced
# # space
# # abc:
# # angles:
# # sites:
# # POT  SCF 100  7.0000   0, screened core-hole, AFOLP (folp(0)= 1.150)
# # Abs   Z=29 Rmt= 1.258 Rnm= 1.334 K  shell
# # Pot 1 Z=29 Rmt= 1.256 Rnm= 1.333
# # Pot 2 Z= 8 Rmt= 1.013 Rnm= 1.090
# # Pot 3 Z=73 Rmt= 1.317 Rnm= 1.467
# # Gam_ch=1.729E+00 H-L exch Vi= 0.000E+00 Vr= 0.000E+00
# # Mu=-6.238E+00eV kf=2.247E+00 Vint=-1.643E+01eV Rs_int= 1.614
# FMS rfms= 9.0000
# # PATH  Rmax=-1.000,  Keep_limit= 0.00, Heap_limit 0.00  Pwcrit= 2.50%
#  S02=0.950  Temp=   0.00  Debye_temp=   0.00  Global_sig2= 0.00000
#  Energy zero shift, vr, vi    0.00000E+00   0.00000E+00
#  Curved wave amplitude ratio filter   4.000%
#     file         sig2 tot  cw amp ratio   deg  nlegs   reff  inp sig2
#     0/   0 paths used
#  xsedge+ 50, used to normalize mu           2.4642E-04
#  -----------------------------------------------------------------------
#  omega    e    k    mu    mu0     chi     @#
    8983.589    -10.048  -1.000  4.65908E-02  5.58417E-02 -9.25090E-03
    8983.888     -9.749  -0.960  4.93905E-02  5.99778E-02 -1.05873E-02
    8984.174     -9.462  -0.920  5.24245E-02  6.45817E-02 -1.21572E-02
    8984.448     -9.188  -0.880  5.57174E-02  6.97232E-02 -1.40058E-02
    8984.711     -8.926  -0.840  5.92968E-02  7.54835E-02 -1.61867E-02
    8984.961     -8.676  -0.800  6.31928E-02  8.19566E-02 -1.87638E-02
    8985.198     -8.438  -0.760  6.74386E-02  8.92508E-02 -2.18122E-02
    8985.424     -8.213  -0.720  7.20699E-02  9.74885E-02 -2.54186E-02
    8985.637     -7.999  -0.680  7.71237E-02  1.06805E-01 -2.96810E-02
    8985.838     -7.798  -0.640  8.26365E-02  1.17342E-01 -3.47052E-02
    8986.027     -7.609  -0.600  8.86414E-02  1.29240E-01 -4.05986E-02
    8986.204     -7.432  -0.560  9.51621E-02  1.42620E-01 -4.74577E-02
    8986.369     -7.268  -0.520  1.02205E-01  1.57553E-01 -5.53477E-02
    8986.521     -7.115  -0.480  1.09749E-01  1.74024E-01 -6.42755E-02
    8986.661     -6.975  -0.440  1.17732E-01  1.91890E-01 -7.41575E-02
    8986.789     -6.847  -0.400  1.26043E-01  2.10836E-01 -8.47929E-02
    8986.905     -6.731  -0.360  1.34512E-01  2.30369E-01 -9.58565E-02
    8987.009     -6.628  -0.320  1.42924E-01  2.49849E-01 -1.06925E-01
    8987.100     -6.536  -0.280  1.51029E-01  2.68565E-01 -1.17536E-01
    8987.179     -6.457  -0.240  1.58575E-01  2.85836E-01 -1.27260E-01
    8987.247     -6.390  -0.200  1.65331E-01  3.01091E-01 -1.35759E-01
    8987.301     -6.335  -0.160  1.71103E-01  3.13916E-01 -1.42813E-01
    8987.344     -6.292  -0.120  1.75741E-01  3.24048E-01 -1.48306E-01
    8987.375     -6.262  -0.080  1.79142E-01  3.31344E-01 -1.52201E-01
    8987.399     -6.238   0.000  1.81949E-01  3.37203E-01 -1.55254E-01
    8987.454     -6.183   0.120  1.88173E-01  3.50401E-01 -1.62227E-01
    8987.496     -6.140   0.160  1.93048E-01  3.60650E-01 -1.67603E-01
    8987.551     -6.085   0.200  1.99385E-01  3.73724E-01 -1.74339E-01
    8987.618     -6.018   0.240  2.07225E-01  3.89432E-01 -1.82206E-01
    8987.698     -5.939   0.280  2.16579E-01  4.07422E-01 -1.90843E-01
    8987.789     -5.847   0.320  2.27456E-01  4.27234E-01 -1.99777E-01
    8987.893     -5.744   0.360  2.39784E-01  4.48230E-01 -2.08446E-01
    8988.009     -5.628   0.400  2.53547E-01  4.69799E-01 -2.16252E-01
    8988.137     -5.500   0.440  2.68733E-01  4.91345E-01 -2.22612E-01
    8988.277     -5.360   0.480  2.85382E-01  5.12424E-01 -2.27042E-01
    8988.429     -5.207   0.520  3.03687E-01  5.32751E-01 -2.29065E-01
    8988.594     -5.043   0.560  3.24013E-01  5.52157E-01 -2.28144E-01
    8988.771     -4.866   0.600  3.47102E-01  5.70629E-01 -2.23527E-01
    8988.959     -4.677   0.640  3.74161E-01  5.88231E-01 -2.14070E-01
    8989.161     -4.476   0.680  4.07102E-01  6.05028E-01 -1.97926E-01
    8989.374     -4.262   0.720  4.48772E-01  6.21163E-01 -1.72391E-01
    8989.600     -4.037   0.760  5.02216E-01  6.36715E-01 -1.34499E-01
    8989.837     -3.799   0.800  5.68553E-01  6.51793E-01 -8.32399E-02
    8990.087     -3.549   0.840  6.44346E-01  6.66475E-01 -2.21290E-02
    8990.349     -3.287   0.880  7.20586E-01  6.80822E-01  3.97646E-02
    8990.624     -3.013   0.920  7.83944E-01  6.94881E-01  8.90631E-02
    8990.910     -2.726   0.960  8.21532E-01  7.08686E-01  1.12845E-01
    8991.209     -2.428   1.000  8.29450E-01  7.22262E-01  1.07189E-01
    8991.520     -2.117   1.040  8.15030E-01  7.35638E-01  7.93916E-02
    8991.843     -1.794   1.080  7.86891E-01  7.48802E-01  3.80882E-02
    8992.178     -1.458   1.120  7.49211E-01  7.61771E-01 -1.25602E-02
    8992.526     -1.111   1.160  7.08918E-01  7.74516E-01 -6.55983E-02
    8992.885     -0.751   1.200  6.77105E-01  7.87048E-01 -1.09943E-01
    8993.257     -0.379   1.240  6.60946E-01  7.99350E-01 -1.38404E-01
    8993.641      0.005   1.280  6.62697E-01  8.11382E-01 -1.48684E-01
    8994.037      0.401   1.320  6.79759E-01  8.23165E-01 -1.43406E-01
    8994.446      0.809   1.360  7.04599E-01  8.34657E-01 -1.30058E-01
    8994.866      1.230   1.400  7.28701E-01  8.45854E-01 -1.17153E-01
    8995.299      1.663   1.440  7.55185E-01  8.56734E-01 -1.01548E-01
    8995.744      2.108   1.480  7.96713E-01  8.67270E-01 -7.05568E-02
    8996.202      2.565   1.520  8.55962E-01  8.77458E-01 -2.14962E-02
    8996.671      3.034   1.560  9.18840E-01  8.87276E-01  3.15647E-02
    8997.152      3.516   1.600  9.70190E-01  8.96718E-01  7.34723E-02
    8997.646      4.010   1.640  1.00543E+00  9.05762E-01  9.96667E-02
    8998.152      4.516   1.680  1.02939E+00  9.14404E-01  1.14987E-01
    8998.670      5.034   1.720  1.04796E+00  9.22643E-01  1.25313E-01
    8999.201      5.564   1.760  1.06330E+00  9.30457E-01  1.32843E-01
    8999.743      6.107   1.800  1.09037E+00  9.37847E-01  1.52522E-01
    9000.298      6.662   1.840  1.14356E+00  9.44833E-01  1.98729E-01
    9000.865      7.228   1.880  1.20666E+00  9.51396E-01  2.55261E-01
    9001.444      7.808   1.920  1.23583E+00  9.57559E-01  2.78270E-01
    9002.035      8.399   1.960  1.21958E+00  9.63285E-01  2.56297E-01
    9002.639      9.002   2.000  1.19986E+00  9.68617E-01  2.31240E-01
    9003.255      9.618   2.040  1.20045E+00  9.73539E-01  2.26909E-01
    9003.882     10.246   2.080  1.20272E+00  9.78097E-01  2.24622E-01
    9004.523     10.886   2.120  1.18469E+00  9.82258E-01  2.02429E-01
    9005.175     11.538   2.160  1.15232E+00  9.86045E-01  1.66271E-01
    9005.839     12.203   2.200  1.12758E+00  9.89486E-01  1.38097E-01
    9006.516     12.879   2.240  1.12782E+00  9.92568E-01  1.35255E-01
    9007.205     13.568   2.280  1.16002E+00  9.95340E-01  1.64685E-01
    9007.906     14.269   2.320  1.20824E+00  9.97787E-01  2.10450E-01
    9008.619     14.983   2.360  1.23175E+00  9.99939E-01  2.31815E-01
    9009.344     15.708   2.400  1.20449E+00  1.00180E+00  2.02682E-01
    9010.082     16.446   2.440  1.14694E+00  1.00339E+00  1.43547E-01
    9010.832     17.195   2.480  1.08953E+00  1.00474E+00  8.47900E-02
    9011.594     17.957   2.520  1.04342E+00  1.00585E+00  3.75627E-02
    9012.368     18.732   2.560  1.00920E+00  1.00673E+00  2.47172E-03
    9013.154     19.518   2.600  9.83127E-01  1.00742E+00 -2.42925E-02
    9013.953     20.316   2.640  9.68072E-01  1.00791E+00 -3.98390E-02
    9014.764     21.127   2.680  9.70450E-01  1.00823E+00 -3.77813E-02
    9015.587     21.950   2.720  9.79859E-01  1.00839E+00 -2.85272E-02
    9016.422     22.785   2.760  9.88407E-01  1.00839E+00 -1.99776E-02
    9017.269     23.633   2.800  9.89887E-01  1.00826E+00 -1.83678E-02
    9018.129     24.492   2.840  9.81345E-01  1.00802E+00 -2.66787E-02
    9019.000     25.364   2.880  9.64730E-01  1.00768E+00 -4.29460E-02
    9019.884     26.248   2.920  9.43960E-01  1.00722E+00 -6.32591E-02
    9020.780     27.144   2.960  9.22192E-01  1.00670E+00 -8.45086E-02
    9021.689     28.052   3.000  9.01205E-01  1.00610E+00 -1.04899E-01
    9022.609     28.973   3.040  8.82156E-01  1.00546E+00 -1.23301E-01
    9023.542     29.905   3.080  8.66253E-01  1.00476E+00 -1.38511E-01
    9024.487     30.850   3.120  8.54378E-01  1.00401E+00 -1.49631E-01
    9025.444     31.807   3.160  8.46703E-01  1.00324E+00 -1.56534E-01
    9026.413     32.777   3.200  8.43208E-01  1.00245E+00 -1.59246E-01
    9027.395     33.758   3.240  8.44054E-01  1.00164E+00 -1.57588E-01
    9028.388     34.752   3.280  8.49217E-01  1.00083E+00 -1.51609E-01
    9029.394     35.758   3.320  8.58664E-01  1.00003E+00 -1.41366E-01
    9030.412     36.776   3.360  8.72047E-01  9.99215E-01 -1.27168E-01
    9031.442     37.806   3.400  8.88581E-01  9.98425E-01 -1.09844E-01
    9032.485     38.848   3.440  9.06789E-01  9.97644E-01 -9.08551E-02
    9033.539     39.903   3.480  9.25273E-01  9.96894E-01 -7.16206E-02
    9034.606     40.970   3.520  9.43012E-01  9.96176E-01 -5.31645E-02
    9035.685     42.049   3.560  9.59333E-01  9.95474E-01 -3.61401E-02
    9036.776     43.140   3.600  9.73963E-01  9.94829E-01 -2.08652E-02
    9037.880     44.243   3.640  9.86493E-01  9.94201E-01 -7.70744E-03
    9038.995     45.359   3.680  9.96388E-01  9.93613E-01  2.77497E-03
    9040.123     46.487   3.720  1.00325E+00  9.93089E-01  1.01609E-02
    9041.263     47.626   3.760  1.00714E+00  9.92607E-01  1.45319E-02
    9042.415     48.779   3.800  1.00872E+00  9.92167E-01  1.65560E-02
    9043.579     49.943   3.840  1.00901E+00  9.91769E-01  1.72378E-02
    9044.756     51.119   3.880  1.00907E+00  9.91414E-01  1.76528E-02
    9045.945     52.308   3.920  1.01005E+00  9.91123E-01  1.89224E-02
    9047.146     53.509   3.960  1.01299E+00  9.90856E-01  2.21342E-02
    9048.359     54.722   4.000  1.01886E+00  9.90654E-01  2.82072E-02
    9049.584     55.947   4.040  1.02820E+00  9.90519E-01  3.76835E-02
    9050.821     57.185   4.080  1.04082E+00  9.90406E-01  5.04094E-02
    9052.071     58.435   4.120  1.05587E+00  9.90357E-01  6.55096E-02
    9053.333     59.696   4.160  1.07184E+00  9.90350E-01  8.14879E-02
    9054.607     60.971   4.200  1.08682E+00  9.90386E-01  9.64344E-02
    9055.893     62.257   4.240  1.09882E+00  9.90461E-01  1.08356E-01
    9057.192     63.555   4.280  1.10619E+00  9.90577E-01  1.15612E-01
    9058.502     64.866   4.320  1.10800E+00  9.90731E-01  1.17267E-01
    9059.825     66.189   4.360  1.10396E+00  9.90925E-01  1.13031E-01
    9061.160     67.524   4.400  1.09440E+00  9.91159E-01  1.03244E-01
    9062.507     68.871   4.440  1.08051E+00  9.91428E-01  8.90820E-02
    9063.867     70.230   4.480  1.06423E+00  9.91733E-01  7.25003E-02
    9065.238     71.602   4.520  1.04802E+00  9.92051E-01  5.59672E-02
    9066.622     72.986   4.560  1.03417E+00  9.92400E-01  4.17724E-02
    9068.018     74.382   4.600  1.02399E+00  9.92781E-01  3.12060E-02
    9069.426     75.790   4.640  1.01740E+00  9.93171E-01  2.42244E-02
    9070.847     77.210   4.680  1.01318E+00  9.93566E-01  1.96182E-02
    9072.279     78.643   4.720  1.00955E+00  9.93989E-01  1.55562E-02
    9073.724     80.088   4.760  1.00475E+00  9.94417E-01  1.03376E-02
    9075.181     81.544   4.800  9.97879E-01  9.94849E-01  3.03083E-03
    9076.650     83.014   4.840  9.88994E-01  9.95303E-01 -6.30890E-03
    9078.131     84.495   4.880  9.78832E-01  9.95737E-01 -1.69048E-02
    9079.625     85.988   4.920  9.68405E-01  9.96190E-01 -2.77853E-02
    9081.131     87.494   4.960  9.58397E-01  9.96619E-01 -3.82215E-02
    9082.649     89.012   5.000  9.49229E-01  9.97043E-01 -4.78135E-02
    9084.179     90.542   5.040  9.41034E-01  9.97463E-01 -5.64284E-02
    9085.721     92.084   5.080  9.33904E-01  9.97877E-01 -6.39730E-02
    9087.275     93.639   5.120  9.27962E-01  9.98262E-01 -7.03001E-02
    9088.842     95.206   5.160  9.23465E-01  9.98637E-01 -7.51719E-02
    9090.421     96.784   5.200  9.20756E-01  9.98980E-01 -7.82244E-02
    9092.012     98.375   5.240  9.20277E-01  9.99313E-01 -7.90362E-02
    9093.615     99.979   5.280  9.22401E-01  9.99614E-01 -7.72127E-02
    9095.231    101.594   5.320  9.27350E-01  9.99902E-01 -7.25512E-02
    9096.858    103.222   5.360  9.35049E-01  1.00015E+00 -6.51054E-02
    9098.498    104.862   5.400  9.45143E-01  1.00037E+00 -5.52253E-02
    9100.150    106.514   5.440  9.56922E-01  1.00055E+00 -4.36246E-02
    9101.814    108.178   5.480  9.69369E-01  1.00071E+00 -3.13424E-02
    9103.491    109.854   5.520  9.81405E-01  1.00084E+00 -1.94308E-02
    9105.179    111.543   5.560  9.92325E-01  1.00090E+00 -8.57358E-03
    9106.880    113.244   5.600  1.00211E+00  1.00095E+00  1.16307E-03
    9108.593    114.956   5.640  1.01119E+00  1.00095E+00  1.02394E-02
    9110.318    116.682   5.680  1.02017E+00  1.00093E+00  1.92485E-02
    9112.055    118.419   5.720  1.02919E+00  1.00088E+00  2.83139E-02
    9113.805    120.169   5.760  1.03744E+00  1.00077E+00  3.66705E-02
    9115.567    121.930   5.800  1.04338E+00  1.00063E+00  4.27578E-02
    9117.341    123.704   5.840  1.04534E+00  1.00047E+00  4.48771E-02
    9119.127    125.490   5.880  1.04233E+00  1.00025E+00  4.20839E-02
    9120.925    127.289   5.920  1.03487E+00  1.00001E+00  3.48615E-02
    9122.736    129.099   5.960  1.02473E+00  9.99715E-01  2.50181E-02
    9124.558    130.922   6.000  1.01387E+00  9.99383E-01  1.44888E-02
