# # comment:                                                     FEFF 9.9.1  
# # Source:
# # Structure
# # Reduced
# # space
# # abc:
# # angles:
# # sites:
# # POT  SCF 100  7.0000   0, screened core-hole, AFOLP (folp(0)= 1.150)
# # Abs   Z=29 Rmt= 1.160 Rnm= 1.325 K  shell
# # Pot 1 Z=22 Rmt= 1.335 Rnm= 1.430
# # Pot 2 Z=29 Rmt= 1.160 Rnm= 1.325
# # Pot 3 Z=28 Rmt= 1.309 Rnm= 1.383
# # Pot 4 Z= 8 Rmt= 0.985 Rnm= 1.080
# # Gam_ch=1.729E+00 H-L exch Vi= 0.000E+00 Vr= 0.000E+00
# # Mu=-9.433E+00eV kf=2.172E+00 Vint=-1.825E+01eV Rs_int= 1.670
# FMS rfms= 9.0000
# # PATH  Rmax=-1.000,  Keep_limit= 0.00, Heap_limit 0.00  Pwcrit= 2.50%
#  S02=0.950  Temp=   0.00  Debye_temp=   0.00  Global_sig2= 0.00000
#  Energy zero shift, vr, vi    0.00000E+00   0.00000E+00
#  Curved wave amplitude ratio filter   4.000%
#     file         sig2 tot  cw amp ratio   deg  nlegs   reff  inp sig2
#     0/   0 paths used
#  xsedge+ 50, used to normalize mu           2.4930E-04
#  -----------------------------------------------------------------------
#  omega    e    k    mu    mu0     chi     @#
    8984.253    -13.243  -1.000  4.57069E-02  5.10008E-02 -5.29395E-03
    8984.552    -12.944  -0.960  4.89478E-02  5.46318E-02 -5.68394E-03
    8984.838    -12.658  -0.920  5.25614E-02  5.86611E-02 -6.09966E-03
    8985.112    -12.383  -0.880  5.66044E-02  6.31469E-02 -6.54251E-03
    8985.375    -12.121  -0.840  6.11428E-02  6.81571E-02 -7.01432E-03
    8985.624    -11.871  -0.800  6.62526E-02  7.37701E-02 -7.51753E-03
    8985.862    -11.634  -0.760  7.20205E-02  8.00760E-02 -8.05552E-03
    8986.088    -11.408  -0.720  7.85435E-02  8.71764E-02 -8.63289E-03
    8986.301    -11.195  -0.680  8.59277E-02  9.51833E-02 -9.25554E-03
    8986.502    -10.994  -0.640  9.42842E-02  1.04215E-01 -9.93047E-03
    8986.691    -10.805  -0.600  1.03722E-01  1.14386E-01 -1.06647E-02
    8986.868    -10.628  -0.560  1.14334E-01  1.25797E-01 -1.14626E-02
    8987.033    -10.463  -0.520  1.26184E-01  1.38505E-01 -1.23217E-02
    8987.185    -10.311  -0.480  1.39271E-01  1.52497E-01 -1.32256E-02
    8987.325    -10.171  -0.440  1.53513E-01  1.67650E-01 -1.41372E-02
    8987.453    -10.043  -0.400  1.68707E-01  1.83701E-01 -1.49935E-02
    8987.569     -9.927  -0.360  1.84528E-01  2.00237E-01 -1.57094E-02
    8987.673     -9.823  -0.320  2.00531E-01  2.16724E-01 -1.61932E-02
    8987.764     -9.732  -0.280  2.16192E-01  2.32565E-01 -1.63731E-02
    8987.843     -9.652  -0.240  2.30964E-01  2.47188E-01 -1.62234E-02
    8987.910     -9.585  -0.200  2.44332E-01  2.60112E-01 -1.57800E-02
    8987.965     -9.530  -0.160  2.55850E-01  2.70986E-01 -1.51358E-02
    8988.008     -9.488  -0.120  2.65165E-01  2.79584E-01 -1.44189E-02
    8988.038     -9.457  -0.080  2.72014E-01  2.85778E-01 -1.37643E-02
    8988.063     -9.433   0.000  2.77650E-01  2.90756E-01 -1.31061E-02
    8988.118     -9.378   0.120  2.90331E-01  3.01989E-01 -1.16576E-02
    8988.160     -9.335   0.160  3.00427E-01  3.10713E-01 -1.02861E-02
    8988.215     -9.281   0.200  3.13683E-01  3.21854E-01 -8.17133E-03
    8988.282     -9.214   0.240  3.30257E-01  3.35286E-01 -5.02886E-03
    8988.362     -9.134   0.280  3.50160E-01  3.50705E-01 -5.45434E-04
    8988.453     -9.043   0.320  3.73301E-01  3.67748E-01  5.55239E-03
    8988.557     -8.939   0.360  3.99257E-01  3.85939E-01  1.33185E-02
    8988.672     -8.823   0.400  4.27075E-01  4.04746E-01  2.23290E-02
    8988.800     -8.695   0.440  4.55074E-01  4.23708E-01  3.13659E-02
    8988.941     -8.555   0.480  4.80676E-01  4.42444E-01  3.82320E-02
    8989.093     -8.403   0.520  5.00602E-01  4.60747E-01  3.98544E-02
    8989.258     -8.238   0.560  5.11219E-01  4.78473E-01  3.27466E-02
    8989.434     -8.061   0.600  5.09356E-01  4.95633E-01  1.37239E-02
    8989.623     -7.872   0.640  4.93389E-01  5.12239E-01 -1.88504E-02
    8989.825     -7.671   0.680  4.65254E-01  5.28399E-01 -6.31442E-02
    8990.038     -7.458   0.720  4.30978E-01  5.44167E-01 -1.13190E-01
    8990.264     -7.232   0.760  3.98446E-01  5.59662E-01 -1.61217E-01
    8990.501     -6.995   0.800  3.73905E-01  5.74911E-01 -2.01006E-01
    8990.751     -6.745   0.840  3.60700E-01  5.90010E-01 -2.29310E-01
    8991.013     -6.483   0.880  3.59222E-01  6.04982E-01 -2.45760E-01
    8991.288     -6.208   0.920  3.67056E-01  6.19880E-01 -2.52824E-01
    8991.574     -5.922   0.960  3.79258E-01  6.34721E-01 -2.55462E-01
    8991.873     -5.623   1.000  3.91360E-01  6.49496E-01 -2.58136E-01
    8992.184     -5.312   1.040  4.03283E-01  6.64248E-01 -2.60965E-01
    8992.507     -4.989   1.080  4.16318E-01  6.78933E-01 -2.62615E-01
    8992.842     -4.654   1.120  4.28431E-01  6.93559E-01 -2.65129E-01
    8993.190     -4.306   1.160  4.36705E-01  7.08110E-01 -2.71405E-01
    8993.549     -3.947   1.200  4.41186E-01  7.22545E-01 -2.81358E-01
    8993.921     -3.575   1.240  4.44996E-01  7.36882E-01 -2.91886E-01
    8994.305     -3.191   1.280  4.52966E-01  7.51056E-01 -2.98090E-01
    8994.701     -2.794   1.320  4.69073E-01  7.65039E-01 -2.95966E-01
    8995.110     -2.386   1.360  4.93482E-01  7.78841E-01 -2.85359E-01
    8995.530     -1.965   1.400  5.25752E-01  7.92393E-01 -2.66641E-01
    8995.963     -1.533   1.440  5.71618E-01  8.05664E-01 -2.34046E-01
    8996.408     -1.088   1.480  6.38499E-01  8.18664E-01 -1.80165E-01
    8996.865     -0.630   1.520  7.24905E-01  8.31343E-01 -1.06439E-01
    8997.335     -0.161   1.560  8.16823E-01  8.43690E-01 -2.68669E-02
    8997.816      0.321   1.600  8.95867E-01  8.55635E-01  4.02320E-02
    8998.310      0.814   1.640  9.52938E-01  8.67208E-01  8.57294E-02
    8998.816      1.320   1.680  9.88390E-01  8.78382E-01  1.10008E-01
    8999.334      1.838   1.720  1.00033E+00  8.89108E-01  1.11219E-01
    8999.865      2.369   1.760  9.89681E-01  8.99401E-01  9.02792E-02
    9000.407      2.911   1.800  9.66511E-01  9.09216E-01  5.72944E-02
    9000.962      3.466   1.840  9.46818E-01  9.18589E-01  2.82290E-02
    9001.529      4.033   1.880  9.47952E-01  9.27475E-01  2.04774E-02
    9002.108      4.612   1.920  9.78668E-01  9.35894E-01  4.27748E-02
    9002.699      5.203   1.960  1.03505E+00  9.43826E-01  9.12195E-02
    9003.303      5.807   2.000  1.10992E+00  9.51270E-01  1.58653E-01
    9003.919      6.423   2.040  1.19994E+00  9.58248E-01  2.41696E-01
    9004.546      7.051   2.080  1.28154E+00  9.64742E-01  3.16799E-01
    9005.186      7.691   2.120  1.30550E+00  9.70757E-01  3.34745E-01
    9005.839      8.343   2.160  1.26767E+00  9.76315E-01  2.91351E-01
    9006.503      9.007   2.200  1.20120E+00  9.81423E-01  2.19779E-01
    9007.180      9.684   2.240  1.12453E+00  9.86109E-01  1.38418E-01
    9007.869     10.373   2.280  1.05521E+00  9.90357E-01  6.48506E-02
    9008.570     11.074   2.320  1.00705E+00  9.94173E-01  1.28748E-02
    9009.283     11.787   2.360  9.81962E-01  9.97606E-01 -1.56441E-02
    9010.008     12.513   2.400  9.71035E-01  1.00067E+00 -2.96308E-02
    9010.746     13.250   2.440  9.54800E-01  1.00336E+00 -4.85584E-02
    9011.496     14.000   2.480  9.19480E-01  1.00567E+00 -8.61927E-02
    9012.258     14.762   2.520  8.81886E-01  1.00768E+00 -1.25792E-01
    9013.032     15.536   2.560  8.70729E-01  1.00936E+00 -1.38634E-01
    9013.818     16.323   2.600  9.07923E-01  1.01076E+00 -1.02834E-01
    9014.617     17.121   2.640  9.62779E-01  1.01187E+00 -4.90891E-02
    9015.428     17.932   2.680  1.01949E+00  1.01271E+00  6.78341E-03
    9016.251     18.755   2.720  1.07088E+00  1.01330E+00  5.75808E-02
    9017.086     19.590   2.760  1.11523E+00  1.01368E+00  1.01548E-01
    9017.933     20.437   2.800  1.15395E+00  1.01385E+00  1.40103E-01
    9018.793     21.297   2.840  1.18722E+00  1.01382E+00  1.73401E-01
    9019.664     22.169   2.880  1.21243E+00  1.01360E+00  1.98823E-01
    9020.548     23.052   2.920  1.22400E+00  1.01324E+00  2.10752E-01
    9021.444     23.949   2.960  1.21555E+00  1.01273E+00  2.02823E-01
    9022.353     24.857   3.000  1.18627E+00  1.01209E+00  1.74183E-01
    9023.273     25.777   3.040  1.14220E+00  1.01132E+00  1.30872E-01
    9024.206     26.710   3.080  1.09207E+00  1.01045E+00  8.16210E-02
    9025.151     27.655   3.120  1.04399E+00  1.00948E+00  3.45020E-02
    9026.108     28.612   3.160  1.00245E+00  1.00846E+00 -6.01611E-03
    9027.077     29.581   3.200  9.68427E-01  1.00737E+00 -3.89397E-02
    9028.059     30.563   3.240  9.41393E-01  1.00620E+00 -6.48069E-02
    9029.052     31.556   3.280  9.19964E-01  1.00499E+00 -8.50246E-02
    9030.058     32.562   3.320  9.02809E-01  1.00376E+00 -1.00952E-01
    9031.076     33.580   3.360  8.89144E-01  1.00250E+00 -1.13355E-01
    9032.106     34.610   3.400  8.78746E-01  1.00121E+00 -1.22461E-01
    9033.149     35.653   3.440  8.71668E-01  9.99930E-01 -1.28262E-01
    9034.203     36.707   3.480  8.67964E-01  9.98631E-01 -1.30667E-01
    9035.270     37.774   3.520  8.67780E-01  9.97356E-01 -1.29576E-01
    9036.349     38.853   3.560  8.70928E-01  9.96085E-01 -1.25158E-01
    9037.440     39.944   3.600  8.77171E-01  9.94823E-01 -1.17652E-01
    9038.544     41.048   3.640  8.86275E-01  9.93612E-01 -1.07336E-01
    9039.659     42.163   3.680  8.97929E-01  9.92394E-01 -9.44659E-02
    9040.787     43.291   3.720  9.11892E-01  9.91234E-01 -7.93423E-02
    9041.927     44.431   3.760  9.27755E-01  9.90113E-01 -6.23582E-02
    9043.079     45.583   3.800  9.44697E-01  9.89032E-01 -4.43346E-02
    9044.243     46.748   3.840  9.61429E-01  9.87993E-01 -2.65639E-02
    9045.420     47.924   3.880  9.76544E-01  9.86996E-01 -1.04519E-02
    9046.609     49.113   3.920  9.89051E-01  9.86065E-01  2.98545E-03
    9047.810     50.314   3.960  9.98389E-01  9.85180E-01  1.32087E-02
    9049.023     51.527   4.000  1.00453E+00  9.84341E-01  2.01920E-02
    9050.248     52.752   4.040  1.00801E+00  9.83569E-01  2.44442E-02
    9051.485     53.990   4.080  1.00970E+00  9.82845E-01  2.68551E-02
    9052.735     55.239   4.120  1.01050E+00  9.82189E-01  2.83093E-02
    9053.997     56.501   4.160  1.01092E+00  9.81582E-01  2.93335E-02
    9055.271     57.775   4.200  1.01102E+00  9.81021E-01  3.00031E-02
    9056.557     59.061   4.240  1.01051E+00  9.80529E-01  2.99857E-02
    9057.856     60.360   4.280  1.00900E+00  9.80107E-01  2.88876E-02
    9059.166     61.670   4.320  1.00625E+00  9.79734E-01  2.65177E-02
    9060.489     62.993   4.360  1.00241E+00  9.79407E-01  2.30062E-02
    9061.824     64.328   4.400  9.97837E-01  9.79148E-01  1.86887E-02
    9063.171     65.676   4.440  9.92687E-01  9.78937E-01  1.37499E-02
    9064.531     67.035   4.480  9.86946E-01  9.78792E-01  8.15402E-03
    9065.902     68.407   4.520  9.80734E-01  9.78691E-01  2.04244E-03
    9067.286     69.790   4.560  9.74748E-01  9.78634E-01 -3.88587E-03
    9068.682     71.186   4.600  9.70031E-01  9.78618E-01 -8.58793E-03
    9070.090     72.594   4.640  9.67460E-01  9.78644E-01 -1.11842E-02
    9071.511     74.015   4.680  9.67474E-01  9.78732E-01 -1.12581E-02
    9072.943     75.447   4.720  9.70052E-01  9.78838E-01 -8.78665E-03
    9074.388     76.892   4.760  9.75112E-01  9.78983E-01 -3.87081E-03
    9075.845     78.349   4.800  9.82569E-01  9.79188E-01  3.38101E-03
    9077.314     79.818   4.840  9.92047E-01  9.79407E-01  1.26395E-02
    9078.795     81.300   4.880  1.00257E+00  9.79659E-01  2.29124E-02
    9080.289     82.793   4.920  1.01233E+00  9.79923E-01  3.24078E-02
    9081.795     84.299   4.960  1.01943E+00  9.80218E-01  3.92160E-02
    9083.312     85.817   5.000  1.02288E+00  9.80546E-01  4.23336E-02
    9084.843     87.347   5.040  1.02311E+00  9.80880E-01  4.22278E-02
    9086.385     88.889   5.080  1.02158E+00  9.81220E-01  4.03583E-02
    9087.939     90.443   5.120  1.01992E+00  9.81587E-01  3.83304E-02
    9089.506     92.010   5.160  1.01928E+00  9.81958E-01  3.73200E-02
    9091.085     93.589   5.200  1.02021E+00  9.82330E-01  3.78823E-02
    9092.676     95.180   5.240  1.02272E+00  9.82703E-01  4.00188E-02
    9094.279     96.783   5.280  1.02616E+00  9.83077E-01  4.30867E-02
    9095.895     98.399   5.320  1.02926E+00  9.83470E-01  4.57924E-02
    9097.522    100.026   5.360  1.03035E+00  9.83816E-01  4.65316E-02
    9099.162    101.666   5.400  1.02847E+00  9.84180E-01  4.42902E-02
    9100.814    103.318   5.440  1.02359E+00  9.84538E-01  3.90500E-02
    9102.478    104.982   5.480  1.01606E+00  9.84867E-01  3.11906E-02
    9104.155    106.659   5.520  1.00592E+00  9.85163E-01  2.07541E-02
    9105.843    108.347   5.560  9.93083E-01  9.85451E-01  7.63142E-03
    9107.544    110.048   5.600  9.77978E-01  9.85731E-01 -7.75337E-03
    9109.257    111.761   5.640  9.61501E-01  9.85977E-01 -2.44761E-02
    9110.982    113.486   5.680  9.44547E-01  9.86190E-01 -4.16434E-02
    9112.719    115.224   5.720  9.28005E-01  9.86390E-01 -5.83851E-02
    9114.469    116.973   5.760  9.13187E-01  9.86556E-01 -7.33690E-02
    9116.231    118.735   5.800  9.01701E-01  9.86686E-01 -8.49850E-02
    9118.005    120.509   5.840  8.94745E-01  9.86802E-01 -9.20574E-02
    9119.791    122.295   5.880  8.92604E-01  9.86858E-01 -9.42541E-02
    9121.589    124.093   5.920  8.94976E-01  9.86899E-01 -9.19234E-02
    9123.400    125.904   5.960  9.01335E-01  9.86900E-01 -8.55649E-02
    9125.222    127.726   6.000  9.11945E-01  9.86842E-01 -7.48971E-02
