# # comment:                                                     FEFF 9.9.1  
# # Source:
# # Structure
# # Reduced
# # space
# # abc:
# # angles:
# # sites:
# # POT  SCF 100  7.0000   0, screened core-hole, AFOLP (folp(0)= 1.150)
# # Abs   Z=29 Rmt= 1.306 Rnm= 1.370 K  shell
# # Pot 1 Z=29 Rmt= 1.306 Rnm= 1.370
# # Pot 2 Z= 8 Rmt= 1.007 Rnm= 1.073
# # Gam_ch=1.729E+00 H-L exch Vi= 0.000E+00 Vr= 0.000E+00
# # Mu=-6.767E+00eV kf=2.121E+00 Vint=-1.634E+01eV Rs_int= 1.710
# FMS rfms= 9.0000
# # PATH  Rmax=-1.000,  Keep_limit= 0.00, Heap_limit 0.00  Pwcrit= 2.50%
#  S02=0.950  Temp=   0.00  Debye_temp=   0.00  Global_sig2= 0.00000
#  Energy zero shift, vr, vi    0.00000E+00   0.00000E+00
#  Curved wave amplitude ratio filter   4.000%
#     file         sig2 tot  cw amp ratio   deg  nlegs   reff  inp sig2
#     0/   0 paths used
#  xsedge+ 50, used to normalize mu           2.4561E-04
#  -----------------------------------------------------------------------
#  omega    e    k    mu    mu0     chi     @#
    8984.313    -10.577  -1.000  5.01126E-02  5.98344E-02 -9.72183E-03
    8984.611    -10.279  -0.960  5.35394E-02  6.43863E-02 -1.08469E-02
    8984.898     -9.992  -0.920  5.73359E-02  6.94619E-02 -1.21260E-02
    8985.172     -9.718  -0.880  6.15570E-02  7.51398E-02 -1.35828E-02
    8985.434     -9.456  -0.840  6.62670E-02  8.15116E-02 -1.52446E-02
    8985.684     -9.206  -0.800  7.15407E-02  8.86835E-02 -1.71429E-02
    8985.922     -8.968  -0.760  7.74643E-02  9.67778E-02 -1.93136E-02
    8986.148     -8.743  -0.720  8.41355E-02  1.05933E-01 -2.17973E-02
    8986.361     -8.529  -0.680  9.16626E-02  1.16301E-01 -2.46383E-02
    8986.562     -8.328  -0.640  1.00160E-01  1.28043E-01 -2.78833E-02
    8986.751     -8.139  -0.600  1.09741E-01  1.41319E-01 -3.15781E-02
    8986.928     -7.962  -0.560  1.20502E-01  1.56264E-01 -3.57618E-02
    8987.093     -7.798  -0.520  1.32502E-01  1.72960E-01 -4.04580E-02
    8987.245     -7.645  -0.480  1.45730E-01  1.91392E-01 -4.56624E-02
    8987.385     -7.505  -0.440  1.60069E-01  2.11398E-01 -5.13289E-02
    8987.513     -7.377  -0.400  1.75267E-01  2.32625E-01 -5.73576E-02
    8987.629     -7.261  -0.360  1.90927E-01  2.54518E-01 -6.35906E-02
    8987.733     -7.158  -0.320  2.06535E-01  2.76357E-01 -6.98222E-02
    8987.824     -7.066  -0.280  2.21518E-01  2.97341E-01 -7.58230E-02
    8987.903     -6.987  -0.240  2.35333E-01  3.16705E-01 -8.13717E-02
    8987.970     -6.920  -0.200  2.47525E-01  3.33806E-01 -8.62813E-02
    8988.025     -6.865  -0.160  2.57768E-01  3.48182E-01 -9.04143E-02
    8988.068     -6.822  -0.120  2.65855E-01  3.59538E-01 -9.36825E-02
    8988.098     -6.792  -0.080  2.71675E-01  3.67713E-01 -9.60383E-02
    8988.123     -6.767   0.000  2.76338E-01  3.74277E-01 -9.79399E-02
    8988.178     -6.713   0.120  2.86807E-01  3.89067E-01 -1.02260E-01
    8988.220     -6.670   0.160  2.94941E-01  4.00538E-01 -1.05597E-01
    8988.275     -6.615   0.200  3.05312E-01  4.15163E-01 -1.09851E-01
    8988.342     -6.548   0.240  3.17763E-01  4.32725E-01 -1.14962E-01
    8988.421     -6.469   0.280  3.32028E-01  4.52848E-01 -1.20820E-01
    8988.513     -6.377   0.320  3.47679E-01  4.74943E-01 -1.27265E-01
    8988.617     -6.274   0.360  3.64238E-01  4.98356E-01 -1.34118E-01
    8988.732     -6.158   0.400  3.81145E-01  5.22326E-01 -1.41181E-01
    8988.860     -6.030   0.440  3.97926E-01  5.46220E-01 -1.48294E-01
    8989.001     -5.890   0.480  4.14116E-01  5.69491E-01 -1.55375E-01
    8989.153     -5.737   0.520  4.29413E-01  5.91814E-01 -1.62401E-01
    8989.318     -5.573   0.560  4.43562E-01  6.13018E-01 -1.69456E-01
    8989.494     -5.396   0.600  4.56343E-01  6.33065E-01 -1.76721E-01
    8989.683     -5.207   0.640  4.67524E-01  6.52002E-01 -1.84478E-01
    8989.884     -5.006   0.680  4.76868E-01  6.69925E-01 -1.93057E-01
    8990.098     -4.792   0.720  4.84210E-01  6.86967E-01 -2.02757E-01
    8990.323     -4.567   0.760  4.89554E-01  7.03197E-01 -2.13644E-01
    8990.561     -4.329   0.800  4.93295E-01  7.18757E-01 -2.25462E-01
    8990.811     -4.079   0.840  4.96191E-01  7.33694E-01 -2.37503E-01
    8991.073     -3.817   0.880  4.99506E-01  7.48096E-01 -2.48591E-01
    8991.348     -3.543   0.920  5.04842E-01  7.62017E-01 -2.57175E-01
    8991.634     -3.256   0.960  5.13997E-01  7.75497E-01 -2.61500E-01
    8991.933     -2.957   1.000  5.28475E-01  7.88541E-01 -2.60067E-01
    8992.244     -2.647   1.040  5.49003E-01  8.01187E-01 -2.52184E-01
    8992.567     -2.323   1.080  5.74866E-01  8.13425E-01 -2.38559E-01
    8992.902     -1.988   1.120  6.03998E-01  8.25255E-01 -2.21257E-01
    8993.249     -1.641   1.160  6.33983E-01  8.36714E-01 -2.02731E-01
    8993.609     -1.281   1.200  6.63394E-01  8.47734E-01 -1.84340E-01
    8993.981     -0.909   1.240  6.92710E-01  8.58364E-01 -1.65654E-01
    8994.365     -0.525   1.280  7.23413E-01  8.68571E-01 -1.45158E-01
    8994.761     -0.129   1.320  7.56321E-01  8.78361E-01 -1.22040E-01
    8995.170      0.279   1.360  7.90465E-01  8.87697E-01 -9.72315E-02
    8995.590      0.700   1.400  8.24406E-01  8.96601E-01 -7.21947E-02
    8996.023      1.133   1.440  8.58912E-01  9.05058E-01 -4.61467E-02
    8996.468      1.578   1.480  8.98499E-01  9.13072E-01 -1.45729E-02
    8996.925      2.035   1.520  9.49042E-01  9.20625E-01  2.84173E-02
    8997.395      2.505   1.560  1.01308E+00  9.27743E-01  8.53350E-02
    8997.876      2.986   1.600  1.08588E+00  9.34411E-01  1.51468E-01
    8998.370      3.480   1.640  1.15451E+00  9.40653E-01  2.13859E-01
    8998.876      3.986   1.680  1.20189E+00  9.46456E-01  2.55434E-01
    8999.394      4.504   1.720  1.21701E+00  9.51825E-01  2.65184E-01
    8999.925      5.034   1.760  1.20220E+00  9.56788E-01  2.45408E-01
    9000.467      5.577   1.800  1.16831E+00  9.61352E-01  2.06960E-01
    9001.022      6.132   1.840  1.12697E+00  9.65527E-01  1.61443E-01
    9001.589      6.699   1.880  1.08883E+00  9.69321E-01  1.19507E-01
    9002.168      7.278   1.920  1.06523E+00  9.72765E-01  9.24646E-02
    9002.759      7.869   1.960  1.06636E+00  9.75887E-01  9.04740E-02
    9003.363      8.472   2.000  1.09398E+00  9.78654E-01  1.15325E-01
    9003.978      9.088   2.040  1.13695E+00  9.81140E-01  1.55814E-01
    9004.606      9.716   2.080  1.17556E+00  9.83333E-01  1.92228E-01
    9005.246     10.356   2.120  1.19166E+00  9.85264E-01  2.06401E-01
    9005.899     11.008   2.160  1.17680E+00  9.86940E-01  1.89860E-01
    9006.563     11.673   2.200  1.13726E+00  9.88374E-01  1.48890E-01
    9007.240     12.350   2.240  1.09060E+00  9.89616E-01  1.00982E-01
    9007.929     13.038   2.280  1.05140E+00  9.90652E-01  6.07448E-02
    9008.630     13.739   2.320  1.02405E+00  9.91492E-01  3.25601E-02
    9009.343     14.453   2.360  1.00816E+00  9.92187E-01  1.59707E-02
    9010.068     15.178   2.400  9.99919E-01  9.92744E-01  7.17458E-03
    9010.806     15.916   2.440  9.93304E-01  9.93151E-01  1.52775E-04
    9011.556     16.665   2.480  9.81497E-01  9.93457E-01 -1.19608E-02
    9012.318     17.427   2.520  9.65934E-01  9.93670E-01 -2.77362E-02
    9013.092     18.202   2.560  9.54652E-01  9.93775E-01 -3.91230E-02
    9013.878     18.988   2.600  9.49251E-01  9.93820E-01 -4.45685E-02
    9014.677     19.787   2.640  9.47591E-01  9.93811E-01 -4.62192E-02
    9015.488     20.597   2.680  9.48124E-01  9.93732E-01 -4.56079E-02
    9016.311     21.420   2.720  9.49786E-01  9.93611E-01 -4.38246E-02
    9017.146     22.255   2.760  9.52218E-01  9.93472E-01 -4.12538E-02
    9017.993     23.103   2.800  9.55289E-01  9.93299E-01 -3.80093E-02
    9018.853     23.962   2.840  9.59246E-01  9.93117E-01 -3.38708E-02
    9019.724     24.834   2.880  9.64280E-01  9.92930E-01 -2.86509E-02
    9020.608     25.718   2.920  9.70199E-01  9.92742E-01 -2.25430E-02
    9021.504     26.614   2.960  9.76463E-01  9.92556E-01 -1.60926E-02
    9022.413     27.522   3.000  9.82433E-01  9.92395E-01 -9.96193E-03
    9023.333     28.443   3.040  9.87395E-01  9.92241E-01 -4.84567E-03
    9024.266     29.376   3.080  9.90952E-01  9.92095E-01 -1.14335E-03
    9025.211     30.320   3.120  9.93065E-01  9.92002E-01  1.06305E-03
    9026.168     31.278   3.160  9.93629E-01  9.91921E-01  1.70849E-03
    9027.137     32.247   3.200  9.92643E-01  9.91874E-01  7.69044E-04
    9028.118     33.228   3.240  9.89954E-01  9.91842E-01 -1.88791E-03
    9029.112     34.222   3.280  9.85654E-01  9.91869E-01 -6.21429E-03
    9030.118     35.228   3.320  9.79994E-01  9.91933E-01 -1.19392E-02
    9031.136     36.246   3.360  9.73419E-01  9.92015E-01 -1.85954E-02
    9032.166     37.276   3.400  9.66550E-01  9.92154E-01 -2.56039E-02
    9033.209     38.318   3.440  9.60073E-01  9.92311E-01 -3.22375E-02
    9034.263     39.373   3.480  9.54627E-01  9.92527E-01 -3.78997E-02
    9035.330     40.440   3.520  9.50603E-01  9.92760E-01 -4.21574E-02
    9036.409     41.519   3.560  9.48234E-01  9.93052E-01 -4.48184E-02
    9037.500     42.610   3.600  9.47457E-01  9.93358E-01 -4.59010E-02
    9038.604     43.713   3.640  9.48181E-01  9.93698E-01 -4.55170E-02
    9039.719     44.829   3.680  9.50189E-01  9.94052E-01 -4.38628E-02
    9040.847     45.957   3.720  9.53182E-01  9.94461E-01 -4.12788E-02
    9041.987     47.097   3.760  9.56800E-01  9.94883E-01 -3.80830E-02
    9043.139     48.249   3.800  9.60919E-01  9.95336E-01 -3.44171E-02
    9044.303     49.413   3.840  9.65567E-01  9.95799E-01 -3.02319E-02
    9045.480     50.590   3.880  9.70790E-01  9.96290E-01 -2.54992E-02
    9046.668     51.778   3.920  9.76414E-01  9.96788E-01 -2.03742E-02
    9047.869     52.979   3.960  9.82195E-01  9.97315E-01 -1.51195E-02
    9049.082     54.192   4.000  9.87998E-01  9.97844E-01 -9.84548E-03
    9050.308     55.418   4.040  9.94023E-01  9.98374E-01 -4.35182E-03
    9051.545     56.655   4.080  1.00066E+00  9.98906E-01  1.75363E-03
    9052.795     57.905   4.120  1.00813E+00  9.99435E-01  8.69883E-03
    9054.057     59.167   4.160  1.01634E+00  9.99964E-01  1.63797E-02
    9055.331     60.441   4.200  1.02477E+00  1.00049E+00  2.42826E-02
    9056.617     61.727   4.240  1.03264E+00  1.00101E+00  3.16320E-02
    9057.916     63.025   4.280  1.03927E+00  1.00153E+00  3.77374E-02
    9059.226     64.336   4.320  1.04435E+00  1.00202E+00  4.23314E-02
    9060.549     65.659   4.360  1.04811E+00  1.00250E+00  4.56107E-02
    9061.884     66.994   4.400  1.05108E+00  1.00297E+00  4.81191E-02
    9063.231     68.341   4.440  1.05395E+00  1.00340E+00  5.05484E-02
    9064.591     69.700   4.480  1.05714E+00  1.00381E+00  5.33394E-02
    9065.962     71.072   4.520  1.06048E+00  1.00420E+00  5.62829E-02
    9067.346     72.456   4.560  1.06300E+00  1.00455E+00  5.84437E-02
    9068.742     73.852   4.600  1.06340E+00  1.00489E+00  5.85017E-02
    9070.150     75.260   4.640  1.06063E+00  1.00520E+00  5.54345E-02
    9071.571     76.680   4.680  1.05447E+00  1.00547E+00  4.90038E-02
    9073.003     78.113   4.720  1.04544E+00  1.00570E+00  3.97491E-02
    9074.448     79.558   4.760  1.03456E+00  1.00589E+00  2.86699E-02
    9075.905     81.015   4.800  1.02279E+00  1.00606E+00  1.67243E-02
    9077.374     82.484   4.840  1.01069E+00  1.00620E+00  4.49036E-03
    9078.855     83.965   4.880  9.98494E-01  1.00627E+00 -7.77470E-03
    9080.349     85.459   4.920  9.86471E-01  1.00633E+00 -1.98552E-02
    9081.854     86.964   4.960  9.75082E-01  1.00637E+00 -3.12860E-02
    9083.372     88.482   5.000  9.65219E-01  1.00635E+00 -4.11283E-02
    9084.902     90.012   5.040  9.58136E-01  1.00629E+00 -4.81504E-02
    9086.445     91.555   5.080  9.54860E-01  1.00621E+00 -5.13484E-02
    9087.999     93.109   5.120  9.55558E-01  1.00607E+00 -5.05125E-02
    9089.566     94.676   5.160  9.59451E-01  1.00592E+00 -4.64663E-02
    9091.145     96.255   5.200  9.65114E-01  1.00575E+00 -4.06379E-02
    9092.736     97.846   5.240  9.71231E-01  1.00553E+00 -3.42960E-02
    9094.339     99.449   5.280  9.77285E-01  1.00529E+00 -2.80013E-02
    9095.954    101.064   5.320  9.83066E-01  1.00501E+00 -2.19442E-02
    9097.582    102.692   5.360  9.88226E-01  1.00470E+00 -1.64722E-02
    9099.222    104.332   5.400  9.92497E-01  1.00437E+00 -1.18770E-02
    9100.874    105.984   5.440  9.96066E-01  1.00402E+00 -7.95250E-03
    9102.538    107.648   5.480  9.99501E-01  1.00365E+00 -4.15027E-03
    9104.214    109.324   5.520  1.00324E+00  1.00325E+00 -9.33713E-06
    9105.903    111.013   5.560  1.00743E+00  1.00282E+00  4.60966E-03
    9107.604    112.714   5.600  1.01175E+00  1.00241E+00  9.33972E-03
    9109.317    114.427   5.640  1.01523E+00  1.00197E+00  1.32668E-02
    9111.042    116.152   5.680  1.01692E+00  1.00149E+00  1.54296E-02
    9112.779    117.889   5.720  1.01659E+00  1.00104E+00  1.55506E-02
    9114.529    119.639   5.760  1.01473E+00  1.00056E+00  1.41652E-02
    9116.291    121.400   5.800  1.01229E+00  1.00008E+00  1.22018E-02
    9118.065    123.174   5.840  1.01023E+00  9.99605E-01  1.06287E-02
    9119.851    124.960   5.880  1.00926E+00  9.99129E-01  1.01269E-02
    9121.649    126.759   5.920  1.00941E+00  9.98659E-01  1.07505E-02
    9123.459    128.569   5.960  1.01008E+00  9.98174E-01  1.19053E-02
    9125.282    130.392   6.000  1.01018E+00  9.97720E-01  1.24636E-02
