# # comment:                                                     FEFF 9.9.1  
# # Source:
# # Structure
# # Reduced
# # space
# # abc:
# # angles:
# # sites:
# # POT  SCF 100  7.0000   0, screened core-hole, AFOLP (folp(0)= 1.150)
# # Abs   Z=29 Rmt= 1.335 Rnm= 1.389 K  shell
# # Pot 1 Z= 3 Rmt= 1.255 Rnm= 1.316
# # Pot 2 Z=29 Rmt= 1.335 Rnm= 1.389
# # Pot 3 Z= 6 Rmt= 0.718 Rnm= 0.930
# # Pot 4 Z= 8 Rmt= 0.875 Rnm= 1.013
# # Gam_ch=1.729E+00 H-L exch Vi= 0.000E+00 Vr= 0.000E+00
# # Mu=-7.045E+00eV kf=2.613E+00 Vint=-1.836E+01eV Rs_int= 1.388
# FMS rfms= 9.0000
# # PATH  Rmax=-1.000,  Keep_limit= 0.00, Heap_limit 0.00  Pwcrit= 2.50%
#  S02=0.950  Temp=   0.00  Debye_temp=   0.00  Global_sig2= 0.00000
#  Energy zero shift, vr, vi    0.00000E+00   0.00000E+00
#  Curved wave amplitude ratio filter   4.000%
#     file         sig2 tot  cw amp ratio   deg  nlegs   reff  inp sig2
#     0/   0 paths used
#  xsedge+ 50, used to normalize mu           2.4831E-04
#  -----------------------------------------------------------------------
#  omega    e    k    mu    mu0     chi     @#
    8983.420    -10.855  -1.000  4.29643E-02  5.06910E-02 -7.72674E-03
    8983.719    -10.556  -0.960  4.54833E-02  5.42981E-02 -8.81473E-03
    8984.005    -10.270  -0.920  4.82258E-02  5.83032E-02 -1.00773E-02
    8984.280     -9.996  -0.880  5.12199E-02  6.27650E-02 -1.15451E-02
    8984.542     -9.733  -0.840  5.44980E-02  6.77519E-02 -1.32538E-02
    8984.792     -9.484  -0.800  5.80973E-02  7.33431E-02 -1.52458E-02
    8985.030     -9.246  -0.760  6.20599E-02  7.96297E-02 -1.75698E-02
    8985.255     -9.020  -0.720  6.64327E-02  8.67146E-02 -2.02819E-02
    8985.468     -8.807  -0.680  7.12668E-02  9.47110E-02 -2.34443E-02
    8985.670     -8.606  -0.640  7.66153E-02  1.03739E-01 -2.71236E-02
    8985.859     -8.417  -0.600  8.25291E-02  1.13916E-01 -3.13867E-02
    8986.035     -8.240  -0.560  8.90501E-02  1.25342E-01 -3.62923E-02
    8986.200     -8.075  -0.520  9.61996E-02  1.38078E-01 -4.18786E-02
    8986.352     -7.923  -0.480  1.03964E-01  1.52110E-01 -4.81461E-02
    8986.493     -7.783  -0.440  1.12278E-01  1.67315E-01 -5.50373E-02
    8986.621     -7.655  -0.400  1.21007E-01  1.83428E-01 -6.24202E-02
    8986.736     -7.539  -0.360  1.29947E-01  2.00031E-01 -7.00832E-02
    8986.840     -7.435  -0.320  1.38831E-01  2.16583E-01 -7.77513E-02
    8986.932     -7.344  -0.280  1.47362E-01  2.32483E-01 -8.51212E-02
    8987.011     -7.265  -0.240  1.55247E-01  2.47154E-01 -9.19071E-02
    8987.078     -7.198  -0.200  1.62238E-01  2.60114E-01 -9.78768E-02
    8987.133     -7.143  -0.160  1.68143E-01  2.71012E-01 -1.02869E-01
    8987.175     -7.100  -0.120  1.72834E-01  2.79622E-01 -1.06789E-01
    8987.206     -7.070  -0.080  1.76232E-01  2.85823E-01 -1.09591E-01
    8987.230     -7.045   0.000  1.78987E-01  2.90804E-01 -1.11817E-01
    8987.285     -6.990   0.120  1.85114E-01  3.02047E-01 -1.16933E-01
    8987.328     -6.948   0.160  1.89854E-01  3.10750E-01 -1.20896E-01
    8987.383     -6.893   0.200  1.95951E-01  3.21874E-01 -1.25924E-01
    8987.450     -6.826   0.240  2.03370E-01  3.35261E-01 -1.31890E-01
    8987.529     -6.746   0.280  2.11953E-01  3.50591E-01 -1.38637E-01
    8987.620     -6.655   0.320  2.21602E-01  3.67503E-01 -1.45901E-01
    8987.724     -6.551   0.360  2.32115E-01  3.85477E-01 -1.53362E-01
    8987.840     -6.436   0.400  2.43353E-01  4.03966E-01 -1.60614E-01
    8987.968     -6.308   0.440  2.55302E-01  4.22509E-01 -1.67207E-01
    8988.108     -6.167   0.480  2.68101E-01  4.40734E-01 -1.72633E-01
    8988.260     -6.015   0.520  2.82086E-01  4.58386E-01 -1.76301E-01
    8988.425     -5.850   0.560  2.97647E-01  4.75362E-01 -1.77716E-01
    8988.602     -5.674   0.600  3.15082E-01  4.91656E-01 -1.76574E-01
    8988.791     -5.485   0.640  3.34348E-01  5.07326E-01 -1.72977E-01
    8988.992     -5.283   0.680  3.55053E-01  5.22446E-01 -1.67393E-01
    8989.205     -5.070   0.720  3.76580E-01  5.37124E-01 -1.60545E-01
    8989.431     -4.845   0.760  3.98169E-01  5.51446E-01 -1.53277E-01
    8989.669     -4.607   0.800  4.19081E-01  5.65529E-01 -1.46449E-01
    8989.919     -4.357   0.840  4.38654E-01  5.79441E-01 -1.40787E-01
    8990.181     -4.095   0.880  4.56384E-01  5.93237E-01 -1.36853E-01
    8990.455     -3.820   0.920  4.71441E-01  6.06975E-01 -1.35535E-01
    8990.741     -3.534   0.960  4.82910E-01  6.20688E-01 -1.37778E-01
    8991.040     -3.235   1.000  4.91786E-01  6.34416E-01 -1.42630E-01
    8991.351     -2.924   1.040  5.01045E-01  6.48170E-01 -1.47125E-01
    8991.674     -2.601   1.080  5.12067E-01  6.61973E-01 -1.49906E-01
    8992.009     -2.266   1.120  5.23063E-01  6.75802E-01 -1.52739E-01
    8992.357     -1.918   1.160  5.33357E-01  6.89691E-01 -1.56334E-01
    8992.717     -1.559   1.200  5.46286E-01  7.03605E-01 -1.57319E-01
    8993.088     -1.187   1.240  5.67696E-01  7.17526E-01 -1.49830E-01
    8993.472     -0.803   1.280  6.03285E-01  7.31456E-01 -1.28172E-01
    8993.869     -0.407   1.320  6.56911E-01  7.45372E-01 -8.84611E-02
    8994.277      0.002   1.360  7.27332E-01  7.59245E-01 -3.19134E-02
    8994.698      0.422   1.400  8.04343E-01  7.73050E-01  3.12930E-02
    8995.131      0.855   1.440  8.77791E-01  7.86757E-01  9.10343E-02
    8995.576      1.300   1.480  9.50567E-01  8.00335E-01  1.50231E-01
    8996.033      1.757   1.520  1.02400E+00  8.13773E-01  2.10222E-01
    8996.502      2.227   1.560  1.08642E+00  8.27038E-01  2.59380E-01
    8996.984      2.708   1.600  1.12933E+00  8.40076E-01  2.89250E-01
    8997.478      3.202   1.640  1.15239E+00  8.52874E-01  2.99519E-01
    8997.984      3.708   1.680  1.15821E+00  8.65398E-01  2.92810E-01
    8998.502      4.226   1.720  1.15426E+00  8.77615E-01  2.76640E-01
    8999.032      4.757   1.760  1.14986E+00  8.89491E-01  2.60365E-01
    8999.575      5.299   1.800  1.15140E+00  9.01015E-01  2.50386E-01
    9000.129      5.854   1.840  1.16684E+00  9.12154E-01  2.54684E-01
    9000.696      6.421   1.880  1.19643E+00  9.22875E-01  2.73559E-01
    9001.275      7.000   1.920  1.23556E+00  9.33148E-01  3.02408E-01
    9001.867      7.591   1.960  1.27483E+00  9.42983E-01  3.31848E-01
    9002.470      8.195   2.000  1.28279E+00  9.52333E-01  3.30453E-01
    9003.086      8.810   2.040  1.24274E+00  9.61189E-01  2.81552E-01
    9003.714      9.438   2.080  1.18732E+00  9.69548E-01  2.17776E-01
    9004.354     10.078   2.120  1.15734E+00  9.77383E-01  1.79962E-01
    9005.006     10.731   2.160  1.16384E+00  9.84710E-01  1.79134E-01
    9005.671     11.395   2.200  1.19152E+00  9.91510E-01  2.00012E-01
    9006.347     12.072   2.240  1.21169E+00  9.97802E-01  2.13884E-01
    9007.036     12.761   2.280  1.20616E+00  1.00354E+00  2.02615E-01
    9007.737     13.462   2.320  1.18182E+00  1.00878E+00  1.73042E-01
    9008.450     14.175   2.360  1.15091E+00  1.01349E+00  1.37416E-01
    9009.176     14.900   2.400  1.11755E+00  1.01769E+00  9.98614E-02
    9009.913     15.638   2.440  1.08059E+00  1.02141E+00  5.91852E-02
    9010.663     16.388   2.480  1.04058E+00  1.02462E+00  1.59573E-02
    9011.425     17.150   2.520  1.00281E+00  1.02737E+00 -2.45683E-02
    9012.199     17.924   2.560  9.70407E-01  1.02968E+00 -5.92711E-02
    9012.986     18.710   2.600  9.40620E-01  1.03154E+00 -9.09209E-02
    9013.784     19.509   2.640  9.08934E-01  1.03299E+00 -1.24057E-01
    9014.595     20.320   2.680  8.73872E-01  1.03404E+00 -1.60167E-01
    9015.418     21.143   2.720  8.38486E-01  1.03472E+00 -1.96232E-01
    9016.253     21.978   2.760  8.08031E-01  1.03506E+00 -2.27027E-01
    9017.100     22.825   2.800  7.88941E-01  1.03505E+00 -2.46110E-01
    9017.960     23.685   2.840  7.87246E-01  1.03475E+00 -2.47502E-01
    9018.832     24.556   2.880  8.03112E-01  1.03416E+00 -2.31048E-01
    9019.716     25.440   2.920  8.28304E-01  1.03332E+00 -2.05017E-01
    9020.612     26.336   2.960  8.53441E-01  1.03224E+00 -1.78799E-01
    9021.520     27.245   3.000  8.74090E-01  1.03093E+00 -1.56839E-01
    9022.441     28.165   3.040  8.88658E-01  1.02944E+00 -1.40782E-01
    9023.373     29.098   3.080  9.00631E-01  1.02779E+00 -1.27154E-01
    9024.318     30.043   3.120  9.11699E-01  1.02598E+00 -1.14276E-01
    9025.275     31.000   3.160  9.22711E-01  1.02404E+00 -1.01330E-01
    9026.244     31.969   3.200  9.33849E-01  1.02201E+00 -8.81616E-02
    9027.226     32.951   3.240  9.45068E-01  1.01988E+00 -7.48079E-02
    9028.220     33.944   3.280  9.56535E-01  1.01769E+00 -6.11500E-02
    9029.225     34.950   3.320  9.68358E-01  1.01545E+00 -4.70911E-02
    9030.243     35.968   3.360  9.80678E-01  1.01318E+00 -3.24986E-02
    9031.274     36.998   3.400  9.93762E-01  1.01087E+00 -1.71113E-02
    9032.316     38.041   3.440  1.00773E+00  1.00859E+00 -8.60204E-04
    9033.371     39.095   3.480  1.02253E+00  1.00631E+00  1.62262E-02
    9034.437     40.162   3.520  1.03804E+00  1.00406E+00  3.39825E-02
    9035.516     41.241   3.560  1.05356E+00  1.00183E+00  5.17282E-02
    9036.608     42.332   3.600  1.06805E+00  9.99660E-01  6.83900E-02
    9037.711     43.436   3.640  1.08034E+00  9.97539E-01  8.28001E-02
    9038.827     44.551   3.680  1.08927E+00  9.95493E-01  9.37799E-02
    9039.954     45.679   3.720  1.09406E+00  9.93526E-01  1.00531E-01
    9041.094     46.819   3.760  1.09469E+00  9.91642E-01  1.03049E-01
    9042.246     47.971   3.800  1.09184E+00  9.89863E-01  1.01973E-01
    9043.411     49.135   3.840  1.08646E+00  9.88175E-01  9.82878E-02
    9044.587     50.312   3.880  1.07969E+00  9.86598E-01  9.30938E-02
    9045.776     51.501   3.920  1.07234E+00  9.85112E-01  8.72268E-02
    9046.977     52.701   3.960  1.06495E+00  9.83742E-01  8.12090E-02
    9048.190     53.915   4.000  1.05779E+00  9.82490E-01  7.52987E-02
    9049.415     55.140   4.040  1.05088E+00  9.81357E-01  6.95262E-02
    9050.653     56.377   4.080  1.04403E+00  9.80344E-01  6.36812E-02
    9051.902     57.627   4.120  1.03697E+00  9.79451E-01  5.75231E-02
    9053.164     58.889   4.160  1.02962E+00  9.78680E-01  5.09376E-02
    9054.438     60.163   4.200  1.02200E+00  9.78030E-01  4.39688E-02
    9055.725     61.449   4.240  1.01429E+00  9.77522E-01  3.67644E-02
    9057.023     62.748   4.280  1.00664E+00  9.77113E-01  2.95306E-02
    9058.334     64.058   4.320  9.99281E-01  9.76821E-01  2.24602E-02
    9059.656     65.381   4.360  9.92245E-01  9.76646E-01  1.55991E-02
    9060.991     66.716   4.400  9.85413E-01  9.76587E-01  8.82594E-03
    9062.339     68.063   4.440  9.78512E-01  9.76621E-01  1.89056E-03
    9063.698     69.423   4.480  9.71312E-01  9.76768E-01 -5.45647E-03
    9065.070     70.794   4.520  9.63780E-01  9.77028E-01 -1.32476E-02
    9066.453     72.178   4.560  9.56140E-01  9.77374E-01 -2.12337E-02
    9067.849     73.574   4.600  9.48797E-01  9.77805E-01 -2.90078E-02
    9069.258     74.982   4.640  9.42199E-01  9.78340E-01 -3.61407E-02
    9070.678     76.403   4.680  9.36621E-01  9.78933E-01 -4.23118E-02
    9072.111     77.835   4.720  9.32275E-01  9.79602E-01 -4.73271E-02
    9073.555     79.280   4.760  9.29329E-01  9.80348E-01 -5.10188E-02
    9075.012     80.737   4.800  9.27970E-01  9.81165E-01 -5.31950E-02
    9076.481     82.206   4.840  9.28318E-01  9.82028E-01 -5.37099E-02
    9077.963     83.687   4.880  9.30445E-01  9.82933E-01 -5.24881E-02
    9079.456     85.181   4.920  9.34232E-01  9.83875E-01 -4.96427E-02
    9080.962     86.687   4.960  9.39317E-01  9.84832E-01 -4.55151E-02
    9082.480     88.204   5.000  9.45248E-01  9.85841E-01 -4.05927E-02
    9084.010     89.735   5.040  9.51399E-01  9.86836E-01 -3.54374E-02
    9085.552     91.277   5.080  9.57378E-01  9.87857E-01 -3.04787E-02
    9087.107     92.831   5.120  9.62894E-01  9.88878E-01 -2.59846E-02
    9088.673     94.398   5.160  9.67790E-01  9.89896E-01 -2.21061E-02
    9090.252     95.977   5.200  9.71931E-01  9.90884E-01 -1.89537E-02
    9091.843     97.568   5.240  9.75244E-01  9.91862E-01 -1.66173E-02
    9093.446     99.171   5.280  9.77711E-01  9.92804E-01 -1.50930E-02
    9095.062    100.787   5.320  9.79470E-01  9.93706E-01 -1.42359E-02
    9096.690    102.414   5.360  9.80824E-01  9.94568E-01 -1.37441E-02
    9098.329    104.054   5.400  9.82104E-01  9.95387E-01 -1.32838E-02
    9099.981    105.706   5.440  9.83558E-01  9.96160E-01 -1.26020E-02
    9101.646    107.370   5.480  9.85361E-01  9.96859E-01 -1.14987E-02
    9103.322    109.047   5.520  9.87798E-01  9.97485E-01 -9.68689E-03
    9105.011    110.735   5.560  9.91272E-01  9.98058E-01 -6.78564E-03
    9106.711    112.436   5.600  9.96039E-01  9.98553E-01 -2.51380E-03
    9108.424    114.149   5.640  1.00203E+00  9.98970E-01  3.06404E-03
    9110.149    115.874   5.680  1.00875E+00  9.99304E-01  9.44585E-03
    9111.887    117.611   5.720  1.01537E+00  9.99533E-01  1.58390E-02
    9113.636    119.361   5.760  1.02116E+00  9.99705E-01  2.14539E-02
    9115.398    121.123   5.800  1.02563E+00  9.99795E-01  2.58364E-02
    9117.172    122.897   5.840  1.02876E+00  9.99779E-01  2.89845E-02
    9118.958    124.683   5.880  1.03088E+00  9.99680E-01  3.11996E-02
    9120.756    126.481   5.920  1.03232E+00  9.99500E-01  3.28239E-02
    9122.567    128.292   5.960  1.03326E+00  9.99228E-01  3.40293E-02
    9124.390    130.114   6.000  1.03363E+00  9.98816E-01  3.48166E-02
