# # comment:                                                     FEFF 9.9.1  
# # Source:
# # Structure
# # Reduced
# # space
# # abc:
# # angles:
# # sites:
# # POT  SCF 100  7.0000   0, screened core-hole, AFOLP (folp(0)= 1.150)
# # Abs   Z=29 Rmt= 1.139 Rnm= 1.235 K  shell
# # Pot 1 Z= 3 Rmt= 1.154 Rnm= 1.213
# # Pot 2 Z=57 Rmt= 1.766 Rnm= 1.840
# # Pot 3 Z=29 Rmt= 1.178 Rnm= 1.259
# # Pot 4 Z= 8 Rmt= 1.051 Rnm= 1.098
# # Gam_ch=1.729E+00 H-L exch Vi= 0.000E+00 Vr= 0.000E+00
# # Mu=-8.598E+00eV kf=1.998E+00 Vint=-1.941E+01eV Rs_int= 1.815
# FMS rfms= 9.0000
# # PATH  Rmax=-1.000,  Keep_limit= 0.00, Heap_limit 0.00  Pwcrit= 2.50%
#  S02=0.950  Temp=   0.00  Debye_temp=   0.00  Global_sig2= 0.00000
#  Energy zero shift, vr, vi    0.00000E+00   0.00000E+00
#  Curved wave amplitude ratio filter   4.000%
#     file         sig2 tot  cw amp ratio   deg  nlegs   reff  inp sig2
#     0/   0 paths used
#  xsedge+ 50, used to normalize mu           2.4620E-04
#  -----------------------------------------------------------------------
#  omega    e    k    mu    mu0     chi     @#
    8985.526    -12.408  -1.000  3.73019E-02  5.59771E-02 -1.86752E-02
    8985.825    -12.110  -0.960  3.92122E-02  6.01385E-02 -2.09263E-02
    8986.112    -11.823  -0.920  4.12723E-02  6.47727E-02 -2.35004E-02
    8986.386    -11.549  -0.880  4.35011E-02  6.99501E-02 -2.64490E-02
    8986.648    -11.287  -0.840  4.59215E-02  7.57532E-02 -2.98318E-02
    8986.898    -11.037  -0.800  4.85599E-02  8.22775E-02 -3.37176E-02
    8987.136    -10.799  -0.760  5.14475E-02  8.96328E-02 -3.81853E-02
    8987.361    -10.573  -0.720  5.46199E-02  9.79432E-02 -4.33233E-02
    8987.575    -10.360  -0.680  5.81169E-02  1.07346E-01 -4.92289E-02
    8987.776    -10.159  -0.640  6.19811E-02  1.17986E-01 -5.60044E-02
    8987.965     -9.970  -0.600  6.62543E-02  1.30005E-01 -6.37506E-02
    8988.142     -9.793  -0.560  7.09709E-02  1.43526E-01 -7.25550E-02
    8988.306     -9.629  -0.520  7.61484E-02  1.58622E-01 -8.24737E-02
    8988.459     -9.476  -0.480  8.17722E-02  1.75279E-01 -9.35068E-02
    8988.599     -9.336  -0.440  8.77804E-02  1.93350E-01 -1.05569E-01
    8988.727     -9.208  -0.400  9.40503E-02  2.12517E-01 -1.18467E-01
    8988.843     -9.092  -0.360  1.00398E-01  2.32280E-01 -1.31882E-01
    8988.946     -8.988  -0.320  1.06596E-01  2.51991E-01 -1.45394E-01
    8989.038     -8.897  -0.280  1.12408E-01  2.70927E-01 -1.58519E-01
    8989.117     -8.818  -0.240  1.17627E-01  2.88398E-01 -1.70771E-01
    8989.184     -8.751  -0.200  1.22110E-01  3.03828E-01 -1.81718E-01
    8989.239     -8.696  -0.160  1.25778E-01  3.16798E-01 -1.91020E-01
    8989.282     -8.653  -0.120  1.28607E-01  3.27042E-01 -1.98435E-01
    8989.312     -8.623  -0.080  1.30605E-01  3.34417E-01 -2.03813E-01
    8989.336     -8.598   0.000  1.32177E-01  3.40339E-01 -2.08162E-01
    8989.391     -8.543   0.120  1.35593E-01  3.53676E-01 -2.18082E-01
    8989.434     -8.501   0.160  1.38181E-01  3.64033E-01 -2.25852E-01
    8989.489     -8.446   0.200  1.41399E-01  3.77237E-01 -2.35838E-01
    8989.556     -8.379   0.240  1.45114E-01  3.93090E-01 -2.47976E-01
    8989.635     -8.300   0.280  1.49223E-01  4.11252E-01 -2.62029E-01
    8989.727     -8.208   0.320  1.53573E-01  4.31188E-01 -2.77615E-01
    8989.830     -8.105   0.360  1.58171E-01  4.52350E-01 -2.94179E-01
    8989.946     -7.989   0.400  1.63005E-01  4.74009E-01 -3.11004E-01
    8990.074     -7.861   0.440  1.68297E-01  4.95637E-01 -3.27339E-01
    8990.214     -7.721   0.480  1.74252E-01  5.16719E-01 -3.42467E-01
    8990.367     -7.568   0.520  1.81072E-01  5.36988E-01 -3.55916E-01
    8990.531     -7.404   0.560  1.88728E-01  5.56290E-01 -3.67562E-01
    8990.708     -7.227   0.600  1.97015E-01  5.74591E-01 -3.77576E-01
    8990.897     -7.038   0.640  2.05796E-01  5.91981E-01 -3.86185E-01
    8991.098     -6.837   0.680  2.15169E-01  6.08526E-01 -3.93357E-01
    8991.311     -6.623   0.720  2.25670E-01  6.24354E-01 -3.98684E-01
    8991.537     -6.398   0.760  2.38060E-01  6.39547E-01 -4.01486E-01
    8991.775     -6.160   0.800  2.53007E-01  6.54259E-01 -4.01252E-01
    8992.025     -5.910   0.840  2.69861E-01  6.68512E-01 -3.98651E-01
    8992.287     -5.648   0.880  2.86308E-01  6.82430E-01 -3.96122E-01
    8992.561     -5.374   0.920  2.99670E-01  6.96024E-01 -3.96353E-01
    8992.848     -5.087   0.960  3.10114E-01  7.09374E-01 -3.99260E-01
    8993.146     -4.788   1.000  3.20834E-01  7.22503E-01 -4.01668E-01
    8993.457     -4.477   1.040  3.35172E-01  7.35387E-01 -4.00215E-01
    8993.780     -4.154   1.080  3.54882E-01  7.48097E-01 -3.93215E-01
    8994.116     -3.819   1.120  3.80662E-01  7.60590E-01 -3.79928E-01
    8994.463     -3.472   1.160  4.14709E-01  7.72883E-01 -3.58174E-01
    8994.823     -3.112   1.200  4.61777E-01  7.84985E-01 -3.23208E-01
    8995.195     -2.740   1.240  5.27931E-01  7.96863E-01 -2.68932E-01
    8995.579     -2.356   1.280  6.18495E-01  8.08501E-01 -1.90006E-01
    8995.975     -1.960   1.320  7.36145E-01  8.19919E-01 -8.37745E-02
    8996.383     -1.551   1.360  8.81274E-01  8.31057E-01  5.02174E-02
    8996.804     -1.131   1.400  1.04979E+00  8.41932E-01  2.07858E-01
    8997.237     -0.698   1.440  1.20159E+00  8.52502E-01  3.49088E-01
    8997.682     -0.253   1.480  1.24300E+00  8.62785E-01  3.80215E-01
    8998.139      0.204   1.520  1.15134E+00  8.72734E-01  2.78604E-01
    8998.608      0.674   1.560  1.01879E+00  8.82369E-01  1.36421E-01
    8999.090      1.155   1.600  9.14125E-01  8.91644E-01  2.24816E-02
    8999.584      1.649   1.640  8.64984E-01  9.00554E-01 -3.55704E-02
    9000.090      2.155   1.680  8.85854E-01  9.09101E-01 -2.32462E-02
    9000.608      2.673   1.720  9.76729E-01  9.17259E-01  5.94706E-02
    9001.138      3.203   1.760  1.11183E+00  9.25048E-01  1.86778E-01
    9001.681      3.746   1.800  1.22493E+00  9.32447E-01  2.92483E-01
    9002.235      4.301   1.840  1.24433E+00  9.39457E-01  3.04875E-01
    9002.802      4.868   1.880  1.19644E+00  9.46078E-01  2.50359E-01
    9003.381      5.447   1.920  1.15365E+00  9.52311E-01  2.01343E-01
    9003.973      6.038   1.960  1.12547E+00  9.58157E-01  1.67313E-01
    9004.576      6.642   2.000  1.10482E+00  9.63600E-01  1.41216E-01
    9005.192      7.257   2.040  1.11195E+00  9.68683E-01  1.43265E-01
    9005.820      7.885   2.080  1.14365E+00  9.73389E-01  1.70260E-01
    9006.460      8.525   2.120  1.18477E+00  9.77725E-01  2.07046E-01
    9007.112      9.178   2.160  1.21967E+00  9.81714E-01  2.37952E-01
    9007.777      9.842   2.200  1.23299E+00  9.85341E-01  2.47649E-01
    9008.453     10.519   2.240  1.21937E+00  9.88634E-01  2.30735E-01
    9009.142     11.207   2.280  1.18123E+00  9.91619E-01  1.89615E-01
    9009.843     11.909   2.320  1.12752E+00  9.94283E-01  1.33233E-01
    9010.556     12.622   2.360  1.07393E+00  9.96673E-01  7.72581E-02
    9011.282     13.347   2.400  1.03847E+00  9.98755E-01  3.97114E-02
    9012.019     14.085   2.440  1.03698E+00  1.00058E+00  3.64031E-02
    9012.769     14.835   2.480  1.04986E+00  1.00215E+00  4.77094E-02
    9013.531     15.597   2.520  1.06715E+00  1.00347E+00  6.36817E-02
    9014.305     16.371   2.560  1.08486E+00  1.00455E+00  8.03005E-02
    9015.092     17.157   2.600  1.10095E+00  1.00545E+00  9.54979E-02
    9015.890     17.956   2.640  1.11278E+00  1.00614E+00  1.06636E-01
    9016.701     18.766   2.680  1.11791E+00  1.00664E+00  1.11265E-01
    9017.524     19.589   2.720  1.11544E+00  1.00697E+00  1.08473E-01
    9018.359     20.425   2.760  1.10626E+00  1.00716E+00  9.91028E-02
    9019.207     21.272   2.800  1.09204E+00  1.00719E+00  8.48492E-02
    9020.066     22.131   2.840  1.07431E+00  1.00710E+00  6.72173E-02
    9020.938     23.003   2.880  1.05413E+00  1.00688E+00  4.72526E-02
    9021.822     23.887   2.920  1.03201E+00  1.00657E+00  2.54376E-02
    9022.718     24.783   2.960  1.00824E+00  1.00617E+00  2.07145E-03
    9023.626     25.692   3.000  9.84007E-01  1.00567E+00 -2.16596E-02
    9024.547     26.612   3.040  9.61090E-01  1.00511E+00 -4.40180E-02
    9025.479     27.545   3.080  9.40537E-01  1.00450E+00 -6.39602E-02
    9026.424     28.490   3.120  9.22757E-01  1.00382E+00 -8.10613E-02
    9027.381     29.447   3.160  9.07766E-01  1.00312E+00 -9.53518E-02
    9028.351     30.416   3.200  8.95384E-01  1.00236E+00 -1.06974E-01
    9029.332     31.397   3.240  8.85769E-01  1.00161E+00 -1.15838E-01
    9030.326     32.391   3.280  8.79031E-01  1.00080E+00 -1.21773E-01
    9031.332     33.397   3.320  8.75299E-01  1.00002E+00 -1.24717E-01
    9032.350     34.415   3.360  8.74298E-01  9.99229E-01 -1.24931E-01
    9033.380     35.445   3.400  8.75473E-01  9.98441E-01 -1.22968E-01
    9034.422     36.487   3.440  8.77998E-01  9.97656E-01 -1.19657E-01
    9035.477     37.542   3.480  8.81135E-01  9.96878E-01 -1.15743E-01
    9036.544     38.609   3.520  8.84726E-01  9.96150E-01 -1.11424E-01
    9037.623     39.688   3.560  8.89027E-01  9.95412E-01 -1.06386E-01
    9038.714     40.779   3.600  8.94666E-01  9.94731E-01 -1.00064E-01
    9039.817     41.882   3.640  9.02069E-01  9.94064E-01 -9.19956E-02
    9040.933     42.998   3.680  9.11136E-01  9.93457E-01 -8.23208E-02
    9042.060     44.126   3.720  9.20851E-01  9.92868E-01 -7.20170E-02
    9043.200     45.266   3.760  9.29755E-01  9.92339E-01 -6.25840E-02
    9044.353     46.418   3.800  9.36698E-01  9.91831E-01 -5.51328E-02
    9045.517     47.582   3.840  9.41358E-01  9.91386E-01 -5.00281E-02
    9046.693     48.759   3.880  9.44251E-01  9.90985E-01 -4.67335E-02
    9047.882     49.947   3.920  9.46790E-01  9.90627E-01 -4.38369E-02
    9049.083     51.148   3.960  9.50707E-01  9.90334E-01 -3.96273E-02
    9050.296     52.361   4.000  9.57369E-01  9.90064E-01 -3.26955E-02
    9051.521     53.587   4.040  9.67239E-01  9.89860E-01 -2.26213E-02
    9052.759     54.824   4.080  9.79427E-01  9.89723E-01 -1.02960E-02
    9054.009     56.074   4.120  9.92000E-01  9.89609E-01  2.39168E-03
    9055.270     57.336   4.160  1.00286E+00  9.89558E-01  1.33051E-02
    9056.544     58.610   4.200  1.01071E+00  9.89551E-01  2.11614E-02
    9057.831     59.896   4.240  1.01555E+00  9.89586E-01  2.59613E-02
    9059.129     61.194   4.280  1.01831E+00  9.89663E-01  2.86475E-02
    9060.440     62.505   4.320  1.02040E+00  9.89781E-01  3.06146E-02
    9061.763     63.828   4.360  1.02309E+00  9.89962E-01  3.31266E-02
    9063.098     65.163   4.400  1.02689E+00  9.90164E-01  3.67224E-02
    9064.445     66.510   4.440  1.03155E+00  9.90425E-01  4.11209E-02
    9065.804     67.870   4.480  1.03644E+00  9.90702E-01  4.57409E-02
    9067.176     69.241   4.520  1.04134E+00  9.91016E-01  5.03195E-02
    9068.560     70.625   4.560  1.04659E+00  9.91365E-01  5.52278E-02
    9069.956     72.021   4.600  1.05300E+00  9.91750E-01  6.12460E-02
    9071.364     73.429   4.640  1.06114E+00  9.92146E-01  6.89929E-02
    9072.784     74.849   4.680  1.07098E+00  9.92575E-01  7.83999E-02
    9074.217     76.282   4.720  1.08167E+00  9.93037E-01  8.86288E-02
    9075.661     77.727   4.760  1.09164E+00  9.93504E-01  9.81321E-02
    9077.118     79.184   4.800  1.09912E+00  9.93978E-01  1.05141E-01
    9078.588     80.653   4.840  1.10266E+00  9.94478E-01  1.08184E-01
    9080.069     82.134   4.880  1.10134E+00  9.94981E-01  1.06356E-01
    9081.562     83.628   4.920  1.09498E+00  9.95487E-01  9.94929E-02
    9083.068     85.133   4.960  1.08423E+00  9.95992E-01  8.82405E-02
    9084.586     86.651   5.000  1.07022E+00  9.96496E-01  7.37229E-02
    9086.116     88.181   5.040  1.05415E+00  9.96995E-01  5.71548E-02
    9087.658     89.724   5.080  1.03695E+00  9.97470E-01  3.94830E-02
    9089.213     91.278   5.120  1.01945E+00  9.97961E-01  2.14919E-02
    9090.779     92.845   5.160  1.00255E+00  9.98425E-01  4.12427E-03
    9092.358     94.424   5.200  9.87544E-01  9.98881E-01 -1.13365E-02
    9093.949     96.015   5.240  9.75656E-01  9.99306E-01 -2.36498E-02
    9095.553     97.618   5.280  9.67589E-01  9.99723E-01 -3.21335E-02
    9097.168     99.233   5.320  9.63267E-01  1.00013E+00 -3.68605E-02
    9098.796    100.861   5.360  9.62034E-01  1.00048E+00 -3.84419E-02
    9100.436    102.501   5.400  9.63053E-01  1.00081E+00 -3.77579E-02
    9102.088    104.153   5.440  9.65118E-01  1.00113E+00 -3.60156E-02
    9103.752    105.817   5.480  9.66775E-01  1.00140E+00 -3.46203E-02
    9105.428    107.493   5.520  9.66951E-01  1.00164E+00 -3.46897E-02
    9107.117    109.182   5.560  9.65324E-01  1.00182E+00 -3.65000E-02
    9108.817    110.883   5.600  9.62418E-01  1.00199E+00 -3.95737E-02
    9110.530    112.596   5.640  9.58906E-01  1.00212E+00 -4.32140E-02
    9112.256    114.321   5.680  9.55318E-01  1.00221E+00 -4.68905E-02
    9113.993    116.058   5.720  9.52001E-01  1.00226E+00 -5.02560E-02
    9115.742    117.808   5.760  9.49171E-01  1.00226E+00 -5.30916E-02
    9117.504    119.570   5.800  9.46898E-01  1.00220E+00 -5.53068E-02
    9119.278    121.343   5.840  9.45262E-01  1.00213E+00 -5.68690E-02
    9121.064    123.130   5.880  9.44475E-01  1.00202E+00 -5.75422E-02
    9122.863    124.928   5.920  9.44608E-01  1.00187E+00 -5.72570E-02
    9124.673    126.738   5.960  9.46108E-01  1.00164E+00 -5.55352E-02
    9126.496    128.561   6.000  9.49411E-01  1.00138E+00 -5.19673E-02
