# # comment:                                                     FEFF 9.9.1  
# # Source:
# # Structure
# # Reduced
# # space
# # abc:
# # angles:
# # sites:
# # POT  SCF 100  7.0000   0, screened core-hole, AFOLP (folp(0)= 1.150)
# # Abs   Z=29 Rmt= 1.201 Rnm= 1.278 K  shell
# # Pot 1 Z=12 Rmt= 1.306 Rnm= 1.428
# # Pot 2 Z=29 Rmt= 1.201 Rnm= 1.278
# # Pot 3 Z= 8 Rmt= 1.039 Rnm= 1.126
# # Gam_ch=1.729E+00 H-L exch Vi= 0.000E+00 Vr= 0.000E+00
# # Mu=-8.364E+00eV kf=2.140E+00 Vint=-1.564E+01eV Rs_int= 1.694
# FMS rfms= 9.0000
# # PATH  Rmax=-1.000,  Keep_limit= 0.00, Heap_limit 0.00  Pwcrit= 2.50%
#  S02=0.950  Temp=   0.00  Debye_temp=   0.00  Global_sig2= 0.00000
#  Energy zero shift, vr, vi    0.00000E+00   0.00000E+00
#  Curved wave amplitude ratio filter   4.000%
#     file         sig2 tot  cw amp ratio   deg  nlegs   reff  inp sig2
#     0/   0 paths used
#  xsedge+ 50, used to normalize mu           2.4275E-04
#  -----------------------------------------------------------------------
#  omega    e    k    mu    mu0     chi     @#
    8984.149    -12.174  -1.000  2.97134E-02  5.58491E-02 -2.61357E-02
    8984.448    -11.875  -0.960  3.08887E-02  5.98986E-02 -2.90099E-02
    8984.735    -11.589  -0.920  3.21319E-02  6.43937E-02 -3.22618E-02
    8985.009    -11.315  -0.880  3.34513E-02  6.93992E-02 -3.59479E-02
    8985.271    -11.053  -0.840  3.48568E-02  7.49905E-02 -4.01336E-02
    8985.521    -10.803  -0.800  3.63604E-02  8.12546E-02 -4.48942E-02
    8985.759    -10.565  -0.760  3.79760E-02  8.82914E-02 -5.03154E-02
    8985.984    -10.339  -0.720  3.97201E-02  9.62135E-02 -5.64934E-02
    8986.198    -10.126  -0.680  4.16111E-02  1.05145E-01 -6.35336E-02
    8986.399     -9.925  -0.640  4.36691E-02  1.15215E-01 -7.15462E-02
    8986.588     -9.736  -0.600  4.59140E-02  1.26553E-01 -8.06394E-02
    8986.765     -9.559  -0.560  4.83626E-02  1.39267E-01 -9.09047E-02
    8986.929     -9.394  -0.520  5.10243E-02  1.53421E-01 -1.02397E-01
    8987.082     -9.242  -0.480  5.38940E-02  1.68999E-01 -1.15105E-01
    8987.222     -9.102  -0.440  5.69451E-02  1.85866E-01 -1.28920E-01
    8987.350     -8.974  -0.400  6.01229E-02  2.03729E-01 -1.43606E-01
    8987.466     -8.858  -0.360  6.33437E-02  2.22132E-01 -1.58788E-01
    8987.569     -8.754  -0.320  6.65011E-02  2.40483E-01 -1.73982E-01
    8987.661     -8.663  -0.280  6.94813E-02  2.58121E-01 -1.88640E-01
    8987.740     -8.584  -0.240  7.21813E-02  2.74411E-01 -2.02230E-01
    8987.807     -8.517  -0.200  7.45235E-02  2.88817E-01 -2.14294E-01
    8987.862     -8.462  -0.160  7.64604E-02  3.00945E-01 -2.24485E-01
    8987.905     -8.419  -0.120  7.79717E-02  3.10540E-01 -2.32568E-01
    8987.935     -8.389  -0.080  7.90547E-02  3.17456E-01 -2.38402E-01
    8987.959     -8.364   0.000  7.99442E-02  3.23016E-01 -2.43072E-01
    8988.014     -8.309   0.120  8.20009E-02  3.35572E-01 -2.53571E-01
    8988.057     -8.267   0.160  8.34654E-02  3.45331E-01 -2.61865E-01
    8988.112     -8.212   0.200  8.52439E-02  3.57818E-01 -2.72575E-01
    8988.179     -8.145   0.240  8.72668E-02  3.72884E-01 -2.85617E-01
    8988.258     -8.066   0.280  8.93648E-02  3.90210E-01 -3.00845E-01
    8988.350     -7.974   0.320  9.14751E-02  4.09430E-01 -3.17955E-01
    8988.453     -7.870   0.360  9.34019E-02  4.29970E-01 -3.36568E-01
    8988.569     -7.755   0.400  9.51334E-02  4.51324E-01 -3.56190E-01
    8988.697     -7.627   0.440  9.66548E-02  4.72949E-01 -3.76294E-01
    8988.837     -7.486   0.480  9.80251E-02  4.94455E-01 -3.96430E-01
    8988.990     -7.334   0.520  9.93953E-02  5.15574E-01 -4.16178E-01
    8989.154     -7.169   0.560  1.00870E-01  5.36165E-01 -4.35294E-01
    8989.331     -6.993   0.600  1.02611E-01  5.56213E-01 -4.53602E-01
    8989.520     -6.804   0.640  1.04676E-01  5.75726E-01 -4.71050E-01
    8989.721     -6.602   0.680  1.07141E-01  5.94766E-01 -4.87625E-01
    8989.935     -6.389   0.720  1.10122E-01  6.13408E-01 -5.03286E-01
    8990.160     -6.164   0.760  1.13741E-01  6.31723E-01 -5.17982E-01
    8990.398     -5.926   0.800  1.18152E-01  6.49752E-01 -5.31600E-01
    8990.648     -5.676   0.840  1.23709E-01  6.67566E-01 -5.43858E-01
    8990.910     -5.414   0.880  1.30636E-01  6.85158E-01 -5.54522E-01
    8991.184     -5.139   0.920  1.39073E-01  7.02547E-01 -5.63474E-01
    8991.471     -4.853   0.960  1.48858E-01  7.19724E-01 -5.70866E-01
    8991.769     -4.554   1.000  1.59714E-01  7.36708E-01 -5.76994E-01
    8992.080     -4.243   1.040  1.71372E-01  7.53448E-01 -5.82076E-01
    8992.403     -3.920   1.080  1.83990E-01  7.69907E-01 -5.85918E-01
    8992.739     -3.585   1.120  1.98179E-01  7.86064E-01 -5.87884E-01
    8993.086     -3.237   1.160  2.14947E-01  8.01912E-01 -5.86965E-01
    8993.446     -2.878   1.200  2.35561E-01  8.17362E-01 -5.81801E-01
    8993.818     -2.506   1.240  2.62261E-01  8.32402E-01 -5.70141E-01
    8994.202     -2.122   1.280  2.97819E-01  8.46980E-01 -5.49161E-01
    8994.598     -1.726   1.320  3.43218E-01  8.61064E-01 -5.17846E-01
    8995.006     -1.317   1.360  3.97128E-01  8.74643E-01 -4.77515E-01
    8995.427     -0.897   1.400  4.57733E-01  8.87664E-01 -4.29931E-01
    8995.860     -0.464   1.440  5.22123E-01  9.00076E-01 -3.77952E-01
    8996.305     -0.019   1.480  5.85536E-01  9.11913E-01 -3.26378E-01
    8996.762      0.438   1.520  6.48664E-01  9.23107E-01 -2.74443E-01
    8997.231      0.908   1.560  7.19960E-01  9.33672E-01 -2.13712E-01
    8997.713      1.389   1.600  7.98877E-01  9.43567E-01 -1.44690E-01
    8998.207      1.883   1.640  8.81054E-01  9.52831E-01 -7.17775E-02
    8998.713      2.389   1.680  9.78016E-01  9.61424E-01  1.65914E-02
    8999.231      2.907   1.720  1.09787E+00  9.69371E-01  1.28498E-01
    8999.761      3.438   1.760  1.22641E+00  9.76678E-01  2.49729E-01
    9000.304      3.980   1.800  1.33867E+00  9.83349E-01  3.55320E-01
    9000.859      4.535   1.840  1.42871E+00  9.89416E-01  4.39289E-01
    9001.425      5.102   1.880  1.50102E+00  9.94867E-01  5.06155E-01
    9002.005      5.681   1.920  1.55209E+00  9.99753E-01  5.52341E-01
    9002.596      6.272   1.960  1.59080E+00  1.00409E+00  5.86713E-01
    9003.199      6.876   2.000  1.63813E+00  1.00788E+00  6.30251E-01
    9003.815      7.491   2.040  1.70430E+00  1.01117E+00  6.93130E-01
    9004.443      8.119   2.080  1.76700E+00  1.01397E+00  7.53024E-01
    9005.083      8.759   2.120  1.76466E+00  1.01633E+00  7.48322E-01
    9005.735      9.412   2.160  1.66687E+00  1.01828E+00  6.48598E-01
    9006.400     10.076   2.200  1.52782E+00  1.01983E+00  5.07985E-01
    9007.076     10.753   2.240  1.40178E+00  1.02099E+00  3.80781E-01
    9007.765     11.442   2.280  1.29738E+00  1.02184E+00  2.75542E-01
    9008.466     12.143   2.320  1.20427E+00  1.02239E+00  1.81884E-01
    9009.180     12.856   2.360  1.12065E+00  1.02263E+00  9.80237E-02
    9009.905     13.581   2.400  1.05347E+00  1.02263E+00  3.08326E-02
    9010.643     14.319   2.440  1.00401E+00  1.02240E+00 -1.83883E-02
    9011.392     15.069   2.480  9.67833E-01  1.02198E+00 -5.41459E-02
    9012.154     15.831   2.520  9.41118E-01  1.02136E+00 -8.02450E-02
    9012.929     16.605   2.560  9.30670E-01  1.02060E+00 -8.99350E-02
    9013.715     17.391   2.600  9.32554E-01  1.01969E+00 -8.71408E-02
    9014.514     18.190   2.640  9.40109E-01  1.01868E+00 -7.85758E-02
    9015.324     19.001   2.680  9.51720E-01  1.01756E+00 -6.58442E-02
    9016.147     19.824   2.720  9.66189E-01  1.01638E+00 -5.01930E-02
    9016.982     20.659   2.760  9.81082E-01  1.01512E+00 -3.40429E-02
    9017.830     21.506   2.800  9.93142E-01  1.01383E+00 -2.06831E-02
    9018.689     22.366   2.840  9.99675E-01  1.01251E+00 -1.28343E-02
    9019.561     23.237   2.880  9.99430E-01  1.01116E+00 -1.17337E-02
    9020.445     24.121   2.920  9.92082E-01  1.00982E+00 -1.77329E-02
    9021.341     25.017   2.960  9.77993E-01  1.00849E+00 -3.04979E-02
    9022.249     25.926   3.000  9.58097E-01  1.00718E+00 -4.90792E-02
    9023.170     26.846   3.040  9.34166E-01  1.00590E+00 -7.17302E-02
    9024.103     27.779   3.080  9.08922E-01  1.00465E+00 -9.57311E-02
    9025.047     28.724   3.120  8.84861E-01  1.00345E+00 -1.18594E-01
    9026.004     29.681   3.160  8.63689E-01  1.00230E+00 -1.38612E-01
    9026.974     30.650   3.200  8.46605E-01  1.00122E+00 -1.54614E-01
    9027.955     31.631   3.240  8.34001E-01  1.00021E+00 -1.66208E-01
    9028.949     32.625   3.280  8.25652E-01  9.99254E-01 -1.73602E-01
    9029.955     33.631   3.320  8.21210E-01  9.98378E-01 -1.77168E-01
    9030.973     34.649   3.360  8.20526E-01  9.97582E-01 -1.77056E-01
    9032.003     35.679   3.400  8.22840E-01  9.96889E-01 -1.74049E-01
    9033.045     36.722   3.440  8.27542E-01  9.96257E-01 -1.68715E-01
    9034.100     37.776   3.480  8.34185E-01  9.95708E-01 -1.61523E-01
    9035.167     38.843   3.520  8.42548E-01  9.95264E-01 -1.52716E-01
    9036.246     39.922   3.560  8.52773E-01  9.94906E-01 -1.42134E-01
    9037.337     41.013   3.600  8.65532E-01  9.94633E-01 -1.29101E-01
    9038.440     42.117   3.640  8.81602E-01  9.94441E-01 -1.12839E-01
    9039.556     43.232   3.680  9.01404E-01  9.94333E-01 -9.29289E-02
    9040.684     44.360   3.720  9.25076E-01  9.94311E-01 -6.92348E-02
    9041.824     45.500   3.760  9.52356E-01  9.94393E-01 -4.20368E-02
    9042.976     46.652   3.800  9.82287E-01  9.94557E-01 -1.22699E-02
    9044.140     47.816   3.840  1.01340E+00  9.94781E-01  1.86180E-02
    9045.316     48.993   3.880  1.04401E+00  9.95105E-01  4.89011E-02
    9046.505     50.182   3.920  1.07219E+00  9.95486E-01  7.67051E-02
    9047.706     51.382   3.960  1.09637E+00  9.95943E-01  1.00428E-01
    9048.919     52.596   4.000  1.11568E+00  9.96475E-01  1.19208E-01
    9050.145     53.821   4.040  1.13002E+00  9.97059E-01  1.32965E-01
    9051.382     55.058   4.080  1.13982E+00  9.97714E-01  1.42106E-01
    9052.632     56.308   4.120  1.14567E+00  9.98417E-01  1.47258E-01
    9053.894     57.570   4.160  1.14788E+00  9.99186E-01  1.48697E-01
    9055.168     58.844   4.200  1.14624E+00  9.99978E-01  1.46265E-01
    9056.454     60.130   4.240  1.14058E+00  1.00083E+00  1.39752E-01
    9057.752     61.429   4.280  1.13110E+00  1.00173E+00  1.29378E-01
    9059.063     62.739   4.320  1.11835E+00  1.00263E+00  1.15720E-01
    9060.386     64.062   4.360  1.10302E+00  1.00358E+00  9.94485E-02
    9061.721     65.397   4.400  1.08582E+00  1.00455E+00  8.12743E-02
    9063.068     66.744   4.440  1.06750E+00  1.00553E+00  6.19659E-02
    9064.427     68.104   4.480  1.04905E+00  1.00654E+00  4.25103E-02
    9065.799     69.475   4.520  1.03161E+00  1.00753E+00  2.40823E-02
    9067.183     70.859   4.560  1.01631E+00  1.00854E+00  7.76726E-03
    9068.579     72.255   4.600  1.00379E+00  1.00952E+00 -5.72963E-03
    9069.987     73.663   4.640  9.94361E-01  1.01053E+00 -1.61670E-02
    9071.407     75.084   4.680  9.87825E-01  1.01150E+00 -2.36761E-02
    9072.840     76.516   4.720  9.83824E-01  1.01244E+00 -2.86177E-02
    9074.285     77.961   4.760  9.81938E-01  1.01337E+00 -3.14317E-02
    9075.742     79.418   4.800  9.81678E-01  1.01426E+00 -3.25861E-02
    9077.211     80.887   4.840  9.82655E-01  1.01514E+00 -3.24892E-02
    9078.692     82.368   4.880  9.84614E-01  1.01598E+00 -3.13690E-02
    9080.185     83.862   4.920  9.87445E-01  1.01676E+00 -2.93123E-02
    9081.691     85.367   4.960  9.91105E-01  1.01751E+00 -2.64040E-02
    9083.209     86.885   5.000  9.95377E-01  1.01819E+00 -2.28158E-02
    9084.739     88.415   5.040  1.00005E+00  1.01883E+00 -1.87779E-02
    9086.281     89.958   5.080  1.00493E+00  1.01942E+00 -1.44854E-02
    9087.836     91.512   5.120  1.00980E+00  1.01994E+00 -1.01349E-02
    9089.403     93.079   5.160  1.01442E+00  1.02040E+00 -5.98571E-03
    9090.981     94.658   5.200  1.01829E+00  1.02080E+00 -2.51220E-03
    9092.572     96.249   5.240  1.02080E+00  1.02114E+00 -3.36427E-04
    9094.176     97.852   5.280  1.02158E+00  1.02143E+00  1.46176E-04
    9095.791     99.467   5.320  1.02064E+00  1.02162E+00 -9.84745E-04
    9097.419    101.095   5.360  1.01850E+00  1.02176E+00 -3.26051E-03
    9099.059    102.735   5.400  1.01567E+00  1.02185E+00 -6.18211E-03
    9100.711    104.387   5.440  1.01240E+00  1.02186E+00 -9.45926E-03
    9102.375    106.051   5.480  1.00872E+00  1.02180E+00 -1.30737E-02
    9104.051    107.728   5.520  1.00454E+00  1.02168E+00 -1.71429E-02
    9105.740    109.416   5.560  9.99794E-01  1.02149E+00 -2.16957E-02
    9107.441    111.117   5.600  9.94680E-01  1.02122E+00 -2.65437E-02
    9109.154    112.830   5.640  9.89495E-01  1.02093E+00 -3.14374E-02
    9110.879    114.555   5.680  9.84271E-01  1.02054E+00 -3.62731E-02
    9112.616    116.292   5.720  9.79028E-01  1.02011E+00 -4.10809E-02
    9114.366    118.042   5.760  9.73810E-01  1.01963E+00 -4.58209E-02
    9116.127    119.804   5.800  9.68928E-01  1.01911E+00 -5.01808E-02
    9117.901    121.578   5.840  9.65022E-01  1.01855E+00 -5.35237E-02
    9119.687    123.364   5.880  9.62764E-01  1.01792E+00 -5.51547E-02
    9121.486    125.162   5.920  9.62565E-01  1.01726E+00 -5.46913E-02
    9123.296    126.973   5.960  9.64359E-01  1.01656E+00 -5.22027E-02
    9125.119    128.795   6.000  9.68297E-01  1.01583E+00 -4.75284E-02
