# # comment:                                                     FEFF 9.9.1  
# # Source:
# # Structure
# # Reduced
# # space
# # abc:
# # angles:118.383854
# # sites:
# # POT  SCF 100  7.0000   0, screened core-hole, AFOLP (folp(0)= 1.150)
# # Abs   Z=29 Rmt= 1.238 Rnm= 1.318 K  shell
# # Pot 1 Z=56 Rmt= 2.088 Rnm= 2.138
# # Pot 2 Z=29 Rmt= 1.238 Rnm= 1.318
# # Pot 3 Z=14 Rmt= 0.996 Rnm= 1.212
# # Pot 4 Z= 8 Rmt= 0.969 Rnm= 1.077
# # Gam_ch=1.729E+00 H-L exch Vi= 0.000E+00 Vr= 0.000E+00
# # Mu=-8.226E+00eV kf=2.292E+00 Vint=-1.801E+01eV Rs_int= 1.582
# FMS rfms= 9.0000
# # PATH  Rmax=-1.000,  Keep_limit= 0.00, Heap_limit 0.00  Pwcrit= 2.50%
#  S02=0.950  Temp=   0.00  Debye_temp=   0.00  Global_sig2= 0.00000
#  Energy zero shift, vr, vi    0.00000E+00   0.00000E+00
#  Curved wave amplitude ratio filter   4.000%
#     file         sig2 tot  cw amp ratio   deg  nlegs   reff  inp sig2
#     0/   0 paths used
#  xsedge+ 50, used to normalize mu           2.4919E-04
#  -----------------------------------------------------------------------
#  omega    e    k    mu    mu0     chi     @#
    8983.899    -12.036  -1.000  3.52448E-02  4.85560E-02 -1.33112E-02
    8984.198    -11.738  -0.960  3.70944E-02  5.19849E-02 -1.48905E-02
    8984.484    -11.451  -0.920  3.90850E-02  5.57900E-02 -1.67050E-02
    8984.759    -11.177  -0.880  4.12307E-02  6.00266E-02 -1.87959E-02
    8985.021    -10.915  -0.840  4.35470E-02  6.47590E-02 -2.12120E-02
    8985.271    -10.665  -0.800  4.60509E-02  7.00618E-02 -2.40109E-02
    8985.508    -10.427  -0.760  4.87604E-02  7.60205E-02 -2.72601E-02
    8985.734    -10.201  -0.720  5.16946E-02  8.27317E-02 -3.10371E-02
    8985.947     -9.988  -0.680  5.48728E-02  9.03019E-02 -3.54292E-02
    8986.149     -9.787  -0.640  5.83133E-02  9.88436E-02 -4.05302E-02
    8986.338     -9.598  -0.600  6.20319E-02  1.08467E-01 -4.64350E-02
    8986.514     -9.421  -0.560  6.60385E-02  1.19266E-01 -5.32278E-02
    8986.679     -9.257  -0.520  7.03332E-02  1.31297E-01 -6.09641E-02
    8986.831     -9.104  -0.480  7.49012E-02  1.44547E-01 -6.96461E-02
    8986.972     -8.964  -0.440  7.97066E-02  1.58900E-01 -7.91933E-02
    8987.100     -8.836  -0.400  8.46872E-02  1.74106E-01 -8.94184E-02
    8987.215     -8.720  -0.360  8.97520E-02  1.89772E-01 -1.00020E-01
    8987.319     -8.617  -0.320  9.47841E-02  2.05390E-01 -1.10606E-01
    8987.410     -8.525  -0.280  9.96486E-02  2.20395E-01 -1.20746E-01
    8987.490     -8.446  -0.240  1.04205E-01  2.34242E-01 -1.30038E-01
    8987.557     -8.379  -0.200  1.08317E-01  2.46478E-01 -1.38161E-01
    8987.612     -8.324  -0.160  1.11863E-01  2.56769E-01 -1.44906E-01
    8987.654     -8.281  -0.120  1.14743E-01  2.64903E-01 -1.50160E-01
    8987.685     -8.251  -0.080  1.16877E-01  2.70763E-01 -1.53886E-01
    8987.709     -8.226   0.000  1.18668E-01  2.75472E-01 -1.56804E-01
    8987.764     -8.171   0.120  1.22708E-01  2.86086E-01 -1.63378E-01
    8987.807     -8.129   0.160  1.25870E-01  2.94333E-01 -1.68463E-01
    8987.862     -8.074   0.200  1.30038E-01  3.04862E-01 -1.74823E-01
    8987.929     -8.007   0.240  1.35271E-01  3.17530E-01 -1.82259E-01
    8988.008     -7.928   0.280  1.41663E-01  3.32060E-01 -1.90397E-01
    8988.099     -7.836   0.320  1.49342E-01  3.48101E-01 -1.98759E-01
    8988.203     -7.733   0.360  1.58406E-01  3.65192E-01 -2.06786E-01
    8988.319     -7.617   0.400  1.68922E-01  3.82802E-01 -2.13881E-01
    8988.447     -7.489   0.440  1.81041E-01  4.00524E-01 -2.19483E-01
    8988.587     -7.349   0.480  1.94809E-01  4.17992E-01 -2.23183E-01
    8988.739     -7.196   0.520  2.10262E-01  4.34969E-01 -2.24707E-01
    8988.904     -7.032   0.560  2.27550E-01  4.51354E-01 -2.23804E-01
    8989.081     -6.855   0.600  2.46970E-01  4.67164E-01 -2.20193E-01
    8989.270     -6.666   0.640  2.68780E-01  4.82409E-01 -2.13630E-01
    8989.471     -6.465   0.680  2.93018E-01  4.97176E-01 -2.04158E-01
    8989.684     -6.251   0.720  3.19044E-01  5.11562E-01 -1.92518E-01
    8989.910     -6.026   0.760  3.45694E-01  5.25644E-01 -1.79950E-01
    8990.148     -5.788   0.800  3.72305E-01  5.39511E-01 -1.67206E-01
    8990.397     -5.538   0.840  3.99309E-01  5.53219E-01 -1.53910E-01
    8990.660     -5.276   0.880  4.25669E-01  5.66835E-01 -1.41166E-01
    8990.934     -5.002   0.920  4.45755E-01  5.80393E-01 -1.34637E-01
    8991.220     -4.715   0.960  4.52877E-01  5.93915E-01 -1.41038E-01
    8991.519     -4.416   1.000  4.45120E-01  6.07438E-01 -1.62319E-01
    8991.830     -4.105   1.040  4.25439E-01  6.20968E-01 -1.95529E-01
    8992.153     -3.782   1.080  4.01113E-01  6.34524E-01 -2.33411E-01
    8992.488     -3.447   1.120  3.80905E-01  6.48079E-01 -2.67174E-01
    8992.836     -3.100   1.160  3.70400E-01  6.61643E-01 -2.91242E-01
    8993.196     -2.740   1.200  3.70928E-01  6.75199E-01 -3.04271E-01
    8993.567     -2.368   1.240  3.81872E-01  6.88730E-01 -3.06858E-01
    8993.951     -1.984   1.280  4.01829E-01  7.02233E-01 -3.00404E-01
    8994.348     -1.588   1.320  4.25878E-01  7.15664E-01 -2.89786E-01
    8994.756     -1.179   1.360  4.46210E-01  7.29018E-01 -2.82808E-01
    8995.177     -0.759   1.400  4.60044E-01  7.42269E-01 -2.82224E-01
    8995.610     -0.326   1.440  4.74895E-01  7.55386E-01 -2.80491E-01
    8996.055      0.119   1.480  5.01339E-01  7.68362E-01 -2.67023E-01
    8996.512      0.576   1.520  5.45610E-01  7.81145E-01 -2.35535E-01
    8996.981      1.046   1.560  6.13202E-01  7.93726E-01 -1.80525E-01
    8997.463      1.527   1.600  7.07759E-01  8.06075E-01 -9.83165E-02
    8997.956      2.021   1.640  8.23247E-01  8.18183E-01  5.06471E-03
    8998.462      2.527   1.680  9.33717E-01  8.29997E-01  1.03720E-01
    8998.981      3.045   1.720  1.02079E+00  8.41508E-01  1.79283E-01
    8999.511      3.575   1.760  1.07283E+00  8.52708E-01  2.20125E-01
    9000.053      4.118   1.800  1.08043E+00  8.63568E-01  2.16858E-01
    9000.608      4.673   1.840  1.07242E+00  8.74081E-01  1.98344E-01
    9001.175      5.240   1.880  1.08312E+00  8.84198E-01  1.98921E-01
    9001.754      5.819   1.920  1.11560E+00  8.93953E-01  2.21649E-01
    9002.346      6.410   1.960  1.15588E+00  9.03282E-01  2.52597E-01
    9002.949      7.014   2.000  1.18709E+00  9.12219E-01  2.74875E-01
    9003.565      7.629   2.040  1.19897E+00  9.20741E-01  2.78233E-01
    9004.193      8.257   2.080  1.20138E+00  9.28824E-01  2.72556E-01
    9004.833      8.897   2.120  1.21133E+00  9.36486E-01  2.74848E-01
    9005.485      9.549   2.160  1.23493E+00  9.43708E-01  2.91224E-01
    9006.149     10.214   2.200  1.27099E+00  9.50508E-01  3.20486E-01
    9006.826     10.891   2.240  1.31541E+00  9.56869E-01  3.58544E-01
    9007.515     11.579   2.280  1.34777E+00  9.62790E-01  3.84983E-01
    9008.216     12.280   2.320  1.33550E+00  9.68294E-01  3.67203E-01
    9008.929     12.994   2.360  1.26655E+00  9.73389E-01  2.93165E-01
    9009.655     13.719   2.400  1.16189E+00  9.78075E-01  1.83814E-01
    9010.392     14.457   2.440  1.05592E+00  9.82357E-01  7.35580E-02
    9011.142     15.207   2.480  9.72863E-01  9.86262E-01 -1.33990E-02
    9011.904     15.969   2.520  9.23058E-01  9.89774E-01 -6.67151E-02
    9012.678     16.743   2.560  9.09640E-01  9.92920E-01 -8.32793E-02
    9013.465     17.529   2.600  9.23816E-01  9.95726E-01 -7.19094E-02
    9014.263     18.328   2.640  9.48194E-01  9.98178E-01 -4.99835E-02
    9015.074     19.138   2.680  9.73033E-01  1.00030E+00 -2.72703E-02
    9015.897     19.961   2.720  9.92994E-01  1.00211E+00 -9.11687E-03
    9016.732     20.797   2.760  1.00272E+00  1.00363E+00 -9.11684E-04
    9017.579     21.644   2.800  1.00424E+00  1.00487E+00 -6.28447E-04
    9018.439     22.503   2.840  1.00105E+00  1.00585E+00 -4.79513E-03
    9019.311     23.375   2.880  9.96983E-01  1.00659E+00 -9.60287E-03
    9020.195     24.259   2.920  9.93243E-01  1.00708E+00 -1.38415E-02
    9021.091     25.155   2.960  9.89296E-01  1.00735E+00 -1.80573E-02
    9021.999     26.063   3.000  9.84397E-01  1.00744E+00 -2.30427E-02
    9022.919     26.984   3.040  9.77878E-01  1.00733E+00 -2.94554E-02
    9023.852     27.917   3.080  9.69081E-01  1.00708E+00 -3.80008E-02
    9024.797     28.862   3.120  9.57551E-01  1.00665E+00 -4.91010E-02
    9025.754     29.819   3.160  9.43287E-01  1.00609E+00 -6.28024E-02
    9026.723     30.788   3.200  9.27007E-01  1.00540E+00 -7.83962E-02
    9027.705     31.769   3.240  9.10357E-01  1.00460E+00 -9.42414E-02
    9028.698     32.763   3.280  8.95373E-01  1.00370E+00 -1.08331E-01
    9029.704     33.769   3.320  8.83200E-01  1.00270E+00 -1.19505E-01
    9030.722     34.787   3.360  8.74383E-01  1.00165E+00 -1.27266E-01
    9031.753     35.817   3.400  8.68858E-01  1.00054E+00 -1.31685E-01
    9032.795     36.859   3.440  8.65920E-01  9.99371E-01 -1.33451E-01
    9033.850     37.914   3.480  8.64845E-01  9.98180E-01 -1.33335E-01
    9034.916     38.981   3.520  8.65161E-01  9.96953E-01 -1.31792E-01
    9035.995     40.060   3.560  8.66989E-01  9.95694E-01 -1.28705E-01
    9037.087     41.151   3.600  8.70513E-01  9.94428E-01 -1.23916E-01
    9038.190     42.254   3.640  8.76242E-01  9.93163E-01 -1.16921E-01
    9039.305     43.370   3.680  8.84657E-01  9.91921E-01 -1.07264E-01
    9040.433     44.498   3.720  8.95942E-01  9.90685E-01 -9.47436E-02
    9041.573     45.638   3.760  9.10125E-01  9.89457E-01 -7.93328E-02
    9042.725     46.790   3.800  9.27206E-01  9.88262E-01 -6.10555E-02
    9043.890     47.954   3.840  9.46957E-01  9.87104E-01 -4.01468E-02
    9045.066     49.131   3.880  9.68779E-01  9.85986E-01 -1.72071E-02
    9046.255     50.319   3.920  9.91678E-01  9.84909E-01  6.76840E-03
    9047.456     51.520   3.960  1.01424E+00  9.83897E-01  3.03402E-02
    9048.669     52.733   4.000  1.03476E+00  9.82930E-01  5.18257E-02
    9049.894     53.959   4.040  1.05188E+00  9.82008E-01  6.98699E-02
    9051.132     55.196   4.080  1.06496E+00  9.81134E-01  8.38254E-02
    9052.381     56.446   4.120  1.07428E+00  9.80351E-01  9.39242E-02
    9053.643     57.708   4.160  1.08068E+00  9.79600E-01  1.01084E-01
    9054.917     58.982   4.200  1.08525E+00  9.78941E-01  1.06308E-01
    9056.203     60.268   4.240  1.08836E+00  9.78333E-01  1.10031E-01
    9057.502     61.566   4.280  1.08966E+00  9.77799E-01  1.11860E-01
    9058.813     62.877   4.320  1.08830E+00  9.77318E-01  1.10983E-01
    9060.135     64.200   4.360  1.08353E+00  9.76933E-01  1.06599E-01
    9061.470     65.535   4.400  1.07517E+00  9.76600E-01  9.85680E-02
    9062.818     66.882   4.440  1.06403E+00  9.76318E-01  8.77095E-02
    9064.177     68.242   4.480  1.05167E+00  9.76131E-01  7.55439E-02
    9065.549     69.613   4.520  1.03970E+00  9.75995E-01  6.37002E-02
    9066.932     70.997   4.560  1.02926E+00  9.75909E-01  5.33535E-02
    9068.328     72.393   4.600  1.02082E+00  9.75916E-01  4.49091E-02
    9069.737     73.801   4.640  1.01406E+00  9.75950E-01  3.81048E-02
    9071.157     75.221   4.680  1.00842E+00  9.76054E-01  3.23683E-02
    9072.589     76.654   4.720  1.00324E+00  9.76227E-01  2.70127E-02
    9074.034     78.099   4.760  9.97738E-01  9.76445E-01  2.12923E-02
    9075.491     79.556   4.800  9.91229E-01  9.76707E-01  1.45213E-02
    9076.960     81.025   4.840  9.83306E-01  9.77012E-01  6.29321E-03
    9078.442     82.506   4.880  9.74149E-01  9.77380E-01 -3.23180E-03
    9079.935     84.000   4.920  9.64575E-01  9.77767E-01 -1.31921E-02
    9081.441     85.505   4.960  9.55912E-01  9.78213E-01 -2.23016E-02
    9082.959     87.023   5.000  9.49221E-01  9.78675E-01 -2.94541E-02
    9084.489     88.553   5.040  9.44946E-01  9.79167E-01 -3.42213E-02
    9086.031     90.096   5.080  9.42863E-01  9.79671E-01 -3.68075E-02
    9087.586     91.650   5.120  9.42211E-01  9.80207E-01 -3.79958E-02
    9089.152     93.217   5.160  9.42185E-01  9.80774E-01 -3.85886E-02
    9090.731     94.796   5.200  9.42269E-01  9.81346E-01 -3.90767E-02
    9092.322     96.387   5.240  9.42314E-01  9.81920E-01 -3.96059E-02
    9093.925     97.990   5.280  9.42386E-01  9.82494E-01 -4.01080E-02
    9095.541     99.605   5.320  9.42776E-01  9.83069E-01 -4.02921E-02
    9097.168    101.233   5.360  9.43400E-01  9.83641E-01 -4.02416E-02
    9098.808    102.873   5.400  9.44269E-01  9.84211E-01 -3.99425E-02
    9100.460    104.525   5.440  9.45569E-01  9.84774E-01 -3.92057E-02
    9102.124    106.189   5.480  9.47626E-01  9.85306E-01 -3.76805E-02
    9103.801    107.865   5.520  9.50688E-01  9.85806E-01 -3.51186E-02
    9105.489    109.554   5.560  9.54729E-01  9.86297E-01 -3.15681E-02
    9107.190    111.255   5.600  9.59416E-01  9.86777E-01 -2.73614E-02
    9108.903    112.968   5.640  9.64208E-01  9.87220E-01 -2.30125E-02
    9110.628    114.693   5.680  9.68543E-01  9.87603E-01 -1.90595E-02
    9112.366    116.430   5.720  9.72088E-01  9.87968E-01 -1.58796E-02
    9114.115    118.180   5.760  9.74688E-01  9.88295E-01 -1.36063E-02
    9115.877    119.941   5.800  9.76413E-01  9.88582E-01 -1.21686E-02
    9117.651    121.715   5.840  9.77495E-01  9.88828E-01 -1.13331E-02
    9119.437    123.502   5.880  9.78327E-01  9.89031E-01 -1.07042E-02
    9121.235    125.300   5.920  9.79430E-01  9.89164E-01 -9.73442E-03
    9123.046    127.110   5.960  9.81282E-01  9.89271E-01 -7.98832E-03
    9124.869    128.933   6.000  9.83825E-01  9.89280E-01 -5.45516E-03
