# # comment:                                                     FEFF 9.9.1  
# # Source:
# # Structure
# # Reduced
# # space
# # abc:
# # angles:
# # sites:
# # POT  SCF 100  7.0000   0, screened core-hole, AFOLP (folp(0)= 1.150)
# # Abs   Z=29 Rmt= 1.366 Rnm= 1.432 K  shell
# # Pot 1 Z=29 Rmt= 1.370 Rnm= 1.438
# # Pot 2 Z=50 Rmt= 1.659 Rnm= 1.748
# # Pot 3 Z= 8 Rmt= 0.922 Rnm= 1.049
# # Gam_ch=1.729E+00 H-L exch Vi= 0.000E+00 Vr= 0.000E+00
# # Mu=-7.303E+00eV kf=2.341E+00 Vint=-1.489E+01eV Rs_int= 1.549
# FMS rfms= 9.0000
# # PATH  Rmax=-1.000,  Keep_limit= 0.00, Heap_limit 0.00  Pwcrit= 2.50%
#  S02=0.950  Temp=   0.00  Debye_temp=   0.00  Global_sig2= 0.00000
#  Energy zero shift, vr, vi    0.00000E+00   0.00000E+00
#  Curved wave amplitude ratio filter   4.000%
#     file         sig2 tot  cw amp ratio   deg  nlegs   reff  inp sig2
#     0/   0 paths used
#  xsedge+ 50, used to normalize mu           2.4610E-04
#  -----------------------------------------------------------------------
#  omega    e    k    mu    mu0     chi     @#
    8983.183    -11.113  -1.000  3.73254E-02  5.04515E-02 -1.31261E-02
    8983.482    -10.814  -0.960  3.90323E-02  5.39818E-02 -1.49495E-02
    8983.769    -10.527  -0.920  4.08293E-02  5.78924E-02 -1.70631E-02
    8984.043    -10.253  -0.880  4.27217E-02  6.22380E-02 -1.95162E-02
    8984.305     -9.991  -0.840  4.47158E-02  6.70822E-02 -2.23664E-02
    8984.555     -9.741  -0.800  4.68180E-02  7.24988E-02 -2.56807E-02
    8984.793     -9.503  -0.760  4.90360E-02  7.85720E-02 -2.95360E-02
    8985.018     -9.278  -0.720  5.13777E-02  8.53971E-02 -3.40194E-02
    8985.232     -9.064  -0.680  5.38516E-02  9.30785E-02 -3.92269E-02
    8985.433     -8.863  -0.640  5.64660E-02  1.01726E-01 -4.52604E-02
    8985.622     -8.674  -0.600  5.92281E-02  1.11449E-01 -5.22204E-02
    8985.799     -8.497  -0.560  6.21414E-02  1.22336E-01 -6.01949E-02
    8985.963     -8.333  -0.520  6.52035E-02  1.34443E-01 -6.92398E-02
    8986.116     -8.180  -0.480  6.84014E-02  1.47755E-01 -7.93541E-02
    8986.256     -8.040  -0.440  7.17067E-02  1.62156E-01 -9.04496E-02
    8986.384     -7.912  -0.400  7.50720E-02  1.77398E-01 -1.02327E-01
    8986.500     -7.796  -0.360  7.84297E-02  1.93094E-01 -1.14664E-01
    8986.603     -7.693  -0.320  8.16967E-02  2.08739E-01 -1.27043E-01
    8986.695     -7.601  -0.280  8.47827E-02  2.23774E-01 -1.38991E-01
    8986.774     -7.522  -0.240  8.76022E-02  2.37658E-01 -1.50056E-01
    8986.841     -7.455  -0.200  9.00836E-02  2.49937E-01 -1.59854E-01
    8986.896     -7.400  -0.160  9.21729E-02  2.60275E-01 -1.68102E-01
    8986.939     -7.357  -0.120  9.38340E-02  2.68455E-01 -1.74621E-01
    8986.969     -7.327  -0.080  9.50446E-02  2.74353E-01 -1.79308E-01
    8986.993     -7.303   0.000  9.60510E-02  2.79095E-01 -1.83044E-01
    8987.048     -7.248   0.120  9.83424E-02  2.89800E-01 -1.91457E-01
    8987.091     -7.205   0.160  1.00078E-01  2.98137E-01 -1.98059E-01
    8987.146     -7.150   0.200  1.02261E-01  3.08797E-01 -2.06537E-01
    8987.213     -7.083   0.240  1.04862E-01  3.21634E-01 -2.16772E-01
    8987.292     -7.004   0.280  1.07908E-01  3.36454E-01 -2.28546E-01
    8987.384     -6.912   0.320  1.11308E-01  3.52873E-01 -2.41566E-01
    8987.487     -6.809   0.360  1.15049E-01  3.70459E-01 -2.55410E-01
    8987.603     -6.693   0.400  1.19100E-01  3.88771E-01 -2.69671E-01
    8987.731     -6.565   0.440  1.23443E-01  4.07346E-01 -2.83903E-01
    8987.871     -6.425   0.480  1.28139E-01  4.25879E-01 -2.97739E-01
    8988.024     -6.272   0.520  1.33282E-01  4.44161E-01 -3.10879E-01
    8988.188     -6.108   0.560  1.38937E-01  4.62057E-01 -3.23120E-01
    8988.365     -5.931   0.600  1.45289E-01  4.79559E-01 -3.34270E-01
    8988.554     -5.742   0.640  1.52448E-01  4.96692E-01 -3.44243E-01
    8988.755     -5.541   0.680  1.60598E-01  5.13553E-01 -3.52955E-01
    8988.969     -5.328   0.720  1.69895E-01  5.30188E-01 -3.60293E-01
    8989.194     -5.102   0.760  1.80657E-01  5.46661E-01 -3.66005E-01
    8989.432     -4.864   0.800  1.93417E-01  5.63049E-01 -3.69632E-01
    8989.682     -4.614   0.840  2.08979E-01  5.79395E-01 -3.70415E-01
    8989.944     -4.352   0.880  2.28416E-01  5.95711E-01 -3.67295E-01
    8990.218     -4.078   0.920  2.53166E-01  6.12038E-01 -3.58872E-01
    8990.505     -3.791   0.960  2.85252E-01  6.28366E-01 -3.43114E-01
    8990.803     -3.493   1.000  3.27770E-01  6.44716E-01 -3.16946E-01
    8991.114     -3.182   1.040  3.85325E-01  6.61060E-01 -2.75736E-01
    8991.437     -2.859   1.080  4.64224E-01  6.77384E-01 -2.13160E-01
    8991.773     -2.523   1.120  5.71746E-01  6.93648E-01 -1.21903E-01
    8992.120     -2.176   1.160  7.15351E-01  7.09849E-01  5.50205E-03
    8992.480     -1.816   1.200  9.00234E-01  7.25936E-01  1.74299E-01
    8992.852     -1.444   1.240  1.11979E+00  7.41860E-01  3.77933E-01
    8993.236     -1.060   1.280  1.33841E+00  7.57609E-01  5.80799E-01
    8993.632     -0.664   1.320  1.48835E+00  7.73147E-01  7.15207E-01
    8994.040     -0.256   1.360  1.50915E+00  7.88398E-01  7.20750E-01
    8994.461      0.165   1.400  1.40909E+00  8.03346E-01  6.05745E-01
    8994.894      0.598   1.440  1.25963E+00  8.17957E-01  4.41669E-01
    8995.339      1.043   1.480  1.11265E+00  8.32193E-01  2.80455E-01
    8995.796      1.500   1.520  9.82124E-01  8.46000E-01  1.36124E-01
    8996.265      1.969   1.560  8.86011E-01  8.59362E-01  2.66494E-02
    8996.747      2.451   1.600  8.38592E-01  8.72247E-01 -3.36546E-02
    8997.241      2.945   1.640  8.34905E-01  8.84624E-01 -4.97194E-02
    8997.747      3.451   1.680  8.64308E-01  8.96482E-01 -3.21737E-02
    8998.265      3.969   1.720  9.17312E-01  9.07793E-01  9.51898E-03
    8998.795      4.499   1.760  9.73378E-01  9.18530E-01  5.48482E-02
    8999.338      5.042   1.800  1.01510E+00  9.28709E-01  8.63928E-02
    8999.893      5.596   1.840  1.04473E+00  9.38305E-01  1.06426E-01
    9000.459      6.163   1.880  1.07090E+00  9.47317E-01  1.23578E-01
    9001.039      6.742   1.920  1.10015E+00  9.55725E-01  1.44429E-01
    9001.630      7.334   1.960  1.13962E+00  9.63571E-01  1.76052E-01
    9002.233      7.937   2.000  1.18726E+00  9.70840E-01  2.16420E-01
    9002.849      8.553   2.040  1.20967E+00  9.77534E-01  2.32139E-01
    9003.477      9.181   2.080  1.16612E+00  9.83658E-01  1.82465E-01
    9004.117      9.821   2.120  1.07193E+00  9.89242E-01  8.26837E-02
    9004.769     10.473   2.160  9.73770E-01  9.94291E-01 -2.05212E-02
    9005.434     11.138   2.200  9.00745E-01  9.98836E-01 -9.80904E-02
    9006.110     11.814   2.240  8.62422E-01  1.00287E+00 -1.40445E-01
    9006.799     12.503   2.280  8.55740E-01  1.00646E+00 -1.50715E-01
    9007.500     13.204   2.320  8.68384E-01  1.00957E+00 -1.41186E-01
    9008.214     13.917   2.360  8.87618E-01  1.01224E+00 -1.24625E-01
    9008.939     14.643   2.400  9.09954E-01  1.01453E+00 -1.04573E-01
    9009.677     15.380   2.440  9.37996E-01  1.01643E+00 -7.84386E-02
    9010.426     16.130   2.480  9.71993E-01  1.01796E+00 -4.59645E-02
    9011.188     16.892   2.520  1.00988E+00  1.01917E+00 -9.28435E-03
    9011.963     17.666   2.560  1.05071E+00  1.02006E+00  3.06554E-02
    9012.749     18.453   2.600  1.09571E+00  1.02066E+00  7.50513E-02
    9013.548     19.251   2.640  1.14244E+00  1.02098E+00  1.21464E-01
    9014.358     20.062   2.680  1.17239E+00  1.02108E+00  1.51311E-01
    9015.181     20.885   2.720  1.15843E+00  1.02094E+00  1.37484E-01
    9016.016     21.720   2.760  1.10374E+00  1.02060E+00  8.31352E-02
    9016.864     22.568   2.800  1.05799E+00  1.02011E+00  3.78815E-02
    9017.723     23.427   2.840  1.02720E+00  1.01944E+00  7.76089E-03
    9018.595     24.299   2.880  1.00763E+00  1.01863E+00 -1.10054E-02
    9019.479     25.183   2.920  9.94228E-01  1.01768E+00 -2.34532E-02
    9020.375     26.079   2.960  9.83791E-01  1.01666E+00 -3.28668E-02
    9021.283     26.987   3.000  9.75189E-01  1.01553E+00 -4.03401E-02
    9022.204     27.908   3.040  9.68055E-01  1.01434E+00 -4.62864E-02
    9023.137     28.840   3.080  9.61903E-01  1.01308E+00 -5.11805E-02
    9024.081     29.785   3.120  9.55883E-01  1.01178E+00 -5.59010E-02
    9025.038     30.742   3.160  9.49196E-01  1.01047E+00 -6.12715E-02
    9026.008     31.712   3.200  9.41646E-01  1.00912E+00 -6.74740E-02
    9026.989     32.693   3.240  9.33494E-01  1.00777E+00 -7.42750E-02
    9027.983     33.687   3.280  9.25261E-01  1.00642E+00 -8.11572E-02
    9028.989     34.693   3.320  9.17740E-01  1.00509E+00 -8.73542E-02
    9030.007     35.711   3.360  9.11763E-01  1.00378E+00 -9.20156E-02
    9031.037     36.741   3.400  9.07952E-01  1.00250E+00 -9.45435E-02
    9032.079     37.783   3.440  9.06754E-01  1.00123E+00 -9.44770E-02
    9033.134     38.838   3.480  9.08335E-01  1.00003E+00 -9.16938E-02
    9034.201     39.905   3.520  9.12564E-01  9.98893E-01 -8.63295E-02
    9035.280     40.984   3.560  9.19226E-01  9.97783E-01 -7.85570E-02
    9036.371     42.075   3.600  9.28254E-01  9.96742E-01 -6.84878E-02
    9037.474     43.178   3.640  9.39509E-01  9.95775E-01 -5.62657E-02
    9038.590     44.294   3.680  9.52675E-01  9.94882E-01 -4.22076E-02
    9039.718     45.421   3.720  9.67415E-01  9.94043E-01 -2.66280E-02
    9040.857     46.561   3.760  9.83401E-01  9.93278E-01 -9.87689E-03
    9042.010     47.714   3.800  1.00014E+00  9.92590E-01  7.55386E-03
    9043.174     48.878   3.840  1.01699E+00  9.91959E-01  2.50308E-02
    9044.350     50.054   3.880  1.03325E+00  9.91427E-01  4.18209E-02
    9045.539     51.243   3.920  1.04807E+00  9.90975E-01  5.70901E-02
    9046.740     52.444   3.960  1.06060E+00  9.90580E-01  7.00245E-02
    9047.953     53.657   4.000  1.07026E+00  9.90284E-01  7.99725E-02
    9049.179     54.882   4.040  1.07659E+00  9.90045E-01  8.65465E-02
    9050.416     56.120   4.080  1.07968E+00  9.89882E-01  8.97963E-02
    9051.666     57.370   4.120  1.08032E+00  9.89796E-01  9.05190E-02
    9052.928     58.631   4.160  1.07968E+00  9.89786E-01  8.98931E-02
    9054.202     59.905   4.200  1.07890E+00  9.89828E-01  8.90713E-02
    9055.488     61.192   4.240  1.07869E+00  9.89944E-01  8.87468E-02
    9056.786     62.490   4.280  1.07896E+00  9.90133E-01  8.88239E-02
    9058.097     63.801   4.320  1.07876E+00  9.90372E-01  8.83927E-02
    9059.420     65.124   4.360  1.07687E+00  9.90678E-01  8.61929E-02
    9060.755     66.459   4.400  1.07228E+00  9.91008E-01  8.12719E-02
    9062.102     67.806   4.440  1.06463E+00  9.91427E-01  7.32023E-02
    9063.461     69.165   4.480  1.05400E+00  9.91866E-01  6.21381E-02
    9064.833     70.537   4.520  1.04095E+00  9.92343E-01  4.86049E-02
    9066.217     71.921   4.560  1.02614E+00  9.92859E-01  3.32792E-02
    9067.613     73.317   4.600  1.01042E+00  9.93412E-01  1.70027E-02
    9069.021     74.725   4.640  9.94825E-01  9.93999E-01  8.25409E-04
    9070.441     76.145   4.680  9.80346E-01  9.94597E-01 -1.42510E-02
    9071.874     77.578   4.720  9.67693E-01  9.95224E-01 -2.75306E-02
    9073.319     79.022   4.760  9.57081E-01  9.95857E-01 -3.87760E-02
    9074.776     80.479   4.800  9.48347E-01  9.96495E-01 -4.81483E-02
    9076.245     81.949   4.840  9.41231E-01  9.97155E-01 -5.59244E-02
    9077.726     83.430   4.880  9.35447E-01  9.97795E-01 -6.23483E-02
    9079.219     84.923   4.920  9.30790E-01  9.98453E-01 -6.76637E-02
    9080.725     86.429   4.960  9.27043E-01  9.99085E-01 -7.20419E-02
    9082.243     87.947   5.000  9.24109E-01  9.99709E-01 -7.56008E-02
    9083.773     89.477   5.040  9.21913E-01  1.00030E+00 -7.83900E-02
    9085.315     91.019   5.080  9.20525E-01  1.00089E+00 -8.03603E-02
    9086.870     92.574   5.120  9.20065E-01  1.00144E+00 -8.13699E-02
    9088.437     94.140   5.160  9.20951E-01  1.00197E+00 -8.10213E-02
    9090.015     95.719   5.200  9.23665E-01  1.00247E+00 -7.88071E-02
    9091.606     97.310   5.240  9.28568E-01  1.00293E+00 -7.43632E-02
    9093.210     98.914   5.280  9.35691E-01  1.00335E+00 -6.76578E-02
    9094.825    100.529   5.320  9.44754E-01  1.00370E+00 -5.89478E-02
    9096.453    102.157   5.360  9.55425E-01  1.00404E+00 -4.86104E-02
    9098.093    103.797   5.400  9.67235E-01  1.00433E+00 -3.70914E-02
    9099.745    105.449   5.440  9.79659E-01  1.00455E+00 -2.48919E-02
    9101.409    107.113   5.480  9.92209E-01  1.00475E+00 -1.25435E-02
    9103.085    108.789   5.520  1.00434E+00  1.00489E+00 -5.46203E-04
    9104.774    110.478   5.560  1.01567E+00  1.00495E+00  1.07159E-02
    9106.475    112.178   5.600  1.02606E+00  1.00499E+00  2.10725E-02
    9108.188    113.891   5.640  1.03554E+00  1.00496E+00  3.05825E-02
    9109.913    115.617   5.680  1.04428E+00  1.00486E+00  3.94155E-02
    9111.650    117.354   5.720  1.05240E+00  1.00474E+00  4.76576E-02
    9113.400    119.103   5.760  1.05970E+00  1.00456E+00  5.51444E-02
    9115.161    120.865   5.800  1.06581E+00  1.00432E+00  6.14866E-02
    9116.935    122.639   5.840  1.07023E+00  1.00402E+00  6.62052E-02
    9118.721    124.425   5.880  1.07264E+00  1.00368E+00  6.89590E-02
    9120.520    126.224   5.920  1.07291E+00  1.00329E+00  6.96152E-02
    9122.330    128.034   5.960  1.07103E+00  1.00287E+00  6.81549E-02
    9124.153    129.857   6.000  1.06677E+00  1.00238E+00  6.43850E-02
