# # comment:                                                     FEFF 9.9.1  
# # Source:
# # Structure
# # Reduced
# # space
# # abc:
# # angles:
# # sites:
# # POT  SCF 100  7.0000   0, screened core-hole, AFOLP (folp(0)= 1.150)
# # Abs   Z=29 Rmt= 1.151 Rnm= 1.311 K  shell
# # Pot 1 Z=11 Rmt= 1.548 Rnm= 1.592
# # Pot 2 Z=29 Rmt= 1.151 Rnm= 1.311
# # Pot 3 Z= 8 Rmt= 1.070 Rnm= 1.145
# # Gam_ch=1.729E+00 H-L exch Vi= 0.000E+00 Vr= 0.000E+00
# # Mu=-7.169E+00eV kf=1.879E+00 Vint=-1.472E+01eV Rs_int= 1.930
# FMS rfms= 9.0000
# # PATH  Rmax=-1.000,  Keep_limit= 0.00, Heap_limit 0.00  Pwcrit= 2.50%
#  S02=0.950  Temp=   0.00  Debye_temp=   0.00  Global_sig2= 0.00000
#  Energy zero shift, vr, vi    0.00000E+00   0.00000E+00
#  Curved wave amplitude ratio filter   4.000%
#     file         sig2 tot  cw amp ratio   deg  nlegs   reff  inp sig2
#     0/   0 paths used
#  xsedge+ 50, used to normalize mu           2.3983E-04
#  -----------------------------------------------------------------------
#  omega    e    k    mu    mu0     chi     @#
    8984.792    -10.979  -1.000  5.73528E-02  6.22474E-02 -4.89463E-03
    8985.090    -10.680  -0.960  6.16760E-02  6.68978E-02 -5.22185E-03
    8985.377    -10.393  -0.920  6.64988E-02  7.20697E-02 -5.57093E-03
    8985.651    -10.119  -0.880  7.18955E-02  7.78397E-02 -5.94418E-03
    8985.913     -9.857  -0.840  7.79519E-02  8.42968E-02 -6.34490E-03
    8986.163     -9.607  -0.800  8.47663E-02  9.15440E-02 -6.77769E-03
    8986.401     -9.369  -0.760  9.24504E-02  9.96994E-02 -7.24902E-03
    8986.627     -9.144  -0.720  1.01129E-01  1.08897E-01 -7.76759E-03
    8986.840     -8.930  -0.680  1.10937E-01  1.19282E-01 -8.34457E-03
    8987.041     -8.729  -0.640  1.22017E-01  1.31011E-01 -8.99306E-03
    8987.230     -8.540  -0.600  1.34508E-01  1.44234E-01 -9.72626E-03
    8987.407     -8.363  -0.560  1.48528E-01  1.59082E-01 -1.05532E-02
    8987.571     -8.199  -0.520  1.64159E-01  1.75630E-01 -1.14712E-02
    8987.724     -8.047  -0.480  1.81407E-01  1.93862E-01 -1.24551E-02
    8987.864     -7.906  -0.440  2.00173E-01  2.13618E-01 -1.34449E-02
    8987.992     -7.778  -0.400  2.20216E-01  2.34555E-01 -1.43391E-02
    8988.108     -7.662  -0.360  2.41134E-01  2.56135E-01 -1.50012E-02
    8988.212     -7.559  -0.320  2.62371E-01  2.77658E-01 -1.52874E-02
    8988.303     -7.467  -0.280  2.83256E-01  2.98347E-01 -1.50910E-02
    8988.382     -7.388  -0.240  3.03066E-01  3.17452E-01 -1.43860E-02
    8988.449     -7.321  -0.200  3.21095E-01  3.34345E-01 -1.32492E-02
    8988.504     -7.266  -0.160  3.36715E-01  3.48562E-01 -1.18470E-02
    8988.547     -7.224  -0.120  3.49413E-01  3.59808E-01 -1.03948E-02
    8988.577     -7.193  -0.080  3.58801E-01  3.67913E-01 -9.11229E-03
    8988.602     -7.169   0.000  3.66591E-01  3.74428E-01 -7.83677E-03
    8988.657     -7.114   0.120  3.83737E-01  3.89119E-01 -5.38284E-03
    8988.699     -7.071   0.160  3.97478E-01  4.00550E-01 -3.07212E-03
    8988.754     -7.016   0.200  4.15523E-01  4.15148E-01  3.75352E-04
    8988.821     -6.949   0.240  4.38017E-01  4.32728E-01  5.28888E-03
    8988.900     -6.870   0.280  4.64885E-01  4.52958E-01  1.19269E-02
    8988.992     -6.779   0.320  4.95601E-01  4.75347E-01  2.02537E-02
    8989.095     -6.675   0.360  5.28824E-01  4.99237E-01  2.95868E-02
    8989.211     -6.559   0.400  5.62207E-01  5.23974E-01  3.82329E-02
    8989.339     -6.431   0.440  5.92366E-01  5.48934E-01  4.34314E-02
    8989.479     -6.291   0.480  6.15684E-01  5.73630E-01  4.20543E-02
    8989.632     -6.138   0.520  6.29824E-01  5.97759E-01  3.20649E-02
    8989.796     -5.974   0.560  6.34965E-01  6.21159E-01  1.38067E-02
    8989.973     -5.797   0.600  6.33699E-01  6.43744E-01 -1.00451E-02
    8990.162     -5.608   0.640  6.29705E-01  6.65591E-01 -3.58861E-02
    8990.363     -5.407   0.680  6.25894E-01  6.86713E-01 -6.08192E-02
    8990.577     -5.194   0.720  6.23783E-01  7.07241E-01 -8.34576E-02
    8990.802     -4.968   0.760  6.23674E-01  7.27221E-01 -1.03547E-01
    8991.040     -4.730   0.800  6.25604E-01  7.46731E-01 -1.21126E-01
    8991.290     -4.480   0.840  6.29389E-01  7.65808E-01 -1.36419E-01
    8991.552     -4.218   0.880  6.33901E-01  7.84477E-01 -1.50575E-01
    8991.826     -3.944   0.920  6.36796E-01  8.02765E-01 -1.65970E-01
    8992.113     -3.657   0.960  6.35807E-01  8.20626E-01 -1.84820E-01
    8992.412     -3.359   1.000  6.31309E-01  8.38104E-01 -2.06796E-01
    8992.723     -3.048   1.040  6.26617E-01  8.55132E-01 -2.28514E-01
    8993.046     -2.725   1.080  6.25200E-01  8.71694E-01 -2.46494E-01
    8993.381     -2.389   1.120  6.28179E-01  8.87772E-01 -2.59593E-01
    8993.728     -2.042   1.160  6.36594E-01  9.03300E-01 -2.66707E-01
    8994.088     -1.682   1.200  6.54145E-01  9.18273E-01 -2.64128E-01
    8994.460     -1.310   1.240  6.83295E-01  9.32620E-01 -2.49325E-01
    8994.844     -0.926   1.280  7.19025E-01  9.46313E-01 -2.27288E-01
    8995.240     -0.530   1.320  7.48862E-01  9.59342E-01 -2.10479E-01
    8995.649     -0.122   1.360  7.61981E-01  9.71639E-01 -2.09657E-01
    8996.069      0.299   1.400  7.60088E-01  9.83240E-01 -2.23152E-01
    8996.502      0.732   1.440  7.56890E-01  9.94078E-01 -2.37187E-01
    8996.947      1.177   1.480  7.67182E-01  1.00415E+00 -2.36968E-01
    8997.404      1.634   1.520  7.97086E-01  1.01346E+00 -2.16370E-01
    8997.874      2.103   1.560  8.42744E-01  1.02198E+00 -1.79232E-01
    8998.355      2.585   1.600  8.95252E-01  1.02974E+00 -1.34485E-01
    8998.849      3.079   1.640  9.40932E-01  1.03675E+00 -9.58146E-02
    8999.355      3.585   1.680  9.62680E-01  1.04301E+00 -8.03315E-02
    8999.873      4.103   1.720  9.62671E-01  1.04854E+00 -8.58718E-02
    9000.403      4.633   1.760  9.59559E-01  1.05335E+00 -9.37946E-02
    9000.946      5.176   1.800  9.64517E-01  1.05750E+00 -9.29790E-02
    9001.501      5.730   1.840  9.79998E-01  1.06099E+00 -8.09896E-02
    9002.068      6.297   1.880  1.00532E+00  1.06385E+00 -5.85274E-02
    9002.647      6.876   1.920  1.03588E+00  1.06610E+00 -3.02198E-02
    9003.238      7.468   1.960  1.06803E+00  1.06780E+00  2.25239E-04
    9003.842      8.071   2.000  1.10321E+00  1.06898E+00  3.42220E-02
    9004.457      8.687   2.040  1.14626E+00  1.06966E+00  7.65933E-02
    9005.085      9.315   2.080  1.20123E+00  1.06990E+00  1.31332E-01
    9005.725      9.955   2.120  1.26712E+00  1.06971E+00  1.97407E-01
    9006.378     10.607   2.160  1.33536E+00  1.06914E+00  2.66214E-01
    9007.042     11.272   2.200  1.38873E+00  1.06822E+00  3.20505E-01
    9007.719     11.948   2.240  1.41053E+00  1.06698E+00  3.43549E-01
    9008.407     12.637   2.280  1.39723E+00  1.06546E+00  3.31765E-01
    9009.109     13.338   2.320  1.36129E+00  1.06369E+00  2.97597E-01
    9009.822     14.051   2.360  1.33453E+00  1.06170E+00  2.72832E-01
    9010.547     14.777   2.400  1.31695E+00  1.05951E+00  2.57439E-01
    9011.285     15.514   2.440  1.30403E+00  1.05718E+00  2.46852E-01
    9012.035     16.264   2.480  1.29135E+00  1.05471E+00  2.36644E-01
    9012.797     17.026   2.520  1.27565E+00  1.05212E+00  2.23538E-01
    9013.571     17.800   2.560  1.25461E+00  1.04944E+00  2.05171E-01
    9014.357     18.587   2.600  1.22734E+00  1.04668E+00  1.80658E-01
    9015.156     19.385   2.640  1.19370E+00  1.04390E+00  1.49807E-01
    9015.966     20.196   2.680  1.15465E+00  1.04108E+00  1.13572E-01
    9016.789     21.019   2.720  1.11306E+00  1.03823E+00  7.48222E-02
    9017.625     21.854   2.760  1.07196E+00  1.03543E+00  3.65250E-02
    9018.472     22.702   2.800  1.03409E+00  1.03262E+00  1.46425E-03
    9019.331     23.561   2.840  1.00106E+00  1.02987E+00 -2.88055E-02
    9020.203     24.433   2.880  9.73074E-01  1.02716E+00 -5.40865E-02
    9021.087     25.317   2.920  9.49171E-01  1.02450E+00 -7.53314E-02
    9021.983     26.213   2.960  9.28325E-01  1.02194E+00 -9.36161E-02
    9022.892     27.121   3.000  9.09445E-01  1.01944E+00 -1.09997E-01
    9023.812     28.042   3.040  8.92141E-01  1.01705E+00 -1.24906E-01
    9024.745     28.974   3.080  8.76926E-01  1.01472E+00 -1.37796E-01
    9025.690     29.919   3.120  8.64747E-01  1.01253E+00 -1.47785E-01
    9026.647     30.876   3.160  8.56324E-01  1.01044E+00 -1.54113E-01
    9027.616     31.846   3.200  8.52092E-01  1.00846E+00 -1.56371E-01
    9028.597     32.827   3.240  8.52075E-01  1.00661E+00 -1.54536E-01
    9029.591     33.821   3.280  8.55823E-01  1.00488E+00 -1.49061E-01
    9030.597     34.826   3.320  8.63017E-01  1.00331E+00 -1.40288E-01
    9031.615     35.845   3.360  8.73607E-01  1.00183E+00 -1.28223E-01
    9032.645     36.875   3.400  8.87859E-01  1.00048E+00 -1.12623E-01
    9033.687     37.917   3.440  9.05805E-01  9.99286E-01 -9.34816E-02
    9034.742     38.972   3.480  9.26773E-01  9.98220E-01 -7.14472E-02
    9035.809     40.039   3.520  9.49214E-01  9.97306E-01 -4.80923E-02
    9036.888     41.118   3.560  9.70634E-01  9.96522E-01 -2.58874E-02
    9037.979     42.209   3.600  9.88673E-01  9.95864E-01 -7.19169E-03
    9039.082     43.312   3.640  1.00193E+00  9.95335E-01  6.59257E-03
    9040.198     44.428   3.680  1.01018E+00  9.94935E-01  1.52413E-02
    9041.326     45.555   3.720  1.01393E+00  9.94685E-01  1.92490E-02
    9042.466     46.695   3.760  1.01398E+00  9.94562E-01  1.94211E-02
    9043.618     47.847   3.800  1.01131E+00  9.94564E-01  1.67457E-02
    9044.782     49.012   3.840  1.00702E+00  9.94689E-01  1.23357E-02
    9045.959     50.188   3.880  1.00227E+00  9.94915E-01  7.35735E-03
    9047.147     51.377   3.920  9.98133E-01  9.95284E-01  2.84857E-03
    9048.348     52.578   3.960  9.95293E-01  9.95774E-01 -4.80392E-04
    9049.561     53.791   4.000  9.93987E-01  9.96356E-01 -2.36902E-03
    9050.787     55.016   4.040  9.94185E-01  9.97032E-01 -2.84750E-03
    9052.024     56.254   4.080  9.95638E-01  9.97821E-01 -2.18317E-03
    9053.274     57.504   4.120  9.97931E-01  9.98721E-01 -7.90404E-04
    9054.536     58.765   4.160  1.00058E+00  9.99686E-01  8.91415E-04
    9055.810     60.039   4.200  1.00319E+00  1.00076E+00  2.43628E-03
    9057.096     61.326   4.240  1.00532E+00  1.00189E+00  3.43627E-03
    9058.394     62.624   4.280  1.00674E+00  1.00312E+00  3.62871E-03
    9059.705     63.935   4.320  1.00741E+00  1.00440E+00  3.00941E-03
    9061.028     65.258   4.360  1.00770E+00  1.00573E+00  1.96677E-03
    9062.363     66.593   4.400  1.00824E+00  1.00713E+00  1.10530E-03
    9063.710     67.940   4.440  1.00937E+00  1.00858E+00  7.95480E-04
    9065.070     69.299   4.480  1.01104E+00  1.01004E+00  1.00006E-03
    9066.441     70.671   4.520  1.01314E+00  1.01156E+00  1.58243E-03
    9067.825     72.055   4.560  1.01583E+00  1.01312E+00  2.70564E-03
    9069.221     73.451   4.600  1.01928E+00  1.01467E+00  4.61666E-03
    9070.629     74.859   4.640  1.02355E+00  1.01626E+00  7.28861E-03
    9072.049     76.279   4.680  1.02815E+00  1.01784E+00  1.03126E-02
    9073.482     77.712   4.720  1.03239E+00  1.01941E+00  1.29857E-02
    9074.927     79.156   4.760  1.03536E+00  1.02098E+00  1.43859E-02
    9076.384     80.613   4.800  1.03660E+00  1.02254E+00  1.40649E-02
    9077.853     82.082   4.840  1.03650E+00  1.02407E+00  1.24296E-02
    9079.334     83.564   4.880  1.03619E+00  1.02559E+00  1.06055E-02
    9080.828     85.057   4.920  1.03692E+00  1.02707E+00  9.85464E-03
    9082.333     86.563   4.960  1.03951E+00  1.02850E+00  1.10103E-02
    9083.851     88.081   5.000  1.04406E+00  1.02986E+00  1.41988E-02
    9085.381     89.611   5.040  1.05000E+00  1.03118E+00  1.88140E-02
    9086.924     91.153   5.080  1.05639E+00  1.03245E+00  2.39393E-02
    9088.478     92.708   5.120  1.06271E+00  1.03367E+00  2.90456E-02
    9090.045     94.274   5.160  1.06906E+00  1.03478E+00  3.42749E-02
    9091.624     95.853   5.200  1.07580E+00  1.03584E+00  3.99592E-02
    9093.215     97.444   5.240  1.08283E+00  1.03682E+00  4.60127E-02
    9094.818     99.048   5.280  1.08936E+00  1.03771E+00  5.16461E-02
    9096.433    100.663   5.320  1.09423E+00  1.03852E+00  5.57105E-02
    9098.061    102.291   5.360  1.09662E+00  1.03924E+00  5.73765E-02
    9099.701    103.930   5.400  1.09654E+00  1.03985E+00  5.66941E-02
    9101.353    105.582   5.440  1.09483E+00  1.04037E+00  5.44616E-02
    9103.017    107.247   5.480  1.09219E+00  1.04080E+00  5.13876E-02
    9104.693    108.923   5.520  1.08840E+00  1.04114E+00  4.72531E-02
    9106.382    110.612   5.560  1.08245E+00  1.04137E+00  4.10793E-02
    9108.083    112.312   5.600  1.07350E+00  1.04151E+00  3.19892E-02
    9109.796    114.025   5.640  1.06129E+00  1.04153E+00  1.97560E-02
    9111.521    115.751   5.680  1.04624E+00  1.04147E+00  4.77102E-03
    9113.258    117.488   5.720  1.02905E+00  1.04132E+00 -1.22633E-02
    9115.008    119.237   5.760  1.01048E+00  1.04105E+00 -3.05750E-02
    9116.770    120.999   5.800  9.91444E-01  1.04070E+00 -4.92569E-02
    9118.543    122.773   5.840  9.73383E-01  1.04027E+00 -6.68852E-02
    9120.330    124.559   5.880  9.58299E-01  1.03975E+00 -8.14552E-02
    9122.128    126.358   5.920  9.48155E-01  1.03916E+00 -9.10032E-02
    9123.938    128.168   5.960  9.44309E-01  1.03845E+00 -9.41371E-02
    9125.761    129.991   6.000  9.47617E-01  1.03761E+00 -8.99892E-02
