# # comment:                                                     FEFF 9.9.1  
# # Source:
# # Structure
# # Reduced
# # space
# # abc:
# # angles:
# # sites:
# # POT  SCF 100  7.0000   0, screened core-hole, AFOLP (folp(0)= 1.150)
# # Abs   Z=29 Rmt= 1.260 Rnm= 1.323 K  shell
# # Pot 1 Z=56 Rmt= 1.839 Rnm= 1.899
# # Pot 2 Z=57 Rmt= 1.791 Rnm= 1.857
# # Pot 3 Z=29 Rmt= 1.260 Rnm= 1.323
# # Pot 4 Z= 8 Rmt= 1.012 Rnm= 1.103
# # Gam_ch=1.729E+00 H-L exch Vi= 0.000E+00 Vr= 0.000E+00
# # Mu=-8.955E+00eV kf=2.035E+00 Vint=-1.747E+01eV Rs_int= 1.782
# FMS rfms= 9.0000
# # PATH  Rmax=-1.000,  Keep_limit= 0.00, Heap_limit 0.00  Pwcrit= 2.50%
#  S02=0.950  Temp=   0.00  Debye_temp=   0.00  Global_sig2= 0.00000
#  Energy zero shift, vr, vi    0.00000E+00   0.00000E+00
#  Curved wave amplitude ratio filter   4.000%
#     file         sig2 tot  cw amp ratio   deg  nlegs   reff  inp sig2
#     0/   0 paths used
#  xsedge+ 50, used to normalize mu           2.4457E-04
#  -----------------------------------------------------------------------
#  omega    e    k    mu    mu0     chi     @#
    8985.175    -12.765  -1.000  3.92275E-02  5.66341E-02 -1.74066E-02
    8985.474    -12.466  -0.960  4.13614E-02  6.08243E-02 -1.94629E-02
    8985.761    -12.179  -0.920  4.36866E-02  6.54857E-02 -2.17991E-02
    8986.035    -11.905  -0.880  4.62315E-02  7.06879E-02 -2.44564E-02
    8986.297    -11.643  -0.840  4.90301E-02  7.65121E-02 -2.74820E-02
    8986.547    -11.393  -0.800  5.21224E-02  8.30521E-02 -3.09297E-02
    8986.785    -11.155  -0.760  5.55556E-02  9.04159E-02 -3.48602E-02
    8987.010    -10.930  -0.720  5.93843E-02  9.87252E-02 -3.93409E-02
    8987.224    -10.716  -0.680  6.36700E-02  1.08114E-01 -4.44444E-02
    8987.425    -10.515  -0.640  6.84791E-02  1.18725E-01 -5.02461E-02
    8987.614    -10.326  -0.600  7.38784E-02  1.30697E-01 -5.68185E-02
    8987.791    -10.149  -0.560  7.99262E-02  1.44148E-01 -6.42220E-02
    8987.955     -9.985  -0.520  8.66590E-02  1.59150E-01 -7.24911E-02
    8988.108     -9.832  -0.480  9.40720E-02  1.75687E-01 -8.16153E-02
    8988.248     -9.692  -0.440  1.02097E-01  1.93615E-01 -9.15178E-02
    8988.376     -9.564  -0.400  1.10583E-01  2.12620E-01 -1.02036E-01
    8988.492     -9.448  -0.360  1.19293E-01  2.32211E-01 -1.12917E-01
    8988.595     -9.345  -0.320  1.27919E-01  2.51749E-01 -1.23830E-01
    8988.687     -9.253  -0.280  1.36126E-01  2.70525E-01 -1.34398E-01
    8988.766     -9.174  -0.240  1.43606E-01  2.87856E-01 -1.44251E-01
    8988.833     -9.107  -0.200  1.50115E-01  3.03173E-01 -1.53057E-01
    8988.888     -9.052  -0.160  1.55503E-01  3.16056E-01 -1.60553E-01
    8988.930     -9.010  -0.120  1.59698E-01  3.26240E-01 -1.66542E-01
    8988.961     -8.979  -0.080  1.62682E-01  3.33576E-01 -1.70894E-01
    8988.985     -8.955   0.000  1.65054E-01  3.39468E-01 -1.74414E-01
    8989.040     -8.900   0.120  1.70157E-01  3.52755E-01 -1.82598E-01
    8989.083     -8.857   0.160  1.74042E-01  3.63089E-01 -1.89047E-01
    8989.138     -8.802   0.200  1.78829E-01  3.76262E-01 -1.97433E-01
    8989.205     -8.735   0.240  1.84355E-01  3.92137E-01 -2.07782E-01
    8989.284     -8.656   0.280  1.90252E-01  4.10334E-01 -2.20082E-01
    8989.375     -8.565   0.320  1.96156E-01  4.30409E-01 -2.34253E-01
    8989.479     -8.461   0.360  2.01620E-01  4.51785E-01 -2.50164E-01
    8989.595     -8.345   0.400  2.06204E-01  4.73827E-01 -2.67623E-01
    8989.723     -8.217   0.440  2.09571E-01  4.95952E-01 -2.86380E-01
    8989.863     -8.077   0.480  2.11572E-01  5.17724E-01 -3.06152E-01
    8990.016     -7.924   0.520  2.12285E-01  5.38846E-01 -3.26561E-01
    8990.180     -7.760   0.560  2.12086E-01  5.59167E-01 -3.47081E-01
    8990.357     -7.583   0.600  2.11601E-01  5.78669E-01 -3.67068E-01
    8990.546     -7.394   0.640  2.11604E-01  5.97392E-01 -3.85788E-01
    8990.747     -7.193   0.680  2.12823E-01  6.15390E-01 -4.02567E-01
    8990.960     -6.980   0.720  2.15838E-01  6.32777E-01 -4.16939E-01
    8991.186     -6.754   0.760  2.21122E-01  6.49620E-01 -4.28497E-01
    8991.424     -6.516   0.800  2.29183E-01  6.66020E-01 -4.36838E-01
    8991.674     -6.266   0.840  2.40535E-01  6.82023E-01 -4.41488E-01
    8991.936     -6.004   0.880  2.55378E-01  6.97679E-01 -4.42301E-01
    8992.210     -5.730   0.920  2.73234E-01  7.13025E-01 -4.39791E-01
    8992.497     -5.443   0.960  2.92689E-01  7.28085E-01 -4.35396E-01
    8992.795     -5.145   1.000  3.12720E-01  7.42832E-01 -4.30112E-01
    8993.106     -4.834   1.040  3.34079E-01  7.57311E-01 -4.23232E-01
    8993.429     -4.511   1.080  3.57914E-01  7.71477E-01 -4.13563E-01
    8993.765     -4.175   1.120  3.84585E-01  7.85341E-01 -4.00756E-01
    8994.112     -3.828   1.160  4.13723E-01  7.98890E-01 -3.85167E-01
    8994.472     -3.468   1.200  4.44474E-01  8.12084E-01 -3.67609E-01
    8994.844     -3.096   1.240  4.77281E-01  8.24903E-01 -3.47622E-01
    8995.228     -2.712   1.280  5.16725E-01  8.37325E-01 -3.20600E-01
    8995.624     -2.316   1.320  5.70372E-01  8.49347E-01 -2.78975E-01
    8996.032     -1.908   1.360  6.41669E-01  8.60944E-01 -2.19274E-01
    8996.453     -1.487   1.400  7.24601E-01  8.72071E-01 -1.47470E-01
    8996.886     -1.054   1.440  8.07697E-01  8.82726E-01 -7.50288E-02
    8997.331     -0.609   1.480  8.86471E-01  8.92904E-01 -6.43326E-03
    8997.788     -0.152   1.520  9.73703E-01  9.02584E-01  7.11182E-02
    8998.257      0.317   1.560  1.08537E+00  9.11765E-01  1.73608E-01
    8998.739      0.799   1.600  1.23062E+00  9.20446E-01  3.10170E-01
    8999.233      1.293   1.640  1.42576E+00  9.28608E-01  4.97148E-01
    8999.739      1.799   1.680  1.67847E+00  9.36254E-01  7.42213E-01
    9000.257      2.317   1.720  1.91966E+00  9.43407E-01  9.76249E-01
    9000.787      2.847   1.760  2.00201E+00  9.50050E-01  1.05196E+00
    9001.330      3.390   1.800  1.85728E+00  9.56190E-01  9.01086E-01
    9001.884      3.944   1.840  1.59775E+00  9.61855E-01  6.35896E-01
    9002.451      4.511   1.880  1.37403E+00  9.67071E-01  4.06962E-01
    9003.030      5.090   1.920  1.23593E+00  9.71806E-01  2.64120E-01
    9003.622      5.682   1.960  1.15334E+00  9.76110E-01  1.77234E-01
    9004.225      6.285   2.000  1.08584E+00  9.80015E-01  1.05828E-01
    9004.841      6.901   2.040  1.02746E+00  9.83508E-01  4.39506E-02
    9005.469      7.529   2.080  9.94700E-01  9.86600E-01  8.10045E-03
    9006.109      8.169   2.120  9.87837E-01  9.89363E-01 -1.52536E-03
    9006.761      8.821   2.160  9.95787E-01  9.91767E-01  4.01997E-03
    9007.426      9.486   2.200  1.00901E+00  9.93843E-01  1.51665E-02
    9008.102     10.162   2.240  1.01854E+00  9.95643E-01  2.29002E-02
    9008.791     10.851   2.280  1.02114E+00  9.97160E-01  2.39830E-02
    9009.492     11.552   2.320  1.02145E+00  9.98422E-01  2.30238E-02
    9010.205     12.265   2.360  1.02226E+00  9.99439E-01  2.28193E-02
    9010.931     12.991   2.400  1.02204E+00  1.00024E+00  2.17970E-02
    9011.668     13.728   2.440  1.02464E+00  1.00087E+00  2.37730E-02
    9012.418     14.478   2.480  1.03557E+00  1.00130E+00  3.42728E-02
    9013.180     15.240   2.520  1.04760E+00  1.00159E+00  4.60096E-02
    9013.954     16.014   2.560  1.05535E+00  1.00172E+00  5.36303E-02
    9014.741     16.801   2.600  1.05384E+00  1.00175E+00  5.20836E-02
    9015.539     17.599   2.640  1.03976E+00  1.00167E+00  3.80993E-02
    9016.350     18.410   2.680  1.01328E+00  1.00149E+00  1.17878E-02
    9017.173     19.233   2.720  9.78280E-01  1.00121E+00 -2.29271E-02
    9018.008     20.068   2.760  9.40707E-01  1.00089E+00 -6.01867E-02
    9018.856     20.916   2.800  9.04945E-01  1.00051E+00 -9.55668E-02
    9019.715     21.775   2.840  8.74039E-01  1.00011E+00 -1.26069E-01
    9020.587     22.647   2.880  8.49427E-01  9.99648E-01 -1.50221E-01
    9021.471     23.531   2.920  8.31396E-01  9.99197E-01 -1.67801E-01
    9022.367     24.427   2.960  8.19839E-01  9.98719E-01 -1.78880E-01
    9023.275     25.335   3.000  8.14132E-01  9.98237E-01 -1.84105E-01
    9024.196     26.256   3.040  8.13642E-01  9.97758E-01 -1.84116E-01
    9025.128     27.188   3.080  8.18052E-01  9.97307E-01 -1.79255E-01
    9026.073     28.133   3.120  8.26931E-01  9.96886E-01 -1.69955E-01
    9027.030     29.090   3.160  8.39458E-01  9.96477E-01 -1.57018E-01
    9028.000     30.060   3.200  8.55003E-01  9.96100E-01 -1.41097E-01
    9028.981     31.041   3.240  8.72917E-01  9.95739E-01 -1.22822E-01
    9029.975     32.035   3.280  8.92284E-01  9.95439E-01 -1.03155E-01
    9030.981     33.040   3.320  9.12193E-01  9.95180E-01 -8.29867E-02
    9031.999     34.059   3.360  9.31998E-01  9.94963E-01 -6.29656E-02
    9033.029     35.089   3.400  9.51189E-01  9.94791E-01 -4.36012E-02
    9034.071     36.131   3.440  9.69359E-01  9.94683E-01 -2.53239E-02
    9035.126     37.186   3.480  9.86329E-01  9.94620E-01 -8.29125E-03
    9036.193     38.253   3.520  1.00198E+00  9.94601E-01  7.37825E-03
    9037.272     39.332   3.560  1.01607E+00  9.94628E-01  2.14466E-02
    9038.363     40.423   3.600  1.02850E+00  9.94720E-01  3.37842E-02
    9039.466     41.526   3.640  1.03932E+00  9.94858E-01  4.44585E-02
    9040.582     42.642   3.680  1.04859E+00  9.95040E-01  5.35452E-02
    9041.709     43.769   3.720  1.05646E+00  9.95287E-01  6.11690E-02
    9042.849     44.909   3.760  1.06299E+00  9.95556E-01  6.74289E-02
    9044.002     46.061   3.800  1.06822E+00  9.95889E-01  7.23292E-02
    9045.166     47.226   3.840  1.07208E+00  9.96264E-01  7.58179E-02
    9046.342     48.402   3.880  1.07468E+00  9.96679E-01  7.80011E-02
    9047.531     49.591   3.920  1.07616E+00  9.97133E-01  7.90309E-02
    9048.732     50.792   3.960  1.07649E+00  9.97625E-01  7.88670E-02
    9049.945     52.005   4.000  1.07532E+00  9.98132E-01  7.71911E-02
    9051.170     53.230   4.040  1.07231E+00  9.98694E-01  7.36205E-02
    9052.408     54.468   4.080  1.06740E+00  9.99270E-01  6.81334E-02
    9053.658     55.718   4.120  1.06125E+00  9.99877E-01  6.13700E-02
    9054.919     56.979   4.160  1.05509E+00  1.00049E+00  5.45940E-02
    9056.193     58.253   4.200  1.05023E+00  1.00114E+00  4.90951E-02
    9057.480     59.540   4.240  1.04751E+00  1.00179E+00  4.57171E-02
    9058.778     60.838   4.280  1.04705E+00  1.00244E+00  4.46106E-02
    9060.089     62.149   4.320  1.04817E+00  1.00309E+00  4.50762E-02
    9061.412     63.472   4.360  1.04928E+00  1.00377E+00  4.55138E-02
    9062.747     64.807   4.400  1.04838E+00  1.00442E+00  4.39549E-02
    9064.094     66.154   4.440  1.04405E+00  1.00507E+00  3.89802E-02
    9065.453     67.513   4.480  1.03621E+00  1.00574E+00  3.04701E-02
    9066.825     68.885   4.520  1.02603E+00  1.00636E+00  1.96789E-02
    9068.209     70.269   4.560  1.01547E+00  1.00698E+00  8.48322E-03
    9069.605     71.665   4.600  1.00595E+00  1.00758E+00 -1.63615E-03
    9071.013     73.073   4.640  9.98031E-01  1.00815E+00 -1.01177E-02
    9072.433     74.493   4.680  9.91422E-01  1.00870E+00 -1.72776E-02
    9073.866     75.926   4.720  9.85333E-01  1.00921E+00 -2.38801E-02
    9075.310     77.370   4.760  9.79237E-01  1.00969E+00 -3.04544E-02
    9076.767     78.827   4.800  9.73210E-01  1.01015E+00 -3.69443E-02
    9078.237     80.296   4.840  9.67714E-01  1.01055E+00 -4.28406E-02
    9079.718     81.778   4.880  9.63438E-01  1.01094E+00 -4.74991E-02
    9081.211     83.271   4.920  9.60785E-01  1.01128E+00 -5.04949E-02
    9082.717     84.777   4.960  9.59867E-01  1.01158E+00 -5.17132E-02
    9084.235     86.295   5.000  9.60553E-01  1.01181E+00 -5.12616E-02
    9085.765     87.825   5.040  9.62529E-01  1.01203E+00 -4.94998E-02
    9087.307     89.367   5.080  9.65365E-01  1.01220E+00 -4.68342E-02
    9088.862     90.922   5.120  9.68832E-01  1.01230E+00 -4.34711E-02
    9090.428     92.488   5.160  9.73036E-01  1.01236E+00 -3.93260E-02
    9092.007     94.067   5.200  9.78052E-01  1.01238E+00 -3.43246E-02
    9093.598     95.658   5.240  9.83499E-01  1.01235E+00 -2.88506E-02
    9095.202     97.262   5.280  9.88511E-01  1.01228E+00 -2.37677E-02
    9096.817     98.877   5.320  9.92185E-01  1.01216E+00 -1.99801E-02
    9098.445    100.505   5.360  9.94182E-01  1.01201E+00 -1.78266E-02
    9100.084    102.144   5.400  9.94969E-01  1.01181E+00 -1.68398E-02
    9101.736    103.796   5.440  9.95466E-01  1.01154E+00 -1.60775E-02
    9103.401    105.461   5.480  9.96485E-01  1.01126E+00 -1.47737E-02
    9105.077    107.137   5.520  9.98212E-01  1.01091E+00 -1.26993E-02
    9106.766    108.826   5.560  1.00048E+00  1.01055E+00 -1.00696E-02
    9108.466    110.526   5.600  1.00282E+00  1.01014E+00 -7.32750E-03
    9110.179    112.239   5.640  1.00476E+00  1.00970E+00 -4.94339E-03
    9111.905    113.965   5.680  1.00605E+00  1.00922E+00 -3.16807E-03
    9113.642    115.702   5.720  1.00693E+00  1.00871E+00 -1.77554E-03
    9115.391    117.451   5.760  1.00819E+00  1.00818E+00  8.13638E-06
    9117.153    119.213   5.800  1.01085E+00  1.00762E+00  3.22435E-03
    9118.927    120.987   5.840  1.01569E+00  1.00703E+00  8.65516E-03
    9120.713    122.773   5.880  1.02287E+00  1.00644E+00  1.64280E-02
    9122.512    124.572   5.920  1.03166E+00  1.00585E+00  2.58128E-02
    9124.322    126.382   5.960  1.04066E+00  1.00524E+00  3.54187E-02
    9126.145    128.205   6.000  1.04767E+00  1.00458E+00  4.30830E-02
