# # comment:                                                     FEFF 9.9.1  
# # Source:
# # Structure
# # Reduced
# # space
# # abc:
# # angles:
# # sites:
# # POT  SCF 100  7.0000   0, screened core-hole, AFOLP (folp(0)= 1.150)
# # Abs   Z=29 Rmt= 1.207 Rnm= 1.322 K  shell
# # Pot 1 Z=29 Rmt= 1.218 Rnm= 1.330
# # Pot 2 Z=83 Rmt= 1.554 Rnm= 1.681
# # Pot 3 Z= 8 Rmt= 1.037 Rnm= 1.124
# # Gam_ch=1.729E+00 H-L exch Vi= 0.000E+00 Vr= 0.000E+00
# # Mu=-5.368E+00eV kf=2.013E+00 Vint=-1.393E+01eV Rs_int= 1.802
# FMS rfms= 9.0000
# # PATH  Rmax=-1.000,  Keep_limit= 0.00, Heap_limit 0.00  Pwcrit= 2.50%
#  S02=0.950  Temp=   0.00  Debye_temp=   0.00  Global_sig2= 0.00000
#  Energy zero shift, vr, vi    0.00000E+00   0.00000E+00
#  Curved wave amplitude ratio filter   4.000%
#     file         sig2 tot  cw amp ratio   deg  nlegs   reff  inp sig2
#     0/   0 paths used
#  xsedge+ 50, used to normalize mu           2.4251E-04
#  -----------------------------------------------------------------------
#  omega    e    k    mu    mu0     chi     @#
    8983.415     -9.177  -1.000  4.33447E-02  5.84386E-02 -1.50939E-02
    8983.713     -8.879  -0.960  4.60305E-02  6.27889E-02 -1.67584E-02
    8984.000     -8.592  -0.920  4.89776E-02  6.76298E-02 -1.86522E-02
    8984.274     -8.318  -0.880  5.22202E-02  7.30339E-02 -2.08137E-02
    8984.536     -8.056  -0.840  5.57969E-02  7.90858E-02 -2.32889E-02
    8984.786     -7.806  -0.800  5.97512E-02  8.58834E-02 -2.61322E-02
    8985.024     -7.568  -0.760  6.41313E-02  9.35392E-02 -2.94078E-02
    8985.250     -7.343  -0.720  6.89898E-02  1.02180E-01 -3.31904E-02
    8985.463     -7.129  -0.680  7.43821E-02  1.11947E-01 -3.75645E-02
    8985.664     -6.928  -0.640  8.03639E-02  1.22986E-01 -4.26220E-02
    8985.853     -6.739  -0.600  8.69873E-02  1.35443E-01 -4.84562E-02
    8986.030     -6.562  -0.560  9.42933E-02  1.49443E-01 -5.51501E-02
    8986.195     -6.398  -0.520  1.02302E-01  1.65060E-01 -6.27572E-02
    8986.347     -6.245  -0.480  1.11001E-01  1.82276E-01 -7.12754E-02
    8986.487     -6.105  -0.440  1.20327E-01  2.00942E-01 -8.06159E-02
    8986.615     -5.977  -0.400  1.30155E-01  2.20732E-01 -9.05775E-02
    8986.731     -5.861  -0.360  1.40292E-01  2.41133E-01 -1.00842E-01
    8986.835     -5.758  -0.320  1.50481E-01  2.61480E-01 -1.10999E-01
    8986.926     -5.666  -0.280  1.60421E-01  2.81033E-01 -1.20612E-01
    8987.005     -5.587  -0.240  1.69795E-01  2.99083E-01 -1.29287E-01
    8987.072     -5.520  -0.200  1.78296E-01  3.15033E-01 -1.36737E-01
    8987.127     -5.465  -0.160  1.85650E-01  3.28448E-01 -1.42799E-01
    8987.170     -5.422  -0.120  1.91627E-01  3.39052E-01 -1.47425E-01
    8987.200     -5.392  -0.080  1.96049E-01  3.46690E-01 -1.50641E-01
    8987.225     -5.368   0.000  1.99731E-01  3.52824E-01 -1.53093E-01
    8987.280     -5.313   0.120  2.08083E-01  3.66657E-01 -1.58573E-01
    8987.322     -5.270   0.160  2.14730E-01  3.77426E-01 -1.62696E-01
    8987.377     -5.215   0.200  2.23502E-01  3.91142E-01 -1.67640E-01
    8987.444     -5.148   0.240  2.34614E-01  4.07639E-01 -1.73026E-01
    8987.523     -5.069   0.280  2.48318E-01  4.26586E-01 -1.78268E-01
    8987.615     -4.977   0.320  2.64895E-01  4.47475E-01 -1.82580E-01
    8987.719     -4.874   0.360  2.84704E-01  4.69727E-01 -1.85023E-01
    8987.834     -4.758   0.400  3.08050E-01  4.92635E-01 -1.84585E-01
    8987.962     -4.630   0.440  3.35296E-01  5.15635E-01 -1.80339E-01
    8988.103     -4.490   0.480  3.66493E-01  5.38251E-01 -1.71758E-01
    8988.255     -4.337   0.520  4.00995E-01  5.60192E-01 -1.59197E-01
    8988.420     -4.173   0.560  4.36584E-01  5.81282E-01 -1.44698E-01
    8988.596     -3.996   0.600  4.68691E-01  6.01502E-01 -1.32811E-01
    8988.785     -3.807   0.640  4.90506E-01  6.20873E-01 -1.30366E-01
    8988.987     -3.606   0.680  4.95799E-01  6.39495E-01 -1.43695E-01
    8989.200     -3.392   0.720  4.83216E-01  6.57463E-01 -1.74247E-01
    8989.425     -3.167   0.760  4.57891E-01  6.74850E-01 -2.16959E-01
    8989.663     -2.929   0.800  4.28081E-01  6.91762E-01 -2.63681E-01
    8989.913     -2.679   0.840  4.00270E-01  7.08246E-01 -3.07976E-01
    8990.175     -2.417   0.880  3.77155E-01  7.24335E-01 -3.47180E-01
    8990.450     -2.143   0.920  3.58208E-01  7.40089E-01 -3.81882E-01
    8990.736     -1.856   0.960  3.41603E-01  7.55512E-01 -4.13909E-01
    8991.035     -1.558   1.000  3.26712E-01  7.70620E-01 -4.43908E-01
    8991.346     -1.247   1.040  3.15251E-01  7.85416E-01 -4.70166E-01
    8991.669     -0.924   1.080  3.09743E-01  7.99855E-01 -4.90112E-01
    8992.004     -0.588   1.120  3.11749E-01  8.13972E-01 -5.02222E-01
    8992.351     -0.241   1.160  3.21540E-01  8.27729E-01 -5.06189E-01
    8992.711      0.119   1.200  3.38747E-01  8.41087E-01 -5.02340E-01
    8993.083      0.491   1.240  3.63167E-01  8.54049E-01 -4.90882E-01
    8993.467      0.875   1.280  3.95691E-01  8.66568E-01 -4.70877E-01
    8993.863      1.271   1.320  4.38422E-01  8.78643E-01 -4.40221E-01
    8994.272      1.679   1.360  4.93715E-01  8.90248E-01 -3.96533E-01
    8994.692      2.100   1.400  5.64456E-01  9.01338E-01 -3.36882E-01
    8995.125      2.533   1.440  6.51421E-01  9.11931E-01 -2.60510E-01
    8995.570      2.978   1.480  7.44813E-01  9.22003E-01 -1.77190E-01
    8996.027      3.435   1.520  8.25763E-01  9.31532E-01 -1.05768E-01
    8996.497      3.904   1.560  8.84164E-01  9.40515E-01 -5.63503E-02
    8996.978      4.386   1.600  9.28627E-01  9.48933E-01 -2.03060E-02
    8997.472      4.880   1.640  9.78733E-01  9.56810E-01  2.19230E-02
    8997.978      5.386   1.680  1.05738E+00  9.64145E-01  9.32333E-02
    8998.496      5.904   1.720  1.18117E+00  9.70925E-01  2.10250E-01
    8999.027      6.434   1.760  1.34158E+00  9.77153E-01  3.64423E-01
    8999.569      6.977   1.800  1.49246E+00  9.82877E-01  5.09578E-01
    9000.124      7.532   1.840  1.57733E+00  9.88065E-01  5.89260E-01
    9000.691      8.098   1.880  1.59140E+00  9.92766E-01  5.98631E-01
    9001.270      8.678   1.920  1.57467E+00  9.96967E-01  5.77703E-01
    9001.861      9.269   1.960  1.54761E+00  1.00072E+00  5.46892E-01
    9002.465      9.872   2.000  1.50690E+00  1.00402E+00  5.02881E-01
    9003.080     10.488   2.040  1.45593E+00  1.00689E+00  4.49043E-01
    9003.708     11.116   2.080  1.39870E+00  1.00934E+00  3.89354E-01
    9004.348     11.756   2.120  1.33079E+00  1.01144E+00  3.19352E-01
    9005.001     12.408   2.160  1.25863E+00  1.01316E+00  2.45468E-01
    9005.665     13.073   2.200  1.18983E+00  1.01455E+00  1.75281E-01
    9006.342     13.749   2.240  1.12590E+00  1.01563E+00  1.10261E-01
    9007.031     14.438   2.280  1.07444E+00  1.01643E+00  5.80164E-02
    9007.732     15.139   2.320  1.04347E+00  1.01696E+00  2.65087E-02
    9008.445     15.853   2.360  1.03638E+00  1.01724E+00  1.91405E-02
    9009.170     16.578   2.400  1.04685E+00  1.01730E+00  2.95426E-02
    9009.908     17.316   2.440  1.05768E+00  1.01717E+00  4.05173E-02
    9010.658     18.065   2.480  1.05320E+00  1.01685E+00  3.63497E-02
    9011.420     18.827   2.520  1.03824E+00  1.01638E+00  2.18610E-02
    9012.194     19.602   2.560  1.01955E+00  1.01579E+00  3.76038E-03
    9012.980     20.388   2.600  1.00107E+00  1.01505E+00 -1.39786E-02
    9013.779     21.187   2.640  9.87640E-01  1.01422E+00 -2.65831E-02
    9014.590     21.997   2.680  9.81899E-01  1.01331E+00 -3.14102E-02
    9015.413     22.820   2.720  9.83215E-01  1.01234E+00 -2.91233E-02
    9016.248     23.655   2.760  9.89233E-01  1.01130E+00 -2.20636E-02
    9017.095     24.503   2.800  9.97231E-01  1.01021E+00 -1.29801E-02
    9017.955     25.362   2.840  1.00466E+00  1.00911E+00 -4.44997E-03
    9018.826     26.234   2.880  1.00925E+00  1.00798E+00  1.27141E-03
    9019.710     27.118   2.920  1.00908E+00  1.00687E+00  2.20645E-03
    9020.606     28.014   2.960  1.00257E+00  1.00576E+00 -3.18709E-03
    9021.515     28.922   3.000  9.89460E-01  1.00466E+00 -1.51963E-02
    9022.435     29.843   3.040  9.70558E-01  1.00358E+00 -3.30256E-02
    9023.368     30.776   3.080  9.48065E-01  1.00253E+00 -5.44609E-02
    9024.313     31.720   3.120  9.24665E-01  1.00153E+00 -7.68641E-02
    9025.270     32.677   3.160  9.02165E-01  1.00058E+00 -9.84103E-02
    9026.239     33.647   3.200  8.81468E-01  9.99668E-01 -1.18200E-01
    9027.220     34.628   3.240  8.63214E-01  9.98829E-01 -1.35615E-01
    9028.214     35.622   3.280  8.47967E-01  9.98043E-01 -1.50076E-01
    9029.220     36.628   3.320  8.36682E-01  9.97331E-01 -1.60649E-01
    9030.238     37.646   3.360  8.30254E-01  9.96694E-01 -1.66440E-01
    9031.268     38.676   3.400  8.28927E-01  9.96134E-01 -1.67207E-01
    9032.311     39.718   3.440  8.32329E-01  9.95632E-01 -1.63303E-01
    9033.365     40.773   3.480  8.40246E-01  9.95230E-01 -1.54984E-01
    9034.432     41.840   3.520  8.52583E-01  9.94885E-01 -1.42302E-01
    9035.511     42.919   3.560  8.69244E-01  9.94620E-01 -1.25376E-01
    9036.602     44.010   3.600  8.90154E-01  9.94435E-01 -1.04282E-01
    9037.706     45.113   3.640  9.15004E-01  9.94354E-01 -7.93494E-02
    9038.821     46.229   3.680  9.42686E-01  9.94330E-01 -5.16447E-02
    9039.949     47.357   3.720  9.71232E-01  9.94386E-01 -2.31535E-02
    9041.089     48.497   3.760  9.98073E-01  9.94519E-01  3.55350E-03
    9042.241     49.649   3.800  1.02042E+00  9.94731E-01  2.56894E-02
    9043.405     50.813   3.840  1.03640E+00  9.94999E-01  4.14039E-02
    9044.582     51.990   3.880  1.04591E+00  9.95365E-01  5.05425E-02
    9045.771     53.178   3.920  1.04986E+00  9.95786E-01  5.40748E-02
    9046.971     54.379   3.960  1.04966E+00  9.96280E-01  5.33824E-02
    9048.185     55.592   4.000  1.04694E+00  9.96824E-01  5.01190E-02
    9049.410     56.818   4.040  1.04358E+00  9.97439E-01  4.61409E-02
    9050.647     58.055   4.080  1.04124E+00  9.98099E-01  4.31375E-02
    9051.897     59.305   4.120  1.04085E+00  9.98804E-01  4.20472E-02
    9053.159     60.567   4.160  1.04261E+00  9.99553E-01  4.30562E-02
    9054.433     61.841   4.200  1.04617E+00  1.00037E+00  4.58086E-02
    9055.719     63.127   4.240  1.05113E+00  1.00122E+00  4.99155E-02
    9057.018     64.425   4.280  1.05727E+00  1.00209E+00  5.51789E-02
    9058.328     65.736   4.320  1.06430E+00  1.00299E+00  6.13152E-02
    9059.651     67.059   4.360  1.07156E+00  1.00392E+00  6.76347E-02
    9060.986     68.394   4.400  1.07789E+00  1.00486E+00  7.30246E-02
    9062.333     69.741   4.440  1.08222E+00  1.00581E+00  7.64080E-02
    9063.693     71.100   4.480  1.08385E+00  1.00679E+00  7.70603E-02
    9065.064     72.472   4.520  1.08269E+00  1.00777E+00  7.49290E-02
    9066.448     73.856   4.560  1.07925E+00  1.00874E+00  7.05043E-02
    9067.844     75.252   4.600  1.07429E+00  1.00972E+00  6.45762E-02
    9069.252     76.660   4.640  1.06873E+00  1.01069E+00  5.80479E-02
    9070.673     78.080   4.680  1.06336E+00  1.01163E+00  5.17372E-02
    9072.105     79.513   4.720  1.05874E+00  1.01256E+00  4.61798E-02
    9073.550     80.958   4.760  1.05508E+00  1.01345E+00  4.16229E-02
    9075.007     82.415   4.800  1.05238E+00  1.01434E+00  3.80449E-02
    9076.476     83.884   4.840  1.05028E+00  1.01518E+00  3.51006E-02
    9077.957     85.365   4.880  1.04809E+00  1.01599E+00  3.21056E-02
    9079.451     86.858   4.920  1.04484E+00  1.01675E+00  2.80840E-02
    9080.956     88.364   4.960  1.03950E+00  1.01747E+00  2.20271E-02
    9082.474     89.882   5.000  1.03154E+00  1.01815E+00  1.33918E-02
    9084.004     91.412   5.040  1.02123E+00  1.01879E+00  2.44245E-03
    9085.547     92.954   5.080  1.00943E+00  1.01935E+00 -9.91549E-03
    9087.101     94.509   5.120  9.97295E-01  1.01986E+00 -2.25665E-02
    9088.668     96.076   5.160  9.85736E-01  1.02033E+00 -3.45935E-02
    9090.247     97.654   5.200  9.75471E-01  1.02075E+00 -4.52791E-02
    9091.838     99.246   5.240  9.67099E-01  1.02110E+00 -5.39967E-02
    9093.441    100.849   5.280  9.61143E-01  1.02137E+00 -6.02227E-02
    9095.056    102.464   5.320  9.57958E-01  1.02159E+00 -6.36279E-02
    9096.684    104.092   5.360  9.57684E-01  1.02176E+00 -6.40723E-02
    9098.324    105.732   5.400  9.60164E-01  1.02185E+00 -6.16881E-02
    9099.976    107.384   5.440  9.64848E-01  1.02187E+00 -5.70248E-02
    9101.640    109.048   5.480  9.70779E-01  1.02184E+00 -5.10635E-02
    9103.317    110.724   5.520  9.76855E-01  1.02176E+00 -4.49063E-02
    9105.005    112.413   5.560  9.82158E-01  1.02158E+00 -3.94258E-02
    9106.706    114.114   5.600  9.86298E-01  1.02138E+00 -3.50816E-02
    9108.419    115.827   5.640  9.89157E-01  1.02111E+00 -3.19493E-02
    9110.144    117.552   5.680  9.90921E-01  1.02078E+00 -2.98638E-02
    9111.881    119.289   5.720  9.91879E-01  1.02039E+00 -2.85120E-02
    9113.631    121.039   5.760  9.92479E-01  1.01995E+00 -2.74745E-02
    9115.393    122.800   5.800  9.93119E-01  1.01947E+00 -2.63548E-02
    9117.167    124.574   5.840  9.94125E-01  1.01895E+00 -2.48271E-02
    9118.953    126.360   5.880  9.95706E-01  1.01837E+00 -2.26619E-02
    9120.751    128.159   5.920  9.97977E-01  1.01777E+00 -1.97979E-02
    9122.561    129.969   5.960  1.00073E+00  1.01712E+00 -1.63895E-02
    9124.384    131.792   6.000  1.00385E+00  1.01643E+00 -1.25763E-02
