# # comment:                                                     FEFF 9.9.1  
# # Source:
# # Structure
# # Reduced
# # space
# # abc:
# # angles:
# # sites:
# # POT  SCF 100  7.0000   0, screened core-hole, AFOLP (folp(0)= 1.150)
# # Abs   Z=29 Rmt= 1.242 Rnm= 1.327 K  shell
# # Pot 1 Z=23 Rmt= 1.093 Rnm= 1.309
# # Pot 2 Z=29 Rmt= 1.238 Rnm= 1.324
# # Pot 3 Z=83 Rmt= 1.604 Rnm= 1.691
# # Pot 4 Z= 8 Rmt= 1.020 Rnm= 1.097
# # Gam_ch=1.729E+00 H-L exch Vi= 0.000E+00 Vr= 0.000E+00
# # Mu=-6.924E+00eV kf=2.160E+00 Vint=-1.587E+01eV Rs_int= 1.679
# FMS rfms= 9.0000
# # PATH  Rmax=-1.000,  Keep_limit= 0.00, Heap_limit 0.00  Pwcrit= 2.50%
#  S02=0.950  Temp=   0.00  Debye_temp=   0.00  Global_sig2= 0.00000
#  Energy zero shift, vr, vi    0.00000E+00   0.00000E+00
#  Curved wave amplitude ratio filter   4.000%
#     file         sig2 tot  cw amp ratio   deg  nlegs   reff  inp sig2
#     0/   0 paths used
#  xsedge+ 50, used to normalize mu           2.4566E-04
#  -----------------------------------------------------------------------
#  omega    e    k    mu    mu0     chi     @#
    8983.739    -10.734  -1.000  3.93397E-02  5.45821E-02 -1.52424E-02
    8984.037    -10.435  -0.960  4.15156E-02  5.85750E-02 -1.70595E-02
    8984.324    -10.149  -0.920  4.38747E-02  6.30144E-02 -1.91397E-02
    8984.598     -9.874  -0.880  4.64393E-02  6.79660E-02 -2.15267E-02
    8984.860     -9.612  -0.840  4.92350E-02  7.35067E-02 -2.42717E-02
    8985.110     -9.362  -0.800  5.22907E-02  7.97253E-02 -2.74346E-02
    8985.348     -9.125  -0.760  5.56390E-02  8.67238E-02 -3.10848E-02
    8985.573     -8.899  -0.720  5.93159E-02  9.46176E-02 -3.53018E-02
    8985.787     -8.686  -0.680  6.33601E-02  1.03534E-01 -4.01736E-02
    8985.988     -8.484  -0.640  6.78116E-02  1.13606E-01 -4.57947E-02
    8986.177     -8.295  -0.600  7.27083E-02  1.24967E-01 -5.22588E-02
    8986.354     -8.119  -0.560  7.80810E-02  1.37729E-01 -5.96475E-02
    8986.518     -7.954  -0.520  8.39462E-02  1.51958E-01 -6.80114E-02
    8986.671     -7.802  -0.480  9.02956E-02  1.67640E-01 -7.73442E-02
    8986.811     -7.661  -0.440  9.70840E-02  1.84637E-01 -8.75534E-02
    8986.939     -7.533  -0.400  1.04219E-01  2.02654E-01 -9.84349E-02
    8987.055     -7.418  -0.360  1.11556E-01  2.21224E-01 -1.09668E-01
    8987.158     -7.314  -0.320  1.18901E-01  2.39742E-01 -1.20841E-01
    8987.250     -7.223  -0.280  1.26029E-01  2.57536E-01 -1.31507E-01
    8987.329     -7.143  -0.240  1.32706E-01  2.73960E-01 -1.41254E-01
    8987.396     -7.076  -0.200  1.38715E-01  2.88473E-01 -1.49759E-01
    8987.451     -7.021  -0.160  1.43869E-01  3.00681E-01 -1.56811E-01
    8987.494     -6.979  -0.120  1.48026E-01  3.10329E-01 -1.62303E-01
    8987.524     -6.948  -0.080  1.51083E-01  3.17280E-01 -1.66197E-01
    8987.549     -6.924   0.000  1.53615E-01  3.22863E-01 -1.69248E-01
    8987.603     -6.869   0.120  1.59208E-01  3.35451E-01 -1.76243E-01
    8987.646     -6.826   0.160  1.63604E-01  3.45234E-01 -1.81629E-01
    8987.701     -6.771   0.200  1.69305E-01  3.57710E-01 -1.88406E-01
    8987.768     -6.704   0.240  1.76352E-01  3.72729E-01 -1.96376E-01
    8987.847     -6.625   0.280  1.84723E-01  3.89966E-01 -2.05242E-01
    8987.939     -6.534   0.320  1.94333E-01  4.08981E-01 -2.14649E-01
    8988.042     -6.430   0.360  2.05052E-01  4.29227E-01 -2.24175E-01
    8988.158     -6.314   0.400  2.16633E-01  4.50099E-01 -2.33466E-01
    8988.286     -6.186   0.440  2.28780E-01  4.71043E-01 -2.42263E-01
    8988.426     -6.046   0.480  2.41255E-01  4.91667E-01 -2.50412E-01
    8988.579     -5.894   0.520  2.53802E-01  5.11669E-01 -2.57867E-01
    8988.743     -5.729   0.560  2.66229E-01  5.30948E-01 -2.64719E-01
    8988.920     -5.552   0.600  2.78032E-01  5.49448E-01 -2.71415E-01
    8989.109     -5.363   0.640  2.88283E-01  5.67207E-01 -2.78924E-01
    8989.310     -5.162   0.680  2.95801E-01  5.84343E-01 -2.88542E-01
    8989.524     -4.949   0.720  2.99952E-01  6.00923E-01 -3.00971E-01
    8989.749     -4.723   0.760  3.01874E-01  6.17035E-01 -3.15160E-01
    8989.987     -4.485   0.800  3.04679E-01  6.32754E-01 -3.28075E-01
    8990.237     -4.236   0.840  3.12182E-01  6.48148E-01 -3.35966E-01
    8990.499     -3.973   0.880  3.27556E-01  6.63288E-01 -3.35732E-01
    8990.773     -3.699   0.920  3.52546E-01  6.78209E-01 -3.25663E-01
    8991.060     -3.413   0.960  3.86809E-01  6.92896E-01 -3.06087E-01
    8991.359     -3.114   1.000  4.27039E-01  7.07405E-01 -2.80366E-01
    8991.669     -2.803   1.040  4.67389E-01  7.21720E-01 -2.54331E-01
    8991.993     -2.480   1.080  5.03640E-01  7.35838E-01 -2.32198E-01
    8992.328     -2.145   1.120  5.34980E-01  7.49731E-01 -2.14751E-01
    8992.675     -1.797   1.160  5.61111E-01  7.63427E-01 -2.02316E-01
    8993.035     -1.437   1.200  5.82067E-01  7.76865E-01 -1.94799E-01
    8993.407     -1.066   1.240  5.97075E-01  7.90047E-01 -1.92972E-01
    8993.791     -0.682   1.280  6.04642E-01  8.02949E-01 -1.98307E-01
    8994.187     -0.285   1.320  6.09227E-01  8.15545E-01 -2.06318E-01
    8994.596      0.123   1.360  6.18788E-01  8.27792E-01 -2.09004E-01
    8995.016      0.544   1.400  6.37108E-01  8.39703E-01 -2.02595E-01
    8995.449      0.977   1.440  6.62315E-01  8.51232E-01 -1.88917E-01
    8995.894      1.422   1.480  6.91711E-01  8.62373E-01 -1.70662E-01
    8996.351      1.879   1.520  7.26796E-01  8.73098E-01 -1.46302E-01
    8996.821      2.348   1.560  7.72493E-01  8.83405E-01 -1.10911E-01
    8997.302      2.830   1.600  8.33849E-01  8.93247E-01 -5.93984E-02
    8997.796      3.323   1.640  9.08702E-01  9.02665E-01  6.03673E-03
    8998.302      3.829   1.680  9.88231E-01  9.11612E-01  7.66190E-02
    8998.820      4.348   1.720  1.06954E+00  9.20088E-01  1.49449E-01
    8999.350      4.878   1.760  1.15273E+00  9.28115E-01  2.24618E-01
    8999.893      5.420   1.800  1.22560E+00  9.35652E-01  2.89948E-01
    9000.448      5.975   1.840  1.27274E+00  9.42743E-01  3.29997E-01
    9001.015      6.542   1.880  1.29831E+00  9.49349E-01  3.48965E-01
    9001.594      7.121   1.920  1.32219E+00  9.55515E-01  3.66675E-01
    9002.185      7.713   1.960  1.35607E+00  9.61226E-01  3.94841E-01
    9002.789      8.316   2.000  1.39605E+00  9.66508E-01  4.29543E-01
    9003.404      8.932   2.040  1.43045E+00  9.71367E-01  4.59080E-01
    9004.032      9.560   2.080  1.43914E+00  9.75810E-01  4.63328E-01
    9004.672     10.200   2.120  1.40677E+00  9.79846E-01  4.26928E-01
    9005.324     10.852   2.160  1.34610E+00  9.83501E-01  3.62601E-01
    9005.989     11.516   2.200  1.28629E+00  9.86786E-01  2.99501E-01
    9006.666     12.193   2.240  1.24480E+00  9.89729E-01  2.55066E-01
    9007.354     12.882   2.280  1.21818E+00  9.92339E-01  2.25839E-01
    9008.055     13.583   2.320  1.19180E+00  9.94626E-01  1.97176E-01
    9008.769     14.296   2.360  1.15550E+00  9.96640E-01  1.58859E-01
    9009.494     15.022   2.400  1.10849E+00  9.98350E-01  1.10139E-01
    9010.232     15.759   2.440  1.05500E+00  9.99825E-01  5.51727E-02
    9010.982     16.509   2.480  1.00233E+00  1.00103E+00  1.29364E-03
    9011.744     17.271   2.520  9.56285E-01  1.00205E+00 -4.57644E-02
    9012.518     18.045   2.560  9.20057E-01  1.00283E+00 -8.27773E-02
    9013.304     18.832   2.600  8.98726E-01  1.00344E+00 -1.04716E-01
    9014.103     19.630   2.640  8.87890E-01  1.00386E+00 -1.15969E-01
    9014.913     20.441   2.680  8.84522E-01  1.00414E+00 -1.19613E-01
    9015.736     21.264   2.720  8.86737E-01  1.00428E+00 -1.17542E-01
    9016.572     22.099   2.760  8.92587E-01  1.00428E+00 -1.11688E-01
    9017.419     22.946   2.800  9.00390E-01  1.00417E+00 -1.03784E-01
    9018.278     23.806   2.840  9.08620E-01  1.00398E+00 -9.53622E-02
    9019.150     24.678   2.880  9.15717E-01  1.00368E+00 -8.79670E-02
    9020.034     25.562   2.920  9.20951E-01  1.00333E+00 -8.23767E-02
    9020.930     26.458   2.960  9.24133E-01  1.00292E+00 -7.87874E-02
    9021.838     27.366   3.000  9.25343E-01  1.00244E+00 -7.71011E-02
    9022.759     28.286   3.040  9.25119E-01  1.00193E+00 -7.68076E-02
    9023.692     29.219   3.080  9.24129E-01  1.00139E+00 -7.72631E-02
    9024.636     30.164   3.120  9.22691E-01  1.00082E+00 -7.81331E-02
    9025.594     31.121   3.160  9.20849E-01  1.00025E+00 -7.93982E-02
    9026.563     32.090   3.200  9.18753E-01  9.99647E-01 -8.08938E-02
    9027.544     33.072   3.240  9.16829E-01  9.99066E-01 -8.22375E-02
    9028.538     34.065   3.280  9.15427E-01  9.98489E-01 -8.30617E-02
    9029.544     35.071   3.320  9.14968E-01  9.97938E-01 -8.29700E-02
    9030.562     36.089   3.360  9.15743E-01  9.97396E-01 -8.16529E-02
    9031.592     37.120   3.400  9.17795E-01  9.96863E-01 -7.90684E-02
    9032.634     38.162   3.440  9.20982E-01  9.96385E-01 -7.54031E-02
    9033.689     39.217   3.480  9.25017E-01  9.95921E-01 -7.09035E-02
    9034.756     40.283   3.520  9.29604E-01  9.95492E-01 -6.58881E-02
    9035.835     41.362   3.560  9.34532E-01  9.95100E-01 -6.05676E-02
    9036.926     42.454   3.600  9.39870E-01  9.94725E-01 -5.48548E-02
    9038.029     43.557   3.640  9.45991E-01  9.94412E-01 -4.84208E-02
    9039.145     44.672   3.680  9.53302E-01  9.94142E-01 -4.08404E-02
    9040.273     45.800   3.720  9.62071E-01  9.93935E-01 -3.18642E-02
    9041.413     46.940   3.760  9.72292E-01  9.93748E-01 -2.14565E-02
    9042.565     48.092   3.800  9.83721E-01  9.93602E-01 -9.88116E-03
    9043.729     49.257   3.840  9.95927E-01  9.93519E-01  2.40822E-03
    9044.906     50.433   3.880  1.00844E+00  9.93477E-01  1.49646E-02
    9046.094     51.622   3.920  1.02087E+00  9.93455E-01  2.74151E-02
    9047.295     52.823   3.960  1.03290E+00  9.93497E-01  3.94077E-02
    9048.508     54.036   4.000  1.04417E+00  9.93579E-01  5.05890E-02
    9049.734     55.261   4.040  1.05427E+00  9.93701E-01  6.05675E-02
    9050.971     56.499   4.080  1.06270E+00  9.93864E-01  6.88379E-02
    9052.221     57.748   4.120  1.06887E+00  9.94064E-01  7.48055E-02
    9053.483     59.010   4.160  1.07234E+00  9.94302E-01  7.80401E-02
    9054.757     60.284   4.200  1.07292E+00  9.94577E-01  7.83463E-02
    9056.043     61.570   4.240  1.07076E+00  9.94865E-01  7.58915E-02
    9057.341     62.869   4.280  1.06637E+00  9.95187E-01  7.11830E-02
    9058.652     64.180   4.320  1.06041E+00  9.95544E-01  6.48693E-02
    9059.975     65.502   4.360  1.05356E+00  9.95932E-01  5.76262E-02
    9061.310     66.837   4.400  1.04650E+00  9.96330E-01  5.01682E-02
    9062.657     68.185   4.440  1.04000E+00  9.96734E-01  4.32675E-02
    9064.016     69.544   4.480  1.03474E+00  9.97167E-01  3.75735E-02
    9065.388     70.916   4.520  1.03107E+00  9.97605E-01  3.34618E-02
    9066.772     72.299   4.560  1.02898E+00  9.98068E-01  3.09162E-02
    9068.168     73.695   4.600  1.02805E+00  9.98513E-01  2.95387E-02
    9069.576     75.104   4.640  1.02772E+00  9.98980E-01  2.87390E-02
    9070.996     76.524   4.680  1.02742E+00  9.99448E-01  2.79685E-02
    9072.429     77.956   4.720  1.02676E+00  9.99914E-01  2.68439E-02
    9073.874     79.401   4.760  1.02557E+00  1.00035E+00  2.52113E-02
    9075.331     80.858   4.800  1.02383E+00  1.00081E+00  2.30190E-02
    9076.800     82.327   4.840  1.02135E+00  1.00124E+00  2.01123E-02
    9078.281     83.809   4.880  1.01783E+00  1.00164E+00  1.61921E-02
    9079.775     85.302   4.920  1.01301E+00  1.00205E+00  1.09592E-02
    9081.280     86.808   4.960  1.00679E+00  1.00244E+00  4.35218E-03
    9082.798     88.326   5.000  9.99467E-01  1.00281E+00 -3.34716E-03
    9084.328     89.856   5.040  9.91527E-01  1.00313E+00 -1.16065E-02
    9085.871     91.398   5.080  9.83678E-01  1.00346E+00 -1.97840E-02
    9087.425     92.953   5.120  9.76537E-01  1.00376E+00 -2.72207E-02
    9088.992     94.519   5.160  9.70618E-01  1.00402E+00 -3.33986E-02
    9090.571     96.098   5.200  9.66137E-01  1.00424E+00 -3.80995E-02
    9092.162     97.689   5.240  9.62889E-01  1.00442E+00 -4.15308E-02
    9093.765     99.292   5.280  9.60423E-01  1.00459E+00 -4.41660E-02
    9095.380    100.908   5.320  9.58285E-01  1.00472E+00 -4.64358E-02
    9097.008    102.535   5.360  9.56393E-01  1.00481E+00 -4.84201E-02
    9098.648    104.175   5.400  9.54985E-01  1.00487E+00 -4.98838E-02
    9100.300    105.827   5.440  9.54445E-01  1.00491E+00 -5.04637E-02
    9101.964    107.491   5.480  9.55001E-01  1.00489E+00 -4.98865E-02
    9103.640    109.168   5.520  9.56858E-01  1.00485E+00 -4.79911E-02
    9105.329    110.856   5.560  9.60111E-01  1.00477E+00 -4.46596E-02
    9107.030    112.557   5.600  9.64949E-01  1.00463E+00 -3.96812E-02
    9108.743    114.270   5.640  9.71622E-01  1.00447E+00 -3.28516E-02
    9110.468    115.995   5.680  9.80052E-01  1.00428E+00 -2.42299E-02
    9112.205    117.733   5.720  9.89691E-01  1.00408E+00 -1.43856E-02
    9113.955    119.482   5.760  9.99428E-01  1.00381E+00 -4.38110E-03
    9115.716    121.244   5.800  1.00795E+00  1.00353E+00  4.42000E-03
    9117.490    123.018   5.840  1.01396E+00  1.00319E+00  1.07701E-02
    9119.276    124.804   5.880  1.01688E+00  1.00284E+00  1.40421E-02
    9121.075    126.602   5.920  1.01694E+00  1.00248E+00  1.44588E-02
    9122.885    128.413   5.960  1.01483E+00  1.00207E+00  1.27620E-02
    9124.708    130.236   6.000  1.01129E+00  1.00163E+00  9.66007E-03
