# # comment:                                                     FEFF 9.9.1  
# # Source:
# # Structure
# # Reduced
# # space
# # abc:
# # angles:
# # sites:
# # POT  SCF 100  7.0000   0, screened core-hole, AFOLP (folp(0)= 1.150)
# # Abs   Z=29 Rmt= 1.286 Rnm= 1.352 K  shell
# # Pot 1 Z= 3 Rmt= 1.334 Rnm= 1.390
# # Pot 2 Z=29 Rmt= 1.286 Rnm= 1.352
# # Pot 3 Z=15 Rmt= 0.938 Rnm= 1.152
# # Pot 4 Z= 8 Rmt= 0.915 Rnm= 1.042
# # Gam_ch=1.729E+00 H-L exch Vi= 0.000E+00 Vr= 0.000E+00
# # Mu=-5.732E+00eV kf=2.402E+00 Vint=-1.730E+01eV Rs_int= 1.510
# FMS rfms= 9.0000
# # PATH  Rmax=-1.000,  Keep_limit= 0.00, Heap_limit 0.00  Pwcrit= 2.50%
#  S02=0.950  Temp=   0.00  Debye_temp=   0.00  Global_sig2= 0.00000
#  Energy zero shift, vr, vi    0.00000E+00   0.00000E+00
#  Curved wave amplitude ratio filter   4.000%
#     file         sig2 tot  cw amp ratio   deg  nlegs   reff  inp sig2
#     0/   0 paths used
#  xsedge+ 50, used to normalize mu           2.4755E-04
#  -----------------------------------------------------------------------
#  omega    e    k    mu    mu0     chi     @#
    8983.532     -9.542  -1.000  5.25673E-02  5.73328E-02 -4.76551E-03
    8983.830     -9.243  -0.960  5.59377E-02  6.16296E-02 -5.69189E-03
    8984.117     -8.956  -0.920  5.96056E-02  6.64176E-02 -6.81202E-03
    8984.391     -8.682  -0.880  6.36022E-02  7.17703E-02 -8.16804E-03
    8984.653     -8.420  -0.840  6.79623E-02  7.77735E-02 -9.81124E-03
    8984.903     -8.170  -0.800  7.27235E-02  8.45272E-02 -1.18036E-02
    8985.141     -7.932  -0.760  7.79264E-02  9.21457E-02 -1.42193E-02
    8985.367     -7.707  -0.720  8.36135E-02  1.00759E-01 -1.71455E-02
    8985.580     -7.493  -0.680  8.98278E-02  1.10510E-01 -2.06823E-02
    8985.781     -7.292  -0.640  9.66109E-02  1.21551E-01 -2.49396E-02
    8985.970     -7.103  -0.600  1.03998E-01  1.34029E-01 -3.00313E-02
    8986.147     -6.926  -0.560  1.12013E-01  1.48075E-01 -3.60616E-02
    8986.312     -6.762  -0.520  1.20658E-01  1.63763E-01 -4.31049E-02
    8986.464     -6.609  -0.480  1.29904E-01  1.81080E-01 -5.11761E-02
    8986.604     -6.469  -0.440  1.39677E-01  1.99874E-01 -6.01966E-02
    8986.732     -6.341  -0.400  1.49846E-01  2.19811E-01 -6.99657E-02
    8986.848     -6.225  -0.360  1.60219E-01  2.40373E-01 -8.01537E-02
    8986.952     -6.122  -0.320  1.70549E-01  2.60879E-01 -9.03302E-02
    8987.043     -6.030  -0.280  1.80551E-01  2.80580E-01 -1.00030E-01
    8987.122     -5.951  -0.240  1.89925E-01  2.98755E-01 -1.08830E-01
    8987.189     -5.884  -0.200  1.98384E-01  3.14803E-01 -1.16418E-01
    8987.244     -5.829  -0.160  2.05675E-01  3.28289E-01 -1.22615E-01
    8987.287     -5.786  -0.120  2.11582E-01  3.38940E-01 -1.27358E-01
    8987.317     -5.756  -0.080  2.15941E-01  3.46606E-01 -1.30665E-01
    8987.342     -5.732   0.000  2.19555E-01  3.52761E-01 -1.33206E-01
    8987.397     -5.677   0.120  2.27745E-01  3.66631E-01 -1.38886E-01
    8987.439     -5.634   0.160  2.34232E-01  3.77388E-01 -1.43156E-01
    8987.494     -5.579   0.200  2.42786E-01  3.91088E-01 -1.48302E-01
    8987.561     -5.512   0.240  2.53602E-01  4.07541E-01 -1.53939E-01
    8987.640     -5.433   0.280  2.66863E-01  4.26365E-01 -1.59503E-01
    8987.732     -5.341   0.320  2.82783E-01  4.47019E-01 -1.64236E-01
    8987.836     -5.238   0.360  3.01675E-01  4.68901E-01 -1.67225E-01
    8987.951     -5.122   0.400  3.23776E-01  4.91267E-01 -1.67491E-01
    8988.079     -4.994   0.440  3.49514E-01  5.13540E-01 -1.64026E-01
    8988.220     -4.854   0.480  3.79295E-01  5.35201E-01 -1.55906E-01
    8988.372     -4.701   0.520  4.13777E-01  5.55946E-01 -1.42169E-01
    8988.537     -4.537   0.560  4.53805E-01  5.75636E-01 -1.21830E-01
    8988.713     -4.360   0.600  5.00315E-01  5.94239E-01 -9.39239E-02
    8988.902     -4.171   0.640  5.53783E-01  6.11826E-01 -5.80430E-02
    8989.104     -3.970   0.680  6.12872E-01  6.28470E-01 -1.55983E-02
    8989.317     -3.756   0.720  6.72853E-01  6.44328E-01  2.85259E-02
    8989.542     -3.531   0.760  7.25126E-01  6.59510E-01  6.56157E-02
    8989.780     -3.293   0.800  7.60559E-01  6.74118E-01  8.64408E-02
    8990.030     -3.043   0.840  7.75739E-01  6.88239E-01  8.74993E-02
    8990.292     -2.781   0.880  7.75909E-01  7.01967E-01  7.39422E-02
    8990.567     -2.507   0.920  7.69847E-01  7.15355E-01  5.44919E-02
    8990.853     -2.220   0.960  7.62603E-01  7.28448E-01  3.41548E-02
    8991.152     -1.922   1.000  7.55315E-01  7.41277E-01  1.40376E-02
    8991.463     -1.611   1.040  7.49508E-01  7.53882E-01 -4.37348E-03
    8991.786     -1.288   1.080  7.48515E-01  7.66273E-01 -1.77580E-02
    8992.121     -0.952   1.120  7.55335E-01  7.78434E-01 -2.30990E-02
    8992.468     -0.605   1.160  7.69905E-01  7.90404E-01 -2.04988E-02
    8992.828     -0.245   1.200  7.89351E-01  8.02155E-01 -1.28035E-02
    8993.200      0.127   1.240  8.09492E-01  8.13696E-01 -4.20435E-03
    8993.584      0.511   1.280  8.26679E-01  8.24992E-01  1.68724E-03
    8993.980      0.907   1.320  8.43720E-01  8.36065E-01  7.65516E-03
    8994.389      1.315   1.360  8.71955E-01  8.46877E-01  2.50778E-02
    8994.809      1.736   1.400  9.21829E-01  8.57408E-01  6.44209E-02
    8995.242      2.169   1.440  9.91175E-01  8.67675E-01  1.23500E-01
    8995.687      2.614   1.480  1.06362E+00  8.77635E-01  1.85986E-01
    8996.144      3.071   1.520  1.11201E+00  8.87286E-01  2.24727E-01
    8996.614      3.540   1.560  1.12314E+00  8.96604E-01  2.26534E-01
    8997.095      4.022   1.600  1.11356E+00  9.05587E-01  2.07969E-01
    8997.589      4.516   1.640  1.09334E+00  9.14231E-01  1.79113E-01
    8998.095      5.022   1.680  1.05923E+00  9.22493E-01  1.36735E-01
    8998.613      5.540   1.720  1.03058E+00  9.30413E-01  1.00169E-01
    8999.144      6.070   1.760  1.03570E+00  9.37948E-01  9.77481E-02
    8999.686      6.613   1.800  1.07945E+00  9.45118E-01  1.34333E-01
    9000.241      7.168   1.840  1.14607E+00  9.51880E-01  1.94193E-01
    9000.808      7.734   1.880  1.21363E+00  9.58276E-01  2.55354E-01
    9001.387      8.314   1.920  1.26499E+00  9.64288E-01  3.00704E-01
    9001.978      8.905   1.960  1.29184E+00  9.69894E-01  3.21942E-01
    9002.582      9.508   2.000  1.29277E+00  9.75140E-01  3.17631E-01
    9003.197     10.124   2.040  1.26997E+00  9.80007E-01  2.89962E-01
    9003.825     10.752   2.080  1.23335E+00  9.84499E-01  2.48851E-01
    9004.465     11.392   2.120  1.19484E+00  9.88620E-01  2.06221E-01
    9005.118     12.044   2.160  1.15870E+00  9.92374E-01  1.66323E-01
    9005.782     12.709   2.200  1.12436E+00  9.95807E-01  1.28549E-01
    9006.459     13.385   2.240  1.09084E+00  9.98887E-01  9.19497E-02
    9007.148     14.074   2.280  1.05900E+00  1.00166E+00  5.73443E-02
    9007.849     14.775   2.320  1.03323E+00  1.00410E+00  2.91320E-02
    9008.562     15.489   2.360  1.01857E+00  1.00623E+00  1.23454E-02
    9009.287     16.214   2.400  1.01559E+00  1.00809E+00  7.50541E-03
    9010.025     16.952   2.440  1.02072E+00  1.00966E+00  1.10515E-02
    9010.775     17.701   2.480  1.02876E+00  1.01099E+00  1.77692E-02
    9011.537     18.463   2.520  1.03325E+00  1.01206E+00  2.11856E-02
    9012.311     19.238   2.560  1.02688E+00  1.01289E+00  1.39832E-02
    9013.097     20.024   2.600  1.00739E+00  1.01351E+00 -6.11886E-03
    9013.896     20.822   2.640  9.82064E-01  1.01393E+00 -3.18640E-02
    9014.707     21.633   2.680  9.61711E-01  1.01416E+00 -5.24531E-02
    9015.530     22.456   2.720  9.52726E-01  1.01421E+00 -6.14828E-02
    9016.365     23.291   2.760  9.50563E-01  1.01409E+00 -6.35268E-02
    9017.212     24.139   2.800  9.42076E-01  1.01383E+00 -7.17574E-02
    9018.072     24.998   2.840  9.26333E-01  1.01345E+00 -8.71150E-02
    9018.943     25.870   2.880  9.10896E-01  1.01292E+00 -1.02021E-01
    9019.827     26.754   2.920  8.98915E-01  1.01229E+00 -1.13374E-01
    9020.723     27.650   2.960  8.91178E-01  1.01157E+00 -1.20395E-01
    9021.632     28.558   3.000  8.87490E-01  1.01077E+00 -1.23281E-01
    9022.552     29.479   3.040  8.86806E-01  1.00989E+00 -1.23085E-01
    9023.485     30.411   3.080  8.87460E-01  1.00894E+00 -1.21476E-01
    9024.430     31.356   3.120  8.88519E-01  1.00793E+00 -1.19414E-01
    9025.387     32.313   3.160  8.90172E-01  1.00691E+00 -1.16737E-01
    9026.356     33.283   3.200  8.93282E-01  1.00582E+00 -1.12543E-01
    9027.337     34.264   3.240  8.98899E-01  1.00473E+00 -1.05830E-01
    9028.331     35.258   3.280  9.07746E-01  1.00362E+00 -9.58763E-02
    9029.337     36.264   3.320  9.19656E-01  1.00249E+00 -8.28345E-02
    9030.355     37.282   3.360  9.33925E-01  1.00138E+00 -6.74533E-02
    9031.385     38.312   3.400  9.49453E-01  1.00027E+00 -5.08156E-02
    9032.428     39.354   3.440  9.65039E-01  9.99161E-01 -3.41213E-02
    9033.482     40.409   3.480  9.79757E-01  9.98060E-01 -1.83033E-02
    9034.549     41.476   3.520  9.93160E-01  9.96992E-01 -3.83196E-03
    9035.628     42.555   3.560  1.00495E+00  9.95958E-01  8.98687E-03
    9036.719     43.646   3.600  1.01469E+00  9.94961E-01  1.97317E-02
    9037.823     44.749   3.640  1.02193E+00  9.94002E-01  2.79247E-02
    9038.938     45.865   3.680  1.02618E+00  9.93084E-01  3.30989E-02
    9040.066     46.993   3.720  1.02726E+00  9.92207E-01  3.50581E-02
    9041.206     48.132   3.760  1.02562E+00  9.91372E-01  3.42501E-02
    9042.358     49.285   3.800  1.02227E+00  9.90603E-01  3.16659E-02
    9043.522     50.449   3.840  1.01836E+00  9.89879E-01  2.84808E-02
    9044.699     51.625   3.880  1.01494E+00  9.89202E-01  2.57427E-02
    9045.888     52.814   3.920  1.01273E+00  9.88591E-01  2.41412E-02
    9047.088     54.015   3.960  1.01200E+00  9.88027E-01  2.39775E-02
    9048.302     55.228   4.000  1.01270E+00  9.87511E-01  2.51871E-02
    9049.527     56.453   4.040  1.01454E+00  9.87064E-01  2.74799E-02
    9050.764     57.691   4.080  1.01722E+00  9.86688E-01  3.05284E-02
    9052.014     58.941   4.120  1.02051E+00  9.86359E-01  3.41460E-02
    9053.276     60.202   4.160  1.02439E+00  9.86078E-01  3.83114E-02
    9054.550     61.477   4.200  1.02892E+00  9.85865E-01  4.30561E-02
    9055.836     62.763   4.240  1.03398E+00  9.85700E-01  4.82773E-02
    9057.135     64.061   4.280  1.03931E+00  9.85601E-01  5.37039E-02
    9058.445     65.372   4.320  1.04454E+00  9.85549E-01  5.89870E-02
    9059.768     66.695   4.360  1.04918E+00  9.85540E-01  6.36378E-02
    9061.103     68.030   4.400  1.05255E+00  9.85575E-01  6.69784E-02
    9062.450     69.377   4.440  1.05391E+00  9.85676E-01  6.82370E-02
    9063.810     70.736   4.480  1.05257E+00  9.85817E-01  6.67489E-02
    9065.181     72.108   4.520  1.04815E+00  9.85977E-01  6.21726E-02
    9066.565     73.492   4.560  1.04088E+00  9.86199E-01  5.46842E-02
    9067.961     74.888   4.600  1.03141E+00  9.86461E-01  4.49474E-02
    9069.369     76.296   4.640  1.02052E+00  9.86759E-01  3.37610E-02
    9070.790     77.716   4.680  1.00899E+00  9.87070E-01  2.19222E-02
    9072.222     79.149   4.720  9.97541E-01  9.87415E-01  1.01253E-02
    9073.667     80.594   4.760  9.86702E-01  9.87793E-01 -1.09054E-03
    9075.124     82.050   4.800  9.76908E-01  9.88181E-01 -1.12736E-02
    9076.593     83.520   4.840  9.68449E-01  9.88599E-01 -2.01504E-02
    9078.074     85.001   4.880  9.61422E-01  9.89025E-01 -2.76034E-02
    9079.568     86.494   4.920  9.55886E-01  9.89478E-01 -3.35924E-02
    9081.073     88.000   4.960  9.51771E-01  9.89932E-01 -3.81609E-02
    9082.591     89.518   5.000  9.48965E-01  9.90366E-01 -4.14007E-02
    9084.121     91.048   5.040  9.47332E-01  9.90822E-01 -4.34903E-02
    9085.664     92.590   5.080  9.46548E-01  9.91279E-01 -4.47306E-02
    9087.218     94.145   5.120  9.46313E-01  9.91734E-01 -4.54214E-02
    9088.785     95.712   5.160  9.46407E-01  9.92185E-01 -4.57774E-02
    9090.364     97.290   5.200  9.46816E-01  9.92607E-01 -4.57912E-02
    9091.955     98.881   5.240  9.47782E-01  9.93023E-01 -4.52411E-02
    9093.558    100.485   5.280  9.49599E-01  9.93431E-01 -4.38319E-02
    9095.173    102.100   5.320  9.52389E-01  9.93806E-01 -4.14176E-02
    9096.801    103.728   5.360  9.55959E-01  9.94148E-01 -3.81894E-02
    9098.441    105.368   5.400  9.59871E-01  9.94481E-01 -3.46093E-02
    9100.093    107.020   5.440  9.63629E-01  9.94800E-01 -3.11707E-02
    9101.757    108.684   5.480  9.66932E-01  9.95061E-01 -2.81294E-02
    9103.434    110.360   5.520  9.69848E-01  9.95308E-01 -2.54596E-02
    9105.122    112.049   5.560  9.72556E-01  9.95517E-01 -2.29617E-02
    9106.823    113.750   5.600  9.75243E-01  9.95687E-01 -2.04439E-02
    9108.536    115.462   5.640  9.77991E-01  9.95818E-01 -1.78273E-02
    9110.261    117.188   5.680  9.80798E-01  9.95909E-01 -1.51112E-02
    9111.998    118.925   5.720  9.83684E-01  9.95961E-01 -1.22776E-02
    9113.748    120.675   5.760  9.86708E-01  9.95998E-01 -9.28922E-03
    9115.510    122.436   5.800  9.89811E-01  9.95971E-01 -6.15938E-03
    9117.284    124.210   5.840  9.92949E-01  9.95902E-01 -2.95370E-03
    9119.070    125.996   5.880  9.96080E-01  9.95794E-01  2.85725E-04
    9120.868    127.795   5.920  9.99205E-01  9.95646E-01  3.55811E-03
    9122.679    129.605   5.960  1.00226E+00  9.95456E-01  6.79922E-03
    9124.501    131.428   6.000  1.00512E+00  9.95199E-01  9.92274E-03
