# # comment:                                                     FEFF 9.9.1  
# # Source:
# # Structure
# # Reduced
# # space
# # abc:
# # angles:101.493980
# # sites:
# # POT  SCF 100  7.0000   0, screened core-hole, AFOLP (folp(0)= 1.150)
# # Abs   Z=29 Rmt= 1.304 Rnm= 1.384 K  shell
# # Pot 1 Z=29 Rmt= 1.298 Rnm= 1.368
# # Pot 2 Z=75 Rmt= 1.191 Rnm= 1.382
# # Pot 3 Z= 8 Rmt= 0.928 Rnm= 1.067
# # Gam_ch=1.729E+00 H-L exch Vi= 0.000E+00 Vr= 0.000E+00
# # Mu=-5.618E+00eV kf=2.334E+00 Vint=-1.573E+01eV Rs_int= 1.554
# FMS rfms= 9.0000
# # PATH  Rmax=-1.000,  Keep_limit= 0.00, Heap_limit 0.00  Pwcrit= 2.50%
#  S02=0.950  Temp=   0.00  Debye_temp=   0.00  Global_sig2= 0.00000
#  Energy zero shift, vr, vi    0.00000E+00   0.00000E+00
#  Curved wave amplitude ratio filter   4.000%
#     file         sig2 tot  cw amp ratio   deg  nlegs   reff  inp sig2
#     0/   0 paths used
#  xsedge+ 50, used to normalize mu           2.4585E-04
#  -----------------------------------------------------------------------
#  omega    e    k    mu    mu0     chi     @#
    8983.311     -9.428  -1.000  4.76004E-02  5.79779E-02 -1.03775E-02
    8983.610     -9.130  -0.960  5.04037E-02  6.23108E-02 -1.19071E-02
    8983.897     -8.843  -0.920  5.34449E-02  6.71362E-02 -1.36912E-02
    8984.171     -8.569  -0.880  5.67526E-02  7.25273E-02 -1.57747E-02
    8984.433     -8.307  -0.840  6.03595E-02  7.85698E-02 -1.82102E-02
    8984.683     -8.057  -0.800  6.43035E-02  8.53630E-02 -2.10595E-02
    8984.921     -7.819  -0.760  6.86274E-02  9.30208E-02 -2.43935E-02
    8985.146     -7.593  -0.720  7.33794E-02  1.01672E-01 -2.82930E-02
    8985.360     -7.380  -0.680  7.86123E-02  1.11460E-01 -3.28477E-02
    8985.561     -7.179  -0.640  8.43809E-02  1.22534E-01 -3.81530E-02
    8985.750     -6.990  -0.600  9.07381E-02  1.35042E-01 -4.43039E-02
    8985.927     -6.813  -0.560  9.77267E-02  1.49111E-01 -5.13842E-02
    8986.091     -6.648  -0.520  1.05367E-01  1.64817E-01 -5.94496E-02
    8986.244     -6.496  -0.480  1.13641E-01  1.82145E-01 -6.85036E-02
    8986.384     -6.356  -0.440  1.22470E-01  2.00941E-01 -7.84709E-02
    8986.512     -6.228  -0.400  1.31703E-01  2.20877E-01 -8.91740E-02
    8986.628     -6.112  -0.360  1.41109E-01  2.41434E-01 -1.00325E-01
    8986.731     -6.008  -0.320  1.50392E-01  2.61935E-01 -1.11543E-01
    8986.823     -5.917  -0.280  1.59233E-01  2.81634E-01 -1.22401E-01
    8986.902     -5.838  -0.240  1.67327E-01  2.99810E-01 -1.32483E-01
    8986.969     -5.771  -0.200  1.74430E-01  3.15866E-01 -1.41436E-01
    8987.024     -5.716  -0.160  1.80368E-01  3.29364E-01 -1.48996E-01
    8987.066     -5.673  -0.120  1.85035E-01  3.40027E-01 -1.54992E-01
    8987.097     -5.643  -0.080  1.88375E-01  3.47705E-01 -1.59330E-01
    8987.121     -5.618   0.000  1.91019E-01  3.53870E-01 -1.62850E-01
    8987.176     -5.563   0.120  1.97047E-01  3.67752E-01 -1.70705E-01
    8987.219     -5.521   0.160  2.01735E-01  3.78549E-01 -1.76814E-01
    8987.274     -5.466   0.200  2.07676E-01  3.92303E-01 -1.84627E-01
    8987.341     -5.399   0.240  2.14774E-01  4.08814E-01 -1.94040E-01
    8987.420     -5.320   0.280  2.22876E-01  4.27752E-01 -2.04876E-01
    8987.512     -5.228   0.320  2.31715E-01  4.48569E-01 -2.16853E-01
    8987.615     -5.124   0.360  2.41068E-01  4.70656E-01 -2.29589E-01
    8987.731     -5.009   0.400  2.50749E-01  4.93328E-01 -2.42580E-01
    8987.859     -4.881   0.440  2.60727E-01  5.15977E-01 -2.55250E-01
    8987.999     -4.740   0.480  2.71249E-01  5.38112E-01 -2.66862E-01
    8988.152     -4.588   0.520  2.82898E-01  5.59413E-01 -2.76515E-01
    8988.316     -4.423   0.560  2.96567E-01  5.79745E-01 -2.83178E-01
    8988.493     -4.247   0.600  3.13240E-01  5.99091E-01 -2.85851E-01
    8988.682     -4.058   0.640  3.33680E-01  6.17478E-01 -2.83798E-01
    8988.883     -3.856   0.680  3.58349E-01  6.35017E-01 -2.76668E-01
    8989.096     -3.643   0.720  3.87200E-01  6.51814E-01 -2.64614E-01
    8989.322     -3.418   0.760  4.19736E-01  6.67973E-01 -2.48237E-01
    8989.560     -3.180   0.800  4.54762E-01  6.83590E-01 -2.28828E-01
    8989.810     -2.930   0.840  4.90303E-01  6.98766E-01 -2.08463E-01
    8990.072     -2.668   0.880  5.24085E-01  7.13545E-01 -1.89460E-01
    8990.346     -2.393   0.920  5.55395E-01  7.27996E-01 -1.72602E-01
    8990.633     -2.107   0.960  5.86127E-01  7.42135E-01 -1.56008E-01
    8990.931     -1.808   1.000  6.18694E-01  7.56008E-01 -1.37314E-01
    8991.242     -1.497   1.040  6.52033E-01  7.69607E-01 -1.17574E-01
    8991.565     -1.174   1.080  6.82294E-01  7.82937E-01 -1.00643E-01
    8991.901     -0.839   1.120  7.09372E-01  7.96018E-01 -8.66455E-02
    8992.248     -0.492   1.160  7.41618E-01  8.08841E-01 -6.72232E-02
    8992.608     -0.132   1.200  7.92538E-01  8.21355E-01 -2.88177E-02
    8992.980      0.240   1.240  8.71749E-01  8.33605E-01  3.81443E-02
    8993.364      0.624   1.280  9.76348E-01  8.45510E-01  1.30839E-01
    8993.760      1.020   1.320  1.08678E+00  8.57111E-01  2.29673E-01
    8994.168      1.429   1.360  1.17460E+00  8.68368E-01  3.06231E-01
    8994.589      1.849   1.400  1.22954E+00  8.79255E-01  3.50284E-01
    8995.022      2.282   1.440  1.26795E+00  8.89752E-01  3.78196E-01
    8995.467      2.727   1.480  1.30073E+00  8.99853E-01  4.00877E-01
    8995.924      3.184   1.520  1.31686E+00  9.09556E-01  4.07300E-01
    8996.393      3.654   1.560  1.30559E+00  9.18837E-01  3.86751E-01
    8996.875      4.135   1.600  1.26969E+00  9.27676E-01  3.42018E-01
    8997.369      4.629   1.640  1.21699E+00  9.36068E-01  2.80919E-01
    8997.875      5.135   1.680  1.16073E+00  9.44034E-01  2.16700E-01
    8998.393      5.653   1.720  1.11483E+00  9.51533E-01  1.63299E-01
    8998.923      6.184   1.760  1.08548E+00  9.58566E-01  1.26911E-01
    8999.466      6.726   1.800  1.07716E+00  9.65155E-01  1.12001E-01
    9000.020      7.281   1.840  1.09432E+00  9.71304E-01  1.23015E-01
    9000.587      7.848   1.880  1.12786E+00  9.76994E-01  1.50864E-01
    9001.166      8.427   1.920  1.15477E+00  9.82250E-01  1.72518E-01
    9001.758      9.018   1.960  1.15969E+00  9.87058E-01  1.72635E-01
    9002.361      9.622   2.000  1.14374E+00  9.91465E-01  1.52272E-01
    9002.977     10.237   2.040  1.11390E+00  9.95456E-01  1.18443E-01
    9003.605     10.865   2.080  1.07860E+00  9.99058E-01  7.95371E-02
    9004.245     11.505   2.120  1.04644E+00  1.00226E+00  4.41771E-02
    9004.897     12.158   2.160  1.02600E+00  1.00511E+00  2.08862E-02
    9005.562     12.822   2.200  1.02031E+00  1.00759E+00  1.27160E-02
    9006.238     13.499   2.240  1.02069E+00  1.00976E+00  1.09269E-02
    9006.927     14.188   2.280  1.01792E+00  1.01159E+00  6.33595E-03
    9007.628     14.889   2.320  1.01505E+00  1.01314E+00  1.91379E-03
    9008.341     15.602   2.360  1.02087E+00  1.01440E+00  6.46905E-03
    9009.067     16.327   2.400  1.03696E+00  1.01540E+00  2.15608E-02
    9009.804     17.065   2.440  1.05611E+00  1.01613E+00  3.99742E-02
    9010.554     17.815   2.480  1.07003E+00  1.01665E+00  5.33798E-02
    9011.316     18.577   2.520  1.07560E+00  1.01697E+00  5.86275E-02
    9012.090     19.351   2.560  1.07647E+00  1.01708E+00  5.93982E-02
    9012.877     20.137   2.600  1.07357E+00  1.01703E+00  5.65385E-02
    9013.675     20.936   2.640  1.05539E+00  1.01680E+00  3.85917E-02
    9014.486     21.747   2.680  1.01437E+00  1.01643E+00 -2.06002E-03
    9015.309     22.570   2.720  9.60625E-01  1.01593E+00 -5.53072E-02
    9016.144     23.405   2.760  9.19649E-01  1.01534E+00 -9.56896E-02
    9016.992     24.252   2.800  8.99853E-01  1.01463E+00 -1.14780E-01
    9017.851     25.112   2.840  8.94364E-01  1.01384E+00 -1.19476E-01
    9018.723     25.983   2.880  8.96477E-01  1.01297E+00 -1.16490E-01
    9019.607     26.867   2.920  9.02377E-01  1.01204E+00 -1.09666E-01
    9020.503     27.763   2.960  9.10242E-01  1.01107E+00 -1.00832E-01
    9021.411     28.672   3.000  9.18857E-01  1.01006E+00 -9.12072E-02
    9022.332     29.592   3.040  9.27250E-01  1.00902E+00 -8.17691E-02
    9023.264     30.525   3.080  9.34931E-01  1.00796E+00 -7.30327E-02
    9024.209     31.470   3.120  9.41670E-01  1.00690E+00 -6.52334E-02
    9025.166     32.427   3.160  9.47368E-01  1.00584E+00 -5.84762E-02
    9026.136     33.396   3.200  9.52197E-01  1.00481E+00 -5.26106E-02
    9027.117     34.377   3.240  9.56370E-01  1.00376E+00 -4.73880E-02
    9028.111     35.371   3.280  9.60242E-01  1.00276E+00 -4.25183E-02
    9029.117     36.377   3.320  9.64060E-01  1.00177E+00 -3.77150E-02
    9030.135     37.395   3.360  9.67996E-01  1.00082E+00 -3.28291E-02
    9031.165     38.425   3.400  9.71965E-01  9.99914E-01 -2.79487E-02
    9032.207     39.468   3.440  9.75719E-01  9.99044E-01 -2.33251E-02
    9033.262     40.522   3.480  9.79086E-01  9.98239E-01 -1.91530E-02
    9034.329     41.589   3.520  9.81959E-01  9.97456E-01 -1.54971E-02
    9035.408     42.668   3.560  9.84444E-01  9.96740E-01 -1.22964E-02
    9036.499     43.759   3.600  9.86788E-01  9.96095E-01 -9.30711E-03
    9037.602     44.863   3.640  9.89310E-01  9.95498E-01 -6.18772E-03
    9038.718     45.978   3.680  9.92270E-01  9.94948E-01 -2.67821E-03
    9039.845     47.106   3.720  9.95779E-01  9.94469E-01  1.30919E-03
    9040.985     48.246   3.760  9.99772E-01  9.94063E-01  5.70882E-03
    9042.138     49.398   3.800  1.00399E+00  9.93708E-01  1.02807E-02
    9043.302     50.562   3.840  1.00812E+00  9.93423E-01  1.46943E-02
    9044.478     51.739   3.880  1.01192E+00  9.93188E-01  1.87305E-02
    9045.667     52.928   3.920  1.01532E+00  9.93024E-01  2.22986E-02
    9046.868     54.128   3.960  1.01839E+00  9.92908E-01  2.54867E-02
    9048.081     55.342   4.000  1.02140E+00  9.92863E-01  2.85345E-02
    9049.306     56.567   4.040  1.02450E+00  9.92866E-01  3.16350E-02
    9050.544     57.804   4.080  1.02774E+00  9.92937E-01  3.48001E-02
    9051.794     59.054   4.120  1.03088E+00  9.93055E-01  3.78249E-02
    9053.055     60.316   4.160  1.03369E+00  9.93215E-01  4.04726E-02
    9054.329     61.590   4.200  1.03594E+00  9.93419E-01  4.25192E-02
    9055.616     62.876   4.240  1.03751E+00  9.93687E-01  4.38221E-02
    9056.914     64.175   4.280  1.03829E+00  9.93975E-01  4.43172E-02
    9058.225     65.485   4.320  1.03829E+00  9.94324E-01  4.39620E-02
    9059.548     66.808   4.360  1.03742E+00  9.94713E-01  4.27076E-02
    9060.883     68.143   4.400  1.03569E+00  9.95116E-01  4.05690E-02
    9062.230     69.490   4.440  1.03327E+00  9.95553E-01  3.77168E-02
    9063.589     70.850   4.480  1.03045E+00  9.96022E-01  3.44276E-02
    9064.961     72.221   4.520  1.02757E+00  9.96503E-01  3.10644E-02
    9066.345     73.605   4.560  1.02501E+00  9.97013E-01  2.79971E-02
    9067.741     75.001   4.600  1.02299E+00  9.97531E-01  2.54546E-02
    9069.149     76.409   4.640  1.02148E+00  9.98076E-01  2.34025E-02
    9070.569     77.830   4.680  1.02014E+00  9.98624E-01  2.15180E-02
    9072.002     79.262   4.720  1.01844E+00  9.99171E-01  1.92704E-02
    9073.446     80.707   4.760  1.01582E+00  9.99695E-01  1.61250E-02
    9074.903     82.164   4.800  1.01199E+00  1.00024E+00  1.17484E-02
    9076.373     83.633   4.840  1.00686E+00  1.00078E+00  6.08325E-03
    9077.854     85.114   4.880  1.00063E+00  1.00129E+00 -6.60184E-04
    9079.347     86.608   4.920  9.93670E-01  1.00180E+00 -8.12557E-03
    9080.853     88.113   4.960  9.86298E-01  1.00227E+00 -1.59696E-02
    9082.371     89.631   5.000  9.78835E-01  1.00273E+00 -2.38969E-02
    9083.901     91.161   5.040  9.71561E-01  1.00319E+00 -3.16255E-02
    9085.443     92.704   5.080  9.64814E-01  1.00361E+00 -3.87912E-02
    9086.998     94.258   5.120  9.59096E-01  1.00399E+00 -4.48909E-02
    9088.564     95.825   5.160  9.54928E-01  1.00433E+00 -4.94021E-02
    9090.143     97.404   5.200  9.52772E-01  1.00463E+00 -5.18628E-02
    9091.734     98.995   5.240  9.52928E-01  1.00492E+00 -5.19926E-02
    9093.338    100.598   5.280  9.55420E-01  1.00515E+00 -4.97266E-02
    9094.953    102.213   5.320  9.60118E-01  1.00536E+00 -4.52384E-02
    9096.581    103.841   5.360  9.66580E-01  1.00552E+00 -3.89435E-02
    9098.220    105.481   5.400  9.74098E-01  1.00562E+00 -3.15266E-02
    9099.873    107.133   5.440  9.81847E-01  1.00571E+00 -2.38584E-02
    9101.537    108.797   5.480  9.88913E-01  1.00572E+00 -1.68079E-02
    9103.213    110.474   5.520  9.94698E-01  1.00569E+00 -1.09938E-02
    9104.902    112.162   5.560  9.98969E-01  1.00562E+00 -6.65210E-03
    9106.602    113.863   5.600  1.00186E+00  1.00551E+00 -3.64893E-03
    9108.315    115.576   5.640  1.00377E+00  1.00535E+00 -1.58427E-03
    9110.041    117.301   5.680  1.00519E+00  1.00515E+00  3.32675E-05
    9111.778    119.038   5.720  1.00648E+00  1.00489E+00  1.58696E-03
    9113.527    120.788   5.760  1.00784E+00  1.00461E+00  3.23421E-03
    9115.289    122.550   5.800  1.00915E+00  1.00427E+00  4.87987E-03
    9117.063    124.324   5.840  1.01016E+00  1.00391E+00  6.25672E-03
    9118.849    126.110   5.880  1.01055E+00  1.00349E+00  7.06506E-03
    9120.648    127.908   5.920  1.01017E+00  1.00306E+00  7.10827E-03
    9122.458    129.719   5.960  1.00899E+00  1.00260E+00  6.39433E-03
    9124.281    131.541   6.000  1.00727E+00  1.00208E+00  5.19715E-03
