# # comment:                                                     FEFF 9.9.1  
# # Source:
# # Structure
# # Reduced
# # space
# # abc:
# # angles:
# # sites:
# # POT  SCF 100  7.0000   0, screened core-hole, AFOLP (folp(0)= 1.150)
# # Abs   Z=29 Rmt= 1.243 Rnm= 1.332 K  shell
# # Pot 1 Z=23 Rmt= 1.093 Rnm= 1.309
# # Pot 2 Z=29 Rmt= 1.240 Rnm= 1.330
# # Pot 3 Z= 1 Rmt= 0.648 Rnm= 0.791
# # Pot 4 Z= 8 Rmt= 0.984 Rnm= 1.096
# # Gam_ch=1.729E+00 H-L exch Vi= 0.000E+00 Vr= 0.000E+00
# # Mu=-7.903E+00eV kf=2.230E+00 Vint=-1.568E+01eV Rs_int= 1.626
# FMS rfms= 9.0000
# # PATH  Rmax=-1.000,  Keep_limit= 0.00, Heap_limit 0.00  Pwcrit= 2.50%
#  S02=0.950  Temp=   0.00  Debye_temp=   0.00  Global_sig2= 0.00000
#  Energy zero shift, vr, vi    0.00000E+00   0.00000E+00
#  Curved wave amplitude ratio filter   4.000%
#     file         sig2 tot  cw amp ratio   deg  nlegs   reff  inp sig2
#     0/   0 paths used
#  xsedge+ 50, used to normalize mu           2.4553E-04
#  -----------------------------------------------------------------------
#  omega    e    k    mu    mu0     chi     @#
    8983.736    -11.713  -1.000  3.55850E-02  5.26572E-02 -1.70721E-02
    8984.035    -11.415  -0.960  3.73259E-02  5.64268E-02 -1.91009E-02
    8984.321    -11.128  -0.920  3.91867E-02  6.06094E-02 -2.14227E-02
    8984.595    -10.854  -0.880  4.11793E-02  6.52653E-02 -2.40860E-02
    8984.858    -10.592  -0.840  4.33170E-02  7.04642E-02 -2.71472E-02
    8985.107    -10.342  -0.800  4.56146E-02  7.62872E-02 -3.06726E-02
    8985.345    -10.104  -0.760  4.80884E-02  8.28270E-02 -3.47386E-02
    8985.571     -9.878  -0.720  5.07562E-02  9.01882E-02 -3.94320E-02
    8985.784     -9.665  -0.680  5.36364E-02  9.84859E-02 -4.48495E-02
    8985.985     -9.464  -0.640  5.67475E-02  1.07841E-01 -5.10939E-02
    8986.174     -9.275  -0.600  6.01063E-02  1.18374E-01 -5.82674E-02
    8986.351     -9.098  -0.560  6.37247E-02  1.30184E-01 -6.64592E-02
    8986.516     -8.934  -0.520  6.76060E-02  1.43332E-01 -7.57258E-02
    8986.668     -8.781  -0.480  7.17389E-02  1.57803E-01 -8.60636E-02
    8986.808     -8.641  -0.440  7.60913E-02  1.73470E-01 -9.73783E-02
    8986.936     -8.513  -0.400  8.06046E-02  1.90062E-01 -1.09458E-01
    8987.052     -8.397  -0.360  8.51914E-02  2.07156E-01 -1.21965E-01
    8987.156     -8.294  -0.320  8.97383E-02  2.24199E-01 -1.34461E-01
    8987.247     -8.202  -0.280  9.41158E-02  2.40578E-01 -1.46462E-01
    8987.326     -8.123  -0.240  9.81915E-02  2.55701E-01 -1.57510E-01
    8987.393     -8.056  -0.200  1.01843E-01  2.69073E-01 -1.67230E-01
    8987.448     -8.001  -0.160  1.04968E-01  2.80328E-01 -1.75360E-01
    8987.491     -7.958  -0.120  1.07484E-01  2.89230E-01 -1.81746E-01
    8987.521     -7.928  -0.080  1.09333E-01  2.95646E-01 -1.86313E-01
    8987.546     -7.903   0.000  1.10866E-01  3.00803E-01 -1.89938E-01
    8987.601     -7.849   0.120  1.14334E-01  3.12444E-01 -1.98110E-01
    8987.643     -7.806   0.160  1.17020E-01  3.21496E-01 -2.04476E-01
    8987.698     -7.751   0.200  1.20499E-01  3.33059E-01 -2.12560E-01
    8987.765     -7.684   0.240  1.24816E-01  3.47011E-01 -2.22194E-01
    8987.845     -7.605   0.280  1.29944E-01  3.63047E-01 -2.33103E-01
    8987.936     -7.513   0.320  1.35922E-01  3.80805E-01 -2.44883E-01
    8988.040     -7.410   0.360  1.42772E-01  3.99802E-01 -2.57029E-01
    8988.155     -7.294   0.400  1.50463E-01  4.19503E-01 -2.69041E-01
    8988.283     -7.166   0.440  1.59042E-01  4.39419E-01 -2.80376E-01
    8988.424     -7.026   0.480  1.68552E-01  4.59204E-01 -2.90652E-01
    8988.576     -6.873   0.520  1.78954E-01  4.78586E-01 -2.99632E-01
    8988.741     -6.709   0.560  1.90172E-01  4.97457E-01 -3.07285E-01
    8988.917     -6.532   0.600  2.02143E-01  5.15784E-01 -3.13640E-01
    8989.106     -6.343   0.640  2.15007E-01  5.33616E-01 -3.18610E-01
    8989.308     -6.142   0.680  2.28878E-01  5.51017E-01 -3.22139E-01
    8989.521     -5.928   0.720  2.43642E-01  5.68039E-01 -3.24397E-01
    8989.747     -5.703   0.760  2.59053E-01  5.84793E-01 -3.25740E-01
    8989.984     -5.465   0.800  2.74843E-01  6.01303E-01 -3.26459E-01
    8990.234     -5.215   0.840  2.91153E-01  6.17658E-01 -3.26505E-01
    8990.496     -4.953   0.880  3.07845E-01  6.33855E-01 -3.26010E-01
    8990.771     -4.679   0.920  3.23460E-01  6.49919E-01 -3.26459E-01
    8991.057     -4.392   0.960  3.35291E-01  6.65883E-01 -3.30592E-01
    8991.356     -4.093   1.000  3.43070E-01  6.81711E-01 -3.38640E-01
    8991.667     -3.783   1.040  3.52014E-01  6.97437E-01 -3.45423E-01
    8991.990     -3.459   1.080  3.68530E-01  7.13010E-01 -3.44480E-01
    8992.325     -3.124   1.120  3.95757E-01  7.28392E-01 -3.32636E-01
    8992.673     -2.777   1.160  4.33508E-01  7.43603E-01 -3.10095E-01
    8993.032     -2.417   1.200  4.80371E-01  7.58597E-01 -2.78225E-01
    8993.404     -2.045   1.240  5.36354E-01  7.73304E-01 -2.36950E-01
    8993.788     -1.661   1.280  6.01697E-01  7.87737E-01 -1.86039E-01
    8994.184     -1.265   1.320  6.70660E-01  8.01844E-01 -1.31184E-01
    8994.593     -0.856   1.360  7.32467E-01  8.15594E-01 -8.31270E-02
    8995.013     -0.436   1.400  7.78047E-01  8.28954E-01 -5.09073E-02
    8995.446     -0.003   1.440  8.06256E-01  8.41897E-01 -3.56410E-02
    8995.891      0.442   1.480  8.23312E-01  8.54389E-01 -3.10767E-02
    8996.348      0.899   1.520  8.34675E-01  8.66421E-01 -3.17468E-02
    8996.818      1.369   1.560  8.43193E-01  8.77968E-01 -3.47742E-02
    8997.299      1.850   1.600  8.53119E-01  8.88977E-01 -3.58584E-02
    8997.793      2.344   1.640  8.70778E-01  8.99488E-01 -2.87097E-02
    8998.299      2.850   1.680  8.95324E-01  9.09476E-01 -1.41520E-02
    8998.817      3.368   1.720  9.22515E-01  9.18917E-01  3.59776E-03
    8999.348      3.898   1.760  9.59813E-01  9.27790E-01  3.20227E-02
    8999.890      4.441   1.800  1.02128E+00  9.36138E-01  8.51438E-02
    9000.445      4.996   1.840  1.11347E+00  9.43962E-01  1.69513E-01
    9001.012      5.563   1.880  1.23300E+00  9.51225E-01  2.81779E-01
    9001.591      6.142   1.920  1.36777E+00  9.57952E-01  4.09816E-01
    9002.182      6.733   1.960  1.48946E+00  9.64189E-01  5.25274E-01
    9002.786      7.337   2.000  1.55598E+00  9.69903E-01  5.86076E-01
    9003.401      7.952   2.040  1.54260E+00  9.75122E-01  5.67483E-01
    9004.029      8.580   2.080  1.45879E+00  9.79876E-01  4.78912E-01
    9004.669      9.220   2.120  1.33599E+00  9.84174E-01  3.51813E-01
    9005.322      9.872   2.160  1.21182E+00  9.88024E-01  2.23795E-01
    9005.986     10.537   2.200  1.11377E+00  9.91478E-01  1.22292E-01
    9006.663     11.214   2.240  1.04783E+00  9.94528E-01  5.33056E-02
    9007.352     11.902   2.280  1.00902E+00  9.97184E-01  1.18398E-02
    9008.053     12.603   2.320  9.91686E-01  9.99517E-01 -7.83109E-03
    9008.766     13.317   2.360  9.92025E-01  1.00150E+00 -9.47282E-03
    9009.491     14.042   2.400  1.00500E+00  1.00318E+00  1.81780E-03
    9010.229     14.780   2.440  1.02378E+00  1.00455E+00  1.92343E-02
    9010.979     15.530   2.480  1.04209E+00  1.00568E+00  3.64029E-02
    9011.741     16.292   2.520  1.05308E+00  1.00655E+00  4.65300E-02
    9012.515     17.066   2.560  1.05585E+00  1.00720E+00  4.86478E-02
    9013.301     17.852   2.600  1.05939E+00  1.00764E+00  5.17475E-02
    9014.100     18.651   2.640  1.06278E+00  1.00791E+00  5.48624E-02
    9014.911     19.461   2.680  1.05833E+00  1.00802E+00  5.03178E-02
    9015.734     20.284   2.720  1.04857E+00  1.00796E+00  4.06102E-02
    9016.569     21.120   2.760  1.03770E+00  1.00778E+00  2.99294E-02
    9017.416     21.967   2.800  1.02651E+00  1.00747E+00  1.90396E-02
    9018.276     22.826   2.840  1.01371E+00  1.00705E+00  6.66133E-03
    9019.147     23.698   2.880  9.98346E-01  1.00656E+00 -8.21612E-03
    9020.031     24.582   2.920  9.80506E-01  1.00600E+00 -2.54927E-02
    9020.927     25.478   2.960  9.61678E-01  1.00536E+00 -4.36856E-02
    9021.836     26.386   3.000  9.43490E-01  1.00470E+00 -6.12127E-02
    9022.756     27.307   3.040  9.26994E-01  1.00398E+00 -7.69880E-02
    9023.689     28.240   3.080  9.12930E-01  1.00325E+00 -9.03194E-02
    9024.634     29.185   3.120  9.01538E-01  1.00251E+00 -1.00969E-01
    9025.591     30.142   3.160  8.92785E-01  1.00176E+00 -1.08975E-01
    9026.560     31.111   3.200  8.86400E-01  1.00099E+00 -1.14590E-01
    9027.542     32.092   3.240  8.82131E-01  1.00024E+00 -1.18113E-01
    9028.535     33.086   3.280  8.79554E-01  9.99505E-01 -1.19951E-01
    9029.541     34.092   3.320  8.78634E-01  9.98797E-01 -1.20163E-01
    9030.559     35.110   3.360  8.79493E-01  9.98122E-01 -1.18629E-01
    9031.589     36.140   3.400  8.82219E-01  9.97460E-01 -1.15241E-01
    9032.632     37.182   3.440  8.86761E-01  9.96837E-01 -1.10075E-01
    9033.686     38.237   3.480  8.92958E-01  9.96274E-01 -1.03316E-01
    9034.753     39.304   3.520  9.00508E-01  9.95732E-01 -9.52240E-02
    9035.832     40.383   3.560  9.09018E-01  9.95253E-01 -8.62352E-02
    9036.923     41.474   3.600  9.18248E-01  9.94819E-01 -7.65709E-02
    9038.027     42.577   3.640  9.28038E-01  9.94427E-01 -6.63883E-02
    9039.142     43.693   3.680  9.38251E-01  9.94078E-01 -5.58275E-02
    9040.270     44.821   3.720  9.48854E-01  9.93798E-01 -4.49431E-02
    9041.410     45.961   3.760  9.59919E-01  9.93563E-01 -3.36440E-02
    9042.562     47.113   3.800  9.71565E-01  9.93375E-01 -2.18096E-02
    9043.726     48.277   3.840  9.83778E-01  9.93253E-01 -9.47472E-03
    9044.903     49.454   3.880  9.96427E-01  9.93177E-01  3.25039E-03
    9046.092     50.642   3.920  1.00935E+00  9.93146E-01  1.62069E-02
    9047.293     51.843   3.960  1.02237E+00  9.93182E-01  2.91926E-02
    9048.506     53.056   4.000  1.03524E+00  9.93263E-01  4.19803E-02
    9049.731     54.282   4.040  1.04753E+00  9.93386E-01  5.41419E-02
    9050.968     55.519   4.080  1.05849E+00  9.93550E-01  6.49374E-02
    9052.218     56.769   4.120  1.06723E+00  9.93756E-01  7.34730E-02
    9053.480     58.031   4.160  1.07304E+00  9.94025E-01  7.90112E-02
    9054.754     59.305   4.200  1.07557E+00  9.94310E-01  8.12549E-02
    9056.040     60.591   4.240  1.07505E+00  9.94633E-01  8.04170E-02
    9057.339     61.889   4.280  1.07226E+00  9.94992E-01  7.72661E-02
    9058.649     63.200   4.320  1.06806E+00  9.95386E-01  7.26767E-02
    9059.972     64.523   4.360  1.06324E+00  9.95792E-01  6.74495E-02
    9061.307     65.858   4.400  1.05841E+00  9.96231E-01  6.21772E-02
    9062.654     67.205   4.440  1.05394E+00  9.96701E-01  5.72428E-02
    9064.014     68.565   4.480  1.05005E+00  9.97178E-01  5.28700E-02
    9065.385     69.936   4.520  1.04685E+00  9.97661E-01  4.91893E-02
    9066.769     71.320   4.560  1.04447E+00  9.98170E-01  4.62947E-02
    9068.165     72.716   4.600  1.04283E+00  9.98684E-01  4.41505E-02
    9069.573     74.124   4.640  1.04179E+00  9.99198E-01  4.25883E-02
    9070.994     75.544   4.680  1.04092E+00  9.99712E-01  4.12095E-02
    9072.426     76.977   4.720  1.03957E+00  1.00022E+00  3.93461E-02
    9073.871     78.422   4.760  1.03701E+00  1.00073E+00  3.62773E-02
    9075.328     79.879   4.800  1.03283E+00  1.00124E+00  3.15874E-02
    9076.797     81.348   4.840  1.02706E+00  1.00172E+00  2.53420E-02
    9078.278     82.829   4.880  1.02028E+00  1.00221E+00  1.80660E-02
    9079.772     84.323   4.920  1.01308E+00  1.00265E+00  1.04308E-02
    9081.278     85.828   4.960  1.00605E+00  1.00310E+00  2.94699E-03
    9082.795     87.346   5.000  9.99369E-01  1.00350E+00 -4.12976E-03
    9084.326     88.876   5.040  9.93115E-01  1.00388E+00 -1.07682E-02
    9085.868     90.419   5.080  9.87253E-01  1.00426E+00 -1.70040E-02
    9087.422     91.973   5.120  9.81720E-01  1.00459E+00 -2.28750E-02
    9088.989     93.540   5.160  9.76461E-01  1.00489E+00 -2.84339E-02
    9090.568     95.119   5.200  9.71415E-01  1.00516E+00 -3.37405E-02
    9092.159     96.710   5.240  9.66521E-01  1.00538E+00 -3.88565E-02
    9093.762     98.313   5.280  9.61866E-01  1.00558E+00 -4.37173E-02
    9095.378     99.928   5.320  9.57623E-01  1.00573E+00 -4.81051E-02
    9097.005    101.556   5.360  9.54178E-01  1.00586E+00 -5.16767E-02
    9098.645    103.196   5.400  9.51788E-01  1.00594E+00 -5.41540E-02
    9100.297    104.848   5.440  9.50571E-01  1.00596E+00 -5.53939E-02
    9101.961    106.512   5.480  9.50504E-01  1.00597E+00 -5.54667E-02
    9103.638    108.188   5.520  9.51416E-01  1.00594E+00 -5.45224E-02
    9105.326    109.877   5.560  9.53200E-01  1.00587E+00 -5.26655E-02
    9107.027    111.578   5.600  9.55826E-01  1.00575E+00 -4.99249E-02
    9108.740    113.291   5.640  9.59243E-01  1.00560E+00 -4.63549E-02
    9110.465    115.016   5.680  9.63281E-01  1.00540E+00 -4.21230E-02
    9112.202    116.753   5.720  9.67639E-01  1.00517E+00 -3.75322E-02
    9113.952    118.503   5.760  9.71970E-01  1.00490E+00 -3.29310E-02
    9115.714    120.264   5.800  9.76023E-01  1.00462E+00 -2.85940E-02
    9117.488    122.038   5.840  9.79678E-01  1.00427E+00 -2.45966E-02
    9119.274    123.825   5.880  9.83121E-01  1.00392E+00 -2.07996E-02
    9121.072    125.623   5.920  9.86619E-01  1.00354E+00 -1.69160E-02
    9122.883    127.433   5.960  9.90472E-01  1.00312E+00 -1.26450E-02
    9124.705    129.256   6.000  9.95044E-01  1.00264E+00 -7.59806E-03
