# # comment:                                                     FEFF 9.9.1  
# # Source:
# # Structure
# # Reduced
# # space
# # abc:
# # angles:109.471221
# # sites:
# # POT  SCF 100  7.0000   0, screened core-hole, AFOLP (folp(0)= 1.150)
# # Abs   Z=29 Rmt= 1.197 Rnm= 1.286 K  shell
# # Pot 1 Z=11 Rmt= 1.526 Rnm= 1.526
# # Pot 2 Z=22 Rmt= 1.281 Rnm= 1.410
# # Pot 3 Z=29 Rmt= 1.197 Rnm= 1.286
# # Pot 4 Z= 8 Rmt= 1.008 Rnm= 1.103
# # Gam_ch=1.729E+00 H-L exch Vi= 0.000E+00 Vr= 0.000E+00
# # Mu=-1.066E+01eV kf=2.182E+00 Vint=-1.854E+01eV Rs_int= 1.662
# FMS rfms= 9.0000
# # PATH  Rmax=-1.000,  Keep_limit= 0.00, Heap_limit 0.00  Pwcrit= 2.50%
#  S02=0.950  Temp=   0.00  Debye_temp=   0.00  Global_sig2= 0.00000
#  Energy zero shift, vr, vi    0.00000E+00   0.00000E+00
#  Curved wave amplitude ratio filter   4.000%
#     file         sig2 tot  cw amp ratio   deg  nlegs   reff  inp sig2
#     0/   0 paths used
#  xsedge+ 50, used to normalize mu           2.4735E-04
#  -----------------------------------------------------------------------
#  omega    e    k    mu    mu0     chi     @#
    8985.037    -14.465  -1.000  3.29880E-02  5.00723E-02 -1.70843E-02
    8985.335    -14.167  -0.960  3.44869E-02  5.35928E-02 -1.91059E-02
    8985.622    -13.880  -0.920  3.60728E-02  5.74947E-02 -2.14219E-02
    8985.896    -13.606  -0.880  3.77519E-02  6.18334E-02 -2.40814E-02
    8986.158    -13.344  -0.840  3.95312E-02  6.66730E-02 -2.71418E-02
    8986.408    -13.094  -0.800  4.14179E-02  7.20879E-02 -3.06700E-02
    8986.646    -12.856  -0.760  4.34199E-02  7.81633E-02 -3.47434E-02
    8986.871    -12.631  -0.720  4.55453E-02  8.49953E-02 -3.94500E-02
    8987.085    -12.417  -0.680  4.78021E-02  9.26895E-02 -4.48874E-02
    8987.286    -12.216  -0.640  5.01979E-02  1.01357E-01 -5.11595E-02
    8987.475    -12.027  -0.600  5.27383E-02  1.11108E-01 -5.83696E-02
    8987.652    -11.850  -0.560  5.54261E-02  1.22034E-01 -6.66078E-02
    8987.816    -11.686  -0.520  5.82582E-02  1.34190E-01 -7.59316E-02
    8987.969    -11.533  -0.480  6.12233E-02  1.47562E-01 -8.63383E-02
    8988.109    -11.393  -0.440  6.42981E-02  1.62033E-01 -9.77344E-02
    8988.237    -11.265  -0.400  6.74448E-02  1.77353E-01 -1.09908E-01
    8988.353    -11.149  -0.360  7.06093E-02  1.93132E-01 -1.22523E-01
    8988.456    -11.046  -0.320  7.37233E-02  2.08862E-01 -1.35138E-01
    8988.548    -10.954  -0.280  7.67094E-02  2.23977E-01 -1.47267E-01
    8988.627    -10.875  -0.240  7.94876E-02  2.37933E-01 -1.58446E-01
    8988.694    -10.808  -0.200  8.19821E-02  2.50274E-01 -1.68292E-01
    8988.749    -10.753  -0.160  8.41262E-02  2.60662E-01 -1.76536E-01
    8988.792    -10.710  -0.120  8.58644E-02  2.68879E-01 -1.83015E-01
    8988.822    -10.680  -0.080  8.71525E-02  2.74803E-01 -1.87650E-01
    8988.847    -10.655   0.000  8.82378E-02  2.79565E-01 -1.91327E-01
    8988.901    -10.601   0.120  9.06769E-02  2.90316E-01 -1.99639E-01
    8988.944    -10.558   0.160  9.25637E-02  2.98673E-01 -2.06110E-01
    8988.999    -10.503   0.200  9.50387E-02  3.09371E-01 -2.14332E-01
    8989.066    -10.436   0.240  9.80983E-02  3.22239E-01 -2.24141E-01
    8989.145    -10.357   0.280  1.01823E-01  3.37078E-01 -2.35256E-01
    8989.237    -10.265   0.320  1.06234E-01  3.53495E-01 -2.47261E-01
    8989.340    -10.162   0.360  1.11428E-01  3.71089E-01 -2.59660E-01
    8989.456    -10.046   0.400  1.17400E-01  3.89327E-01 -2.71927E-01
    8989.584     -9.918   0.440  1.24251E-01  4.07821E-01 -2.83570E-01
    8989.724     -9.778   0.480  1.31951E-01  4.26197E-01 -2.94246E-01
    8989.877     -9.625   0.520  1.40453E-01  4.44262E-01 -3.03809E-01
    8990.041     -9.461   0.560  1.49472E-01  4.61881E-01 -3.12409E-01
    8990.218     -9.284   0.600  1.58588E-01  4.79064E-01 -3.20476E-01
    8990.407     -9.095   0.640  1.67160E-01  4.95838E-01 -3.28679E-01
    8990.608     -8.894   0.680  1.74628E-01  5.12243E-01 -3.37615E-01
    8990.822     -8.680   0.720  1.81109E-01  5.28406E-01 -3.47297E-01
    8991.047     -8.455   0.760  1.87911E-01  5.44333E-01 -3.56422E-01
    8991.285     -8.217   0.800  1.97674E-01  5.60143E-01 -3.62469E-01
    8991.535     -7.967   0.840  2.13422E-01  5.75865E-01 -3.62443E-01
    8991.797     -7.705   0.880  2.37880E-01  5.91530E-01 -3.53651E-01
    8992.071     -7.431   0.920  2.72664E-01  6.07145E-01 -3.34481E-01
    8992.358     -7.144   0.960  3.16258E-01  6.22762E-01 -3.06505E-01
    8992.657     -6.845   1.000  3.62060E-01  6.38364E-01 -2.76304E-01
    8992.967     -6.535   1.040  4.03735E-01  6.53946E-01 -2.50211E-01
    8993.291     -6.211   1.080  4.44234E-01  6.69477E-01 -2.25244E-01
    8993.626     -5.876   1.120  4.93398E-01  6.84962E-01 -1.91564E-01
    8993.973     -5.529   1.160  5.60527E-01  7.00357E-01 -1.39831E-01
    8994.333     -5.169   1.200  6.55654E-01  7.15641E-01 -5.99865E-02
    8994.705     -4.797   1.240  7.77417E-01  7.30803E-01  4.66143E-02
    8995.089     -4.413   1.280  8.71349E-01  7.45773E-01  1.25576E-01
    8995.485     -4.017   1.320  8.62425E-01  7.60542E-01  1.01883E-01
    8995.894     -3.608   1.360  7.63929E-01  7.75077E-01 -1.11481E-02
    8996.314     -3.188   1.400  6.51533E-01  7.89323E-01 -1.37790E-01
    8996.747     -2.755   1.440  5.80307E-01  8.03268E-01 -2.22961E-01
    8997.192     -2.310   1.480  5.66339E-01  8.16858E-01 -2.50519E-01
    8997.649     -1.853   1.520  5.94274E-01  8.30082E-01 -2.35808E-01
    8998.119     -1.383   1.560  6.33913E-01  8.42907E-01 -2.08994E-01
    8998.600     -0.902   1.600  6.77928E-01  8.55322E-01 -1.77394E-01
    8999.094     -0.408   1.640  7.28859E-01  8.67277E-01 -1.38418E-01
    8999.600      0.098   1.680  7.72793E-01  8.78743E-01 -1.05950E-01
    9000.118      0.616   1.720  8.12225E-01  8.89755E-01 -7.75294E-02
    9000.648      1.146   1.760  8.57434E-01  9.00244E-01 -4.28097E-02
    9001.191      1.689   1.800  8.88873E-01  9.10248E-01 -2.13749E-02
    9001.746      2.244   1.840  8.89895E-01  9.19721E-01 -2.98266E-02
    9002.313      2.811   1.880  8.86871E-01  9.28664E-01 -4.17927E-02
    9002.892      3.390   1.920  9.04288E-01  9.37095E-01 -3.28072E-02
    9003.483      3.981   1.960  9.47642E-01  9.44994E-01  2.64814E-03
    9004.087      4.584   2.000  1.02398E+00  9.52366E-01  7.16152E-02
    9004.702      5.200   2.040  1.14165E+00  9.59232E-01  1.82421E-01
    9005.330      5.828   2.080  1.27087E+00  9.65578E-01  3.05297E-01
    9005.970      6.468   2.120  1.34435E+00  9.71451E-01  3.72895E-01
    9006.622      7.120   2.160  1.36108E+00  9.76835E-01  3.84244E-01
    9007.287      7.785   2.200  1.34991E+00  9.81738E-01  3.68176E-01
    9007.964      8.462   2.240  1.31268E+00  9.86189E-01  3.26489E-01
    9008.652      9.150   2.280  1.26158E+00  9.90215E-01  2.71362E-01
    9009.353      9.851   2.320  1.23213E+00  9.93805E-01  2.38322E-01
    9010.067     10.565   2.360  1.25069E+00  9.97010E-01  2.53676E-01
    9010.792     11.290   2.400  1.30181E+00  9.99820E-01  3.01987E-01
    9011.530     12.028   2.440  1.34597E+00  1.00226E+00  3.43711E-01
    9012.279     12.777   2.480  1.34371E+00  1.00437E+00  3.39335E-01
    9013.041     13.539   2.520  1.27237E+00  1.00615E+00  2.66214E-01
    9013.816     14.314   2.560  1.15930E+00  1.00764E+00  1.51658E-01
    9014.602     15.100   2.600  1.06298E+00  1.00882E+00  5.41664E-02
    9015.401     15.899   2.640  1.01187E+00  1.00976E+00  2.10879E-03
    9016.211     16.709   2.680  9.89403E-01  1.01044E+00 -2.10410E-02
    9017.034     17.532   2.720  9.81159E-01  1.01091E+00 -2.97486E-02
    9017.869     18.367   2.760  9.78340E-01  1.01114E+00 -3.28027E-02
    9018.717     19.215   2.800  9.77208E-01  1.01120E+00 -3.39952E-02
    9019.576     20.074   2.840  9.76939E-01  1.01110E+00 -3.41565E-02
    9020.448     20.946   2.880  9.76816E-01  1.01085E+00 -3.40326E-02
    9021.332     21.830   2.920  9.75125E-01  1.01043E+00 -3.53034E-02
    9022.228     22.726   2.960  9.69896E-01  1.00991E+00 -4.00096E-02
    9023.136     23.634   3.000  9.59760E-01  1.00927E+00 -4.95062E-02
    9024.057     24.555   3.040  9.44728E-01  1.00854E+00 -6.38108E-02
    9024.990     25.488   3.080  9.26050E-01  1.00773E+00 -8.16808E-02
    9025.934     26.432   3.120  9.05742E-01  1.00687E+00 -1.01125E-01
    9026.892     27.390   3.160  8.85518E-01  1.00593E+00 -1.20416E-01
    9027.861     28.359   3.200  8.66821E-01  1.00495E+00 -1.38134E-01
    9028.842     29.340   3.240  8.51483E-01  1.00394E+00 -1.52453E-01
    9029.836     30.334   3.280  8.40822E-01  1.00288E+00 -1.62063E-01
    9030.842     31.340   3.320  8.35584E-01  1.00184E+00 -1.66261E-01
    9031.860     32.358   3.360  8.35759E-01  1.00078E+00 -1.65021E-01
    9032.890     33.388   3.400  8.40682E-01  9.99714E-01 -1.59032E-01
    9033.932     34.430   3.440  8.49368E-01  9.98651E-01 -1.49283E-01
    9034.987     35.485   3.480  8.61339E-01  9.97617E-01 -1.36278E-01
    9036.054     36.552   3.520  8.76479E-01  9.96613E-01 -1.20134E-01
    9037.133     37.631   3.560  8.94348E-01  9.95619E-01 -1.01271E-01
    9038.224     38.722   3.600  9.14431E-01  9.94660E-01 -8.02288E-02
    9039.327     39.825   3.640  9.36100E-01  9.93717E-01 -5.76169E-02
    9040.443     40.941   3.680  9.58545E-01  9.92836E-01 -3.42903E-02
    9041.571     42.069   3.720  9.80432E-01  9.91996E-01 -1.15636E-02
    9042.711     43.209   3.760  1.00011E+00  9.91221E-01  8.88501E-03
    9043.863     44.361   3.800  1.01569E+00  9.90468E-01  2.52206E-02
    9045.027     45.525   3.840  1.02574E+00  9.89780E-01  3.59552E-02
    9046.204     46.702   3.880  1.02974E+00  9.89137E-01  4.05986E-02
    9047.392     47.890   3.920  1.02804E+00  9.88540E-01  3.95019E-02
    9048.593     49.091   3.960  1.02145E+00  9.88012E-01  3.34358E-02
    9049.806     50.304   4.000  1.01077E+00  9.87531E-01  2.32405E-02
    9051.032     51.530   4.040  9.97125E-01  9.87119E-01  1.00064E-02
    9052.269     52.767   4.080  9.82424E-01  9.86755E-01 -4.33105E-03
    9053.519     54.017   4.120  9.69686E-01  9.86458E-01 -1.67719E-02
    9054.781     55.279   4.160  9.62357E-01  9.86186E-01 -2.38286E-02
    9056.055     56.553   4.200  9.63467E-01  9.86003E-01 -2.25354E-02
    9057.341     57.839   4.240  9.74395E-01  9.85845E-01 -1.14504E-02
    9058.639     59.137   4.280  9.94534E-01  9.85756E-01  8.77813E-03
    9059.950     60.448   4.320  1.02119E+00  9.85733E-01  3.54607E-02
    9061.273     61.771   4.360  1.05006E+00  9.85732E-01  6.43305E-02
    9062.608     63.106   4.400  1.07621E+00  9.85796E-01  9.04126E-02
    9063.955     64.453   4.440  1.09513E+00  9.85901E-01  1.09232E-01
    9065.314     65.812   4.480  1.10412E+00  9.86046E-01  1.18077E-01
    9066.686     67.184   4.520  1.10278E+00  9.86208E-01  1.16572E-01
    9068.070     68.568   4.560  1.09322E+00  9.86430E-01  1.06785E-01
    9069.466     69.964   4.600  1.07886E+00  9.86693E-01  9.21657E-02
    9070.874     71.372   4.640  1.06330E+00  9.86992E-01  7.63111E-02
    9072.294     72.792   4.680  1.04946E+00  9.87302E-01  6.21556E-02
    9073.727     74.225   4.720  1.03925E+00  9.87646E-01  5.15993E-02
    9075.172     75.670   4.760  1.03344E+00  9.88001E-01  4.54423E-02
    9076.629     77.127   4.800  1.03186E+00  9.88406E-01  4.34516E-02
    9078.098     78.596   4.840  1.03336E+00  9.88799E-01  4.45661E-02
    9079.579     80.077   4.880  1.03657E+00  9.89218E-01  4.73535E-02
    9081.073     81.571   4.920  1.03968E+00  9.89641E-01  5.00351E-02
    9082.578     83.076   4.960  1.04045E+00  9.90068E-01  5.03770E-02
    9084.096     84.594   5.000  1.03684E+00  9.90520E-01  4.63170E-02
    9085.626     86.124   5.040  1.02793E+00  9.90972E-01  3.69618E-02
    9087.169     87.667   5.080  1.01434E+00  9.91399E-01  2.29367E-02
    9088.723     89.221   5.120  9.97411E-01  9.91824E-01  5.58694E-03
    9090.290     90.788   5.160  9.78378E-01  9.92268E-01 -1.38897E-02
    9091.869     92.367   5.200  9.58143E-01  9.92684E-01 -3.45407E-02
    9093.460     93.958   5.240  9.37789E-01  9.93069E-01 -5.52796E-02
    9095.063     95.561   5.280  9.18788E-01  9.93447E-01 -7.46594E-02
    9096.678     97.176   5.320  9.02712E-01  9.93819E-01 -9.11068E-02
    9098.306     98.804   5.360  8.90769E-01  9.94180E-01 -1.03411E-01
    9099.946    100.444   5.400  8.83387E-01  9.94485E-01 -1.11098E-01
    9101.598    102.096   5.440  8.80588E-01  9.94779E-01 -1.14190E-01
    9103.262    103.760   5.480  8.82283E-01  9.95060E-01 -1.12777E-01
    9104.938    105.436   5.520  8.88329E-01  9.95283E-01 -1.06954E-01
    9106.627    107.125   5.560  8.98481E-01  9.95493E-01 -9.70121E-02
    9108.328    108.826   5.600  9.12226E-01  9.95690E-01 -8.34638E-02
    9110.041    110.539   5.640  9.28834E-01  9.95825E-01 -6.69908E-02
    9111.766    112.264   5.680  9.47725E-01  9.95921E-01 -4.81958E-02
    9113.503    114.001   5.720  9.68631E-01  9.96003E-01 -2.73720E-02
    9115.253    115.751   5.760  9.91369E-01  9.96046E-01 -4.67638E-03
    9117.014    117.512   5.800  1.01495E+00  9.96026E-01  1.89211E-02
    9118.788    119.286   5.840  1.03693E+00  9.95991E-01  4.09424E-02
    9120.574    121.072   5.880  1.05425E+00  9.95920E-01  5.83256E-02
    9122.373    122.871   5.920  1.06508E+00  9.95811E-01  6.92646E-02
    9124.183    124.681   5.960  1.06915E+00  9.95660E-01  7.34872E-02
    9126.006    126.504   6.000  1.06603E+00  9.95448E-01  7.05825E-02
