# # comment:                                                     FEFF 9.9.1  
# # Source:
# # Structure
# # Reduced
# # space
# # abc:
# # angles:
# # sites:
# # POT  SCF 100  7.0000   0, screened core-hole, AFOLP (folp(0)= 1.150)
# # Abs   Z=29 Rmt= 1.269 Rnm= 1.347 K  shell
# # Pot 1 Z=25 Rmt= 1.291 Rnm= 1.396
# # Pot 2 Z=29 Rmt= 1.270 Rnm= 1.325
# # Pot 3 Z= 8 Rmt= 1.038 Rnm= 1.102
# # Gam_ch=1.729E+00 H-L exch Vi= 0.000E+00 Vr= 0.000E+00
# # Mu=-1.048E+01eV kf=2.186E+00 Vint=-1.844E+01eV Rs_int= 1.659
# FMS rfms= 9.0000
# # PATH  Rmax=-1.000,  Keep_limit= 0.00, Heap_limit 0.00  Pwcrit= 2.50%
#  S02=0.950  Temp=   0.00  Debye_temp=   0.00  Global_sig2= 0.00000
#  Energy zero shift, vr, vi    0.00000E+00   0.00000E+00
#  Curved wave amplitude ratio filter   4.000%
#     file         sig2 tot  cw amp ratio   deg  nlegs   reff  inp sig2
#     0/   0 paths used
#  xsedge+ 50, used to normalize mu           2.5075E-04
#  -----------------------------------------------------------------------
#  omega    e    k    mu    mu0     chi     @#
    8984.155    -14.288  -1.000  3.17809E-02  4.54458E-02 -1.36649E-02
    8984.454    -13.989  -0.960  3.32874E-02  4.85242E-02 -1.52368E-02
    8984.740    -13.703  -0.920  3.49013E-02  5.19283E-02 -1.70270E-02
    8985.014    -13.429  -0.880  3.66348E-02  5.57048E-02 -1.90700E-02
    8985.277    -13.166  -0.840  3.85021E-02  5.99082E-02 -2.14061E-02
    8985.527    -12.917  -0.800  4.05195E-02  6.46012E-02 -2.40817E-02
    8985.764    -12.679  -0.760  4.27054E-02  6.98557E-02 -2.71503E-02
    8985.990    -12.453  -0.720  4.50809E-02  7.57530E-02 -3.06721E-02
    8986.203    -12.240  -0.680  4.76685E-02  8.23821E-02 -3.47136E-02
    8986.404    -12.039  -0.640  5.04921E-02  8.98371E-02 -3.93450E-02
    8986.593    -11.850  -0.600  5.35742E-02  9.82097E-02 -4.46355E-02
    8986.770    -11.673  -0.560  5.69326E-02  1.07578E-01 -5.06453E-02
    8986.935    -11.508  -0.520  6.05749E-02  1.17987E-01 -5.74123E-02
    8987.087    -11.356  -0.480  6.44901E-02  1.29425E-01 -6.49349E-02
    8987.227    -11.216  -0.440  6.86406E-02  1.41792E-01 -7.31509E-02
    8987.355    -11.088  -0.400  7.29542E-02  1.54875E-01 -8.19205E-02
    8987.471    -10.972  -0.360  7.73232E-02  1.68342E-01 -9.10190E-02
    8987.575    -10.868  -0.320  8.16122E-02  1.81763E-01 -1.00151E-01
    8987.666    -10.777  -0.280  8.56758E-02  1.94657E-01 -1.08981E-01
    8987.745    -10.698  -0.240  8.93796E-02  2.06563E-01 -1.17183E-01
    8987.813    -10.631  -0.200  9.26169E-02  2.17091E-01 -1.24474E-01
    8987.867    -10.576  -0.160  9.53152E-02  2.25954E-01 -1.30639E-01
    8987.910    -10.533  -0.120  9.74311E-02  2.32966E-01 -1.35535E-01
    8987.941    -10.503  -0.080  9.89425E-02  2.38022E-01 -1.39080E-01
    8987.965    -10.478   0.000  1.00136E-01  2.42088E-01 -1.41951E-01
    8988.020    -10.423   0.120  1.02997E-01  2.51261E-01 -1.48264E-01
    8988.062    -10.381   0.160  1.05196E-01  2.58412E-01 -1.53216E-01
    8988.117    -10.326   0.200  1.07972E-01  2.67545E-01 -1.59572E-01
    8988.184    -10.259   0.240  1.11281E-01  2.78550E-01 -1.67269E-01
    8988.264    -10.179   0.280  1.15083E-01  2.91247E-01 -1.76164E-01
    8988.355    -10.088   0.320  1.19313E-01  3.05321E-01 -1.86008E-01
    8988.459     -9.984   0.360  1.23991E-01  3.20420E-01 -1.96429E-01
    8988.575     -9.869   0.400  1.29185E-01  3.36131E-01 -2.06946E-01
    8988.703     -9.741   0.440  1.35061E-01  3.52073E-01 -2.17012E-01
    8988.843     -9.600   0.480  1.41935E-01  3.68007E-01 -2.26073E-01
    8988.995     -9.448   0.520  1.50002E-01  3.83718E-01 -2.33716E-01
    8989.160     -9.283   0.560  1.59265E-01  3.99127E-01 -2.39862E-01
    8989.337     -9.107   0.600  1.69362E-01  4.14249E-01 -2.44888E-01
    8989.525     -8.918   0.640  1.79456E-01  4.29090E-01 -2.49634E-01
    8989.727     -8.716   0.680  1.88336E-01  4.43738E-01 -2.55402E-01
    8989.940     -8.503   0.720  1.94783E-01  4.58253E-01 -2.63470E-01
    8990.166     -8.277   0.760  1.98447E-01  4.72712E-01 -2.74265E-01
    8990.403     -8.040   0.800  2.00623E-01  4.87144E-01 -2.86522E-01
    8990.653     -7.790   0.840  2.04194E-01  5.01654E-01 -2.97460E-01
    8990.915     -7.528   0.880  2.12253E-01  5.16229E-01 -3.03976E-01
    8991.190     -7.253   0.920  2.27558E-01  5.30931E-01 -3.03373E-01
    8991.476     -6.967   0.960  2.52604E-01  5.45753E-01 -2.93148E-01
    8991.775     -6.668   1.000  2.89822E-01  5.60736E-01 -2.70914E-01
    8992.086     -6.357   1.040  3.39871E-01  5.75859E-01 -2.35988E-01
    8992.409     -6.034   1.080  3.98028E-01  5.91114E-01 -1.93086E-01
    8992.744     -5.699   1.120  4.50907E-01  6.06484E-01 -1.55577E-01
    8993.092     -5.351   1.160  4.80620E-01  6.21991E-01 -1.41371E-01
    8993.451     -4.992   1.200  4.80356E-01  6.37551E-01 -1.57195E-01
    8993.823     -4.620   1.240  4.64371E-01  6.53201E-01 -1.88829E-01
    8994.207     -4.236   1.280  4.51912E-01  6.68870E-01 -2.16958E-01
    8994.603     -3.840   1.320  4.51095E-01  6.84548E-01 -2.33453E-01
    8995.012     -3.431   1.360  4.64116E-01  7.00183E-01 -2.36067E-01
    8995.432     -3.011   1.400  4.93914E-01  7.15761E-01 -2.21847E-01
    8995.865     -2.578   1.440  5.41090E-01  7.31228E-01 -1.90138E-01
    8996.310     -2.133   1.480  6.01367E-01  7.46568E-01 -1.45201E-01
    8996.768     -1.676   1.520  6.66782E-01  7.61723E-01 -9.49410E-02
    8997.237     -1.206   1.560  7.22865E-01  7.76679E-01 -5.38138E-02
    8997.718     -0.725   1.600  7.48700E-01  7.91380E-01 -4.26795E-02
    8998.212     -0.231   1.640  7.39003E-01  8.05788E-01 -6.67852E-02
    8998.718      0.275   1.680  7.19106E-01  8.19888E-01 -1.00781E-01
    8999.236      0.793   1.720  7.18687E-01  8.33646E-01 -1.14959E-01
    8999.767      1.324   1.760  7.51396E-01  8.47027E-01 -9.56303E-02
    9000.309      1.866   1.800  8.26551E-01  8.59995E-01 -3.34440E-02
    9000.864      2.421   1.840  9.61511E-01  8.72521E-01  8.89896E-02
    9001.431      2.988   1.880  1.16252E+00  8.84572E-01  2.77952E-01
    9002.010      3.567   1.920  1.37249E+00  8.96178E-01  4.76317E-01
    9002.601      4.158   1.960  1.46621E+00  9.07251E-01  5.58964E-01
    9003.205      4.762   2.000  1.39847E+00  9.17842E-01  4.80629E-01
    9003.821      5.377   2.040  1.28393E+00  9.27886E-01  3.56049E-01
    9004.448      6.005   2.080  1.21384E+00  9.37398E-01  2.76440E-01
    9005.089      6.645   2.120  1.18160E+00  9.46354E-01  2.35243E-01
    9005.741      7.298   2.160  1.17272E+00  9.54771E-01  2.17949E-01
    9006.405      7.962   2.200  1.19354E+00  9.62631E-01  2.30908E-01
    9007.082      8.639   2.240  1.23072E+00  9.69933E-01  2.60789E-01
    9007.771      9.328   2.280  1.24615E+00  9.76699E-01  2.69447E-01
    9008.472     10.029   2.320  1.22786E+00  9.82912E-01  2.44945E-01
    9009.185     10.742   2.360  1.18685E+00  9.88595E-01  1.98250E-01
    9009.910     11.467   2.400  1.12129E+00  9.93756E-01  1.27530E-01
    9010.648     12.205   2.440  1.03956E+00  9.98399E-01  4.11588E-02
    9011.398     12.955   2.480  9.78440E-01  1.00255E+00 -2.41110E-02
    9012.160     13.717   2.520  9.50459E-01  1.00622E+00 -5.57616E-02
    9012.934     14.491   2.560  9.41529E-01  1.00942E+00 -6.78896E-02
    9013.720     15.277   2.600  9.49256E-01  1.01217E+00 -6.29136E-02
    9014.519     16.076   2.640  9.66862E-01  1.01450E+00 -4.76427E-02
    9015.330     16.887   2.680  9.83961E-01  1.01642E+00 -3.24560E-02
    9016.153     17.710   2.720  9.93040E-01  1.01795E+00 -2.49128E-02
    9016.988     18.545   2.760  9.93523E-01  1.01912E+00 -2.56012E-02
    9017.835     19.392   2.800  9.89830E-01  1.01994E+00 -3.01114E-02
    9018.695     20.252   2.840  9.86249E-01  1.02044E+00 -3.41867E-02
    9019.566     21.123   2.880  9.84029E-01  1.02062E+00 -3.65879E-02
    9020.450     22.007   2.920  9.82543E-01  1.02054E+00 -3.79943E-02
    9021.346     22.903   2.960  9.79917E-01  1.02019E+00 -4.02690E-02
    9022.255     23.812   3.000  9.74122E-01  1.01959E+00 -4.54722E-02
    9023.175     24.732   3.040  9.64150E-01  1.01879E+00 -5.46427E-02
    9024.108     25.665   3.080  9.50794E-01  1.01777E+00 -6.69758E-02
    9025.053     26.610   3.120  9.36064E-01  1.01660E+00 -8.05352E-02
    9026.010     27.567   3.160  9.21986E-01  1.01525E+00 -9.32623E-02
    9026.979     28.536   3.200  9.09979E-01  1.01379E+00 -1.03808E-01
    9027.961     29.518   3.240  9.00570E-01  1.01218E+00 -1.11614E-01
    9028.954     30.511   3.280  8.93781E-01  1.01047E+00 -1.16687E-01
    9029.960     31.517   3.320  8.89528E-01  1.00869E+00 -1.19158E-01
    9030.978     32.535   3.360  8.87675E-01  1.00681E+00 -1.19132E-01
    9032.008     33.565   3.400  8.87882E-01  1.00490E+00 -1.17017E-01
    9033.051     34.608   3.440  8.89735E-01  1.00293E+00 -1.13193E-01
    9034.105     35.662   3.480  8.93090E-01  1.00092E+00 -1.07831E-01
    9035.172     36.729   3.520  8.97970E-01  9.98928E-01 -1.00958E-01
    9036.251     37.808   3.560  9.04281E-01  9.96909E-01 -9.26280E-02
    9037.342     38.899   3.600  9.12135E-01  9.94892E-01 -8.27573E-02
    9038.446     40.003   3.640  9.21690E-01  9.92902E-01 -7.12121E-02
    9039.561     41.118   3.680  9.33067E-01  9.90926E-01 -5.78592E-02
    9040.689     42.246   3.720  9.46345E-01  9.89007E-01 -4.26614E-02
    9041.829     43.386   3.760  9.61169E-01  9.87107E-01 -2.59385E-02
    9042.981     44.538   3.800  9.76778E-01  9.85275E-01 -8.49733E-03
    9044.145     45.702   3.840  9.92419E-01  9.83510E-01  8.90875E-03
    9045.322     46.879   3.880  1.00779E+00  9.81796E-01  2.59919E-02
    9046.511     48.068   3.920  1.02282E+00  9.80136E-01  4.26883E-02
    9047.712     49.268   3.960  1.03724E+00  9.78573E-01  5.86681E-02
    9048.925     50.482   4.000  1.05043E+00  9.77089E-01  7.33438E-02
    9050.150     51.707   4.040  1.06165E+00  9.75686E-01  8.59686E-02
    9051.387     52.944   4.080  1.07035E+00  9.74366E-01  9.59827E-02
    9052.637     54.194   4.120  1.07670E+00  9.73131E-01  1.03569E-01
    9053.899     55.456   4.160  1.08158E+00  9.72000E-01  1.09580E-01
    9055.173     56.730   4.200  1.08586E+00  9.70957E-01  1.14898E-01
    9056.459     58.016   4.240  1.09016E+00  9.70020E-01  1.20139E-01
    9057.758     59.315   4.280  1.09471E+00  9.69170E-01  1.25544E-01
    9059.068     60.625   4.320  1.09886E+00  9.68408E-01  1.30453E-01
    9060.391     61.948   4.360  1.10023E+00  9.67751E-01  1.32482E-01
    9061.726     63.283   4.400  1.09494E+00  9.67183E-01  1.27757E-01
    9063.073     64.630   4.440  1.07968E+00  9.66723E-01  1.12961E-01
    9064.433     65.990   4.480  1.05416E+00  9.66347E-01  8.78159E-02
    9065.804     67.361   4.520  1.02159E+00  9.66057E-01  5.55300E-02
    9067.188     68.745   4.560  9.86883E-01  9.65874E-01  2.10092E-02
    9068.584     70.141   4.600  9.54291E-01  9.65773E-01 -1.14820E-02
    9069.992     71.549   4.640  9.26468E-01  9.65752E-01 -3.92846E-02
    9071.413     72.970   4.680  9.04536E-01  9.65813E-01 -6.12773E-02
    9072.845     74.402   4.720  8.88720E-01  9.65954E-01 -7.72337E-02
    9074.290     75.847   4.760  8.78853E-01  9.66170E-01 -8.73175E-02
    9075.747     77.304   4.800  8.74637E-01  9.66462E-01 -9.18259E-02
    9077.216     78.773   4.840  8.75828E-01  9.66808E-01 -9.09800E-02
    9078.697     80.254   4.880  8.82426E-01  9.67247E-01 -8.48205E-02
    9080.191     81.748   4.920  8.94449E-01  9.67712E-01 -7.32631E-02
    9081.697     83.254   4.960  9.11924E-01  9.68246E-01 -5.63220E-02
    9083.215     84.771   5.000  9.33913E-01  9.68845E-01 -3.49326E-02
    9084.745     86.302   5.040  9.57833E-01  9.69464E-01 -1.16313E-02
    9086.287     87.844   5.080  9.79762E-01  9.70123E-01  9.63919E-03
    9087.841     89.398   5.120  9.96006E-01  9.70840E-01  2.51656E-02
    9089.408     90.965   5.160  1.00498E+00  9.71569E-01  3.34115E-02
    9090.987     92.544   5.200  1.00767E+00  9.72307E-01  3.53651E-02
    9092.578     94.135   5.240  1.00617E+00  9.73077E-01  3.30898E-02
    9094.181     95.738   5.280  1.00204E+00  9.73874E-01  2.81712E-02
    9095.797     97.354   5.320  9.95959E-01  9.74652E-01  2.13067E-02
    9097.424     98.981   5.360  9.88141E-01  9.75452E-01  1.26889E-02
    9099.064    100.621   5.400  9.78693E-01  9.76229E-01  2.46472E-03
    9100.716    102.273   5.440  9.68138E-01  9.77023E-01 -8.88477E-03
    9102.380    103.937   5.480  9.57402E-01  9.77789E-01 -2.03866E-02
    9104.057    105.614   5.520  9.47715E-01  9.78523E-01 -3.08081E-02
    9105.745    107.302   5.560  9.39826E-01  9.79245E-01 -3.94189E-02
    9107.446    109.003   5.600  9.33437E-01  9.79931E-01 -4.64940E-02
    9109.159    110.716   5.640  9.27561E-01  9.80582E-01 -5.30208E-02
    9110.884    112.441   5.680  9.21337E-01  9.81216E-01 -5.98789E-02
    9112.621    114.178   5.720  9.14461E-01  9.81785E-01 -6.73245E-02
    9114.371    115.928   5.760  9.07579E-01  9.82313E-01 -7.47334E-02
    9116.133    117.690   5.800  9.02242E-01  9.82796E-01 -8.05541E-02
    9117.907    119.464   5.840  9.00439E-01  9.83233E-01 -8.27945E-02
    9119.693    121.250   5.880  9.03603E-01  9.83600E-01 -7.99967E-02
    9121.491    123.048   5.920  9.12292E-01  9.83913E-01 -7.16208E-02
    9123.302    124.859   5.960  9.26506E-01  9.84141E-01 -5.76351E-02
    9125.124    126.681   6.000  9.46883E-01  9.84285E-01 -3.74025E-02
