# # comment:                                                     FEFF 9.9.1  
# # Source:
# # Structure
# # Reduced
# # space
# # abc:
# # angles:109.471221
# # sites:
# # POT  SCF 100  7.0000   0, screened core-hole, AFOLP (folp(0)= 1.150)
# # Abs   Z=29 Rmt= 1.162 Rnm= 1.261 K  shell
# # Pot 1 Z=39 Rmt= 1.661 Rnm= 1.706
# # Pot 2 Z=27 Rmt= 1.242 Rnm= 1.344
# # Pot 3 Z=29 Rmt= 1.162 Rnm= 1.261
# # Pot 4 Z= 8 Rmt= 1.015 Rnm= 1.086
# # Gam_ch=1.729E+00 H-L exch Vi= 0.000E+00 Vr= 0.000E+00
# # Mu=-1.016E+01eV kf=2.230E+00 Vint=-1.844E+01eV Rs_int= 1.626
# FMS rfms= 9.0000
# # PATH  Rmax=-1.000,  Keep_limit= 0.00, Heap_limit 0.00  Pwcrit= 2.50%
#  S02=0.950  Temp=   0.00  Debye_temp=   0.00  Global_sig2= 0.00000
#  Energy zero shift, vr, vi    0.00000E+00   0.00000E+00
#  Curved wave amplitude ratio filter   4.000%
#     file         sig2 tot  cw amp ratio   deg  nlegs   reff  inp sig2
#     0/   0 paths used
#  xsedge+ 50, used to normalize mu           2.4795E-04
#  -----------------------------------------------------------------------
#  omega    e    k    mu    mu0     chi     @#
    8984.509    -13.968  -1.000  3.36519E-02  5.16394E-02 -1.79876E-02
    8984.807    -13.669  -0.960  3.52737E-02  5.53103E-02 -2.00365E-02
    8985.094    -13.383  -0.920  3.70102E-02  5.93822E-02 -2.23720E-02
    8985.368    -13.108  -0.880  3.88740E-02  6.39134E-02 -2.50394E-02
    8985.630    -12.846  -0.840  4.08802E-02  6.89721E-02 -2.80918E-02
    8985.880    -12.596  -0.800  4.30460E-02  7.46366E-02 -3.15906E-02
    8986.118    -12.358  -0.760  4.53912E-02  8.09972E-02 -3.56060E-02
    8986.344    -12.133  -0.720  4.79384E-02  8.81556E-02 -4.02172E-02
    8986.557    -11.920  -0.680  5.07124E-02  9.62237E-02 -4.55113E-02
    8986.758    -11.718  -0.640  5.37393E-02  1.05319E-01 -5.15802E-02
    8986.947    -11.529  -0.600  5.70445E-02  1.15559E-01 -5.85141E-02
    8987.124    -11.353  -0.560  6.06487E-02  1.27040E-01 -6.63908E-02
    8987.288    -11.188  -0.520  6.45624E-02  1.39820E-01 -7.52579E-02
    8987.441    -11.036  -0.480  6.87772E-02  1.53887E-01 -8.51095E-02
    8987.581    -10.895  -0.440  7.32569E-02  1.69116E-01 -9.58588E-02
    8987.709    -10.767  -0.400  7.79289E-02  1.85244E-01 -1.07315E-01
    8987.825    -10.652  -0.360  8.26821E-02  2.01858E-01 -1.19176E-01
    8987.929    -10.548  -0.320  8.73738E-02  2.18421E-01 -1.31047E-01
    8988.020    -10.456  -0.280  9.18469E-02  2.34337E-01 -1.42490E-01
    8988.099    -10.377  -0.240  9.59515E-02  2.49032E-01 -1.53080E-01
    8988.166    -10.310  -0.200  9.95641E-02  2.62022E-01 -1.62458E-01
    8988.221    -10.255  -0.160  1.02597E-01  2.72955E-01 -1.70358E-01
    8988.264    -10.213  -0.120  1.04996E-01  2.81600E-01 -1.76604E-01
    8988.294    -10.182  -0.080  1.06736E-01  2.87831E-01 -1.81095E-01
    8988.319    -10.158   0.000  1.08168E-01  2.92838E-01 -1.84669E-01
    8988.374    -10.103   0.120  1.11268E-01  3.04139E-01 -1.92871E-01
    8988.416    -10.060   0.160  1.13616E-01  3.12923E-01 -1.99306E-01
    8988.471    -10.005   0.200  1.16587E-01  3.24163E-01 -2.07576E-01
    8988.538     -9.938   0.240  1.20078E-01  3.37676E-01 -2.17597E-01
    8988.617     -9.859   0.280  1.24039E-01  3.53245E-01 -2.29206E-01
    8988.709     -9.768   0.320  1.28328E-01  3.70452E-01 -2.42124E-01
    8988.812     -9.664   0.360  1.32839E-01  3.88844E-01 -2.56005E-01
    8988.928     -9.548   0.400  1.37471E-01  4.07919E-01 -2.70447E-01
    8989.056     -9.420   0.440  1.42068E-01  4.27175E-01 -2.85107E-01
    8989.196     -9.280   0.480  1.46561E-01  4.46279E-01 -2.99718E-01
    8989.349     -9.128   0.520  1.50761E-01  4.64983E-01 -3.14222E-01
    8989.513     -8.963   0.560  1.54471E-01  4.83163E-01 -3.28692E-01
    8989.690     -8.786   0.600  1.57550E-01  5.00830E-01 -3.43280E-01
    8989.879     -8.597   0.640  1.59978E-01  5.17996E-01 -3.58018E-01
    8990.080     -8.396   0.680  1.62202E-01  5.34762E-01 -3.72560E-01
    8990.294     -8.183   0.720  1.65139E-01  5.51165E-01 -3.86026E-01
    8990.519     -7.957   0.760  1.70235E-01  5.67317E-01 -3.97082E-01
    8990.757     -7.719   0.800  1.79067E-01  5.83263E-01 -4.04197E-01
    8991.007     -7.469   0.840  1.93279E-01  5.99076E-01 -4.05797E-01
    8991.269     -7.207   0.880  2.14848E-01  6.14795E-01 -3.99947E-01
    8991.543     -6.933   0.920  2.46409E-01  6.30428E-01 -3.84019E-01
    8991.830     -6.646   0.960  2.91189E-01  6.46012E-01 -3.54823E-01
    8992.129     -6.348   1.000  3.50540E-01  6.61553E-01 -3.11013E-01
    8992.440     -6.037   1.040  4.18299E-01  6.77030E-01 -2.58731E-01
    8992.763     -5.714   1.080  4.81488E-01  6.92454E-01 -2.10966E-01
    8993.098     -5.379   1.120  5.40261E-01  7.07771E-01 -1.67510E-01
    8993.445     -5.031   1.160  6.19070E-01  7.23000E-01 -1.03931E-01
    8993.805     -4.671   1.200  7.38381E-01  7.38080E-01  3.00423E-04
    8994.177     -4.300   1.240  8.69956E-01  7.53024E-01  1.16932E-01
    8994.561     -3.915   1.280  9.25315E-01  7.67743E-01  1.57572E-01
    8994.957     -3.519   1.320  8.52578E-01  7.82267E-01  7.03106E-02
    8995.366     -3.111   1.360  7.12092E-01  7.96506E-01 -8.44142E-02
    8995.786     -2.690   1.400  5.88603E-01  8.10465E-01 -2.21863E-01
    8996.219     -2.257   1.440  5.18668E-01  8.24094E-01 -3.05426E-01
    8996.664     -1.812   1.480  4.98976E-01  8.37359E-01 -3.38383E-01
    8997.121     -1.355   1.520  5.09568E-01  8.50250E-01 -3.40683E-01
    8997.591     -0.886   1.560  5.31229E-01  8.62737E-01 -3.31508E-01
    8998.072     -0.404   1.600  5.57226E-01  8.74788E-01 -3.17562E-01
    8998.566      0.090   1.640  5.93377E-01  8.86372E-01 -2.92996E-01
    8999.072      0.596   1.680  6.43611E-01  8.97462E-01 -2.53851E-01
    8999.590      1.114   1.720  7.09200E-01  9.08094E-01 -1.98894E-01
    9000.120      1.644   1.760  7.96163E-01  9.18199E-01 -1.22037E-01
    9000.663      2.187   1.800  8.85019E-01  9.27795E-01 -4.27766E-02
    9001.218      2.741   1.840  9.45153E-01  9.36859E-01  8.29417E-03
    9001.785      3.308   1.880  9.76534E-01  9.45409E-01  3.11248E-02
    9002.364      3.887   1.920  9.83188E-01  9.53406E-01  2.97816E-02
    9002.955      4.479   1.960  9.91793E-01  9.60891E-01  3.09017E-02
    9003.559      5.082   2.000  1.04166E+00  9.67867E-01  7.37944E-02
    9004.174      5.698   2.040  1.13039E+00  9.74317E-01  1.56073E-01
    9004.802      6.326   2.080  1.20285E+00  9.80246E-01  2.22606E-01
    9005.442      6.966   2.120  1.22148E+00  9.85701E-01  2.35777E-01
    9006.095      7.618   2.160  1.21308E+00  9.90647E-01  2.22429E-01
    9006.759      8.283   2.200  1.22720E+00  9.95131E-01  2.32068E-01
    9007.436      8.959   2.240  1.29500E+00  9.99164E-01  2.95839E-01
    9008.124      9.648   2.280  1.39672E+00  1.00277E+00  3.93952E-01
    9008.826     10.349   2.320  1.45627E+00  1.00595E+00  4.50323E-01
    9009.539     11.062   2.360  1.43713E+00  1.00872E+00  4.28414E-01
    9010.264     11.788   2.400  1.38338E+00  1.01111E+00  3.72271E-01
    9011.002     12.525   2.440  1.33066E+00  1.01314E+00  3.17521E-01
    9011.752     13.275   2.480  1.28226E+00  1.01483E+00  2.67429E-01
    9012.514     14.037   2.520  1.24114E+00  1.01620E+00  2.24942E-01
    9013.288     14.811   2.560  1.21474E+00  1.01726E+00  1.97485E-01
    9014.074     15.598   2.600  1.19910E+00  1.01805E+00  1.81057E-01
    9014.873     16.396   2.640  1.18157E+00  1.01856E+00  1.63004E-01
    9015.683     17.207   2.680  1.15113E+00  1.01884E+00  1.32291E-01
    9016.506     18.030   2.720  1.10701E+00  1.01890E+00  8.81136E-02
    9017.342     18.865   2.760  1.06125E+00  1.01875E+00  4.25016E-02
    9018.189     19.713   2.800  1.02453E+00  1.01841E+00  6.11917E-03
    9019.048     20.572   2.840  1.00092E+00  1.01792E+00 -1.70010E-02
    9019.920     21.444   2.880  9.88160E-01  1.01726E+00 -2.91000E-02
    9020.804     22.328   2.920  9.81010E-01  1.01649E+00 -3.54773E-02
    9021.700     23.224   2.960  9.74587E-01  1.01557E+00 -4.09863E-02
    9022.609     24.132   3.000  9.65805E-01  1.01456E+00 -4.87596E-02
    9023.529     25.053   3.040  9.53493E-01  1.01347E+00 -5.99759E-02
    9024.462     25.985   3.080  9.38265E-01  1.01229E+00 -7.40300E-02
    9025.407     26.930   3.120  9.21707E-01  1.01105E+00 -8.93401E-02
    9026.364     27.887   3.160  9.05465E-01  1.00975E+00 -1.04287E-01
    9027.333     28.856   3.200  8.91126E-01  1.00844E+00 -1.17311E-01
    9028.314     29.838   3.240  8.79881E-01  1.00707E+00 -1.27186E-01
    9029.308     30.832   3.280  8.71901E-01  1.00571E+00 -1.33805E-01
    9030.314     31.837   3.320  8.66600E-01  1.00432E+00 -1.37720E-01
    9031.332     32.855   3.360  8.63261E-01  1.00293E+00 -1.39670E-01
    9032.362     33.886   3.400  8.61447E-01  1.00154E+00 -1.40097E-01
    9033.404     34.928   3.440  8.60819E-01  1.00018E+00 -1.39365E-01
    9034.459     35.983   3.480  8.61202E-01  9.98835E-01 -1.37633E-01
    9035.526     37.049   3.520  8.62416E-01  9.97518E-01 -1.35102E-01
    9036.605     38.128   3.560  8.64257E-01  9.96239E-01 -1.31982E-01
    9037.696     39.220   3.600  8.66950E-01  9.94998E-01 -1.28049E-01
    9038.799     40.323   3.640  8.71160E-01  9.93798E-01 -1.22638E-01
    9039.915     41.439   3.680  8.77705E-01  9.92642E-01 -1.14937E-01
    9041.043     42.566   3.720  8.87273E-01  9.91553E-01 -1.04280E-01
    9042.183     43.706   3.760  9.00517E-01  9.90511E-01 -8.99938E-02
    9043.335     44.858   3.800  9.17678E-01  9.89535E-01 -7.18573E-02
    9044.499     46.023   3.840  9.37930E-01  9.88588E-01 -5.06578E-02
    9045.676     47.199   3.880  9.59289E-01  9.87733E-01 -2.84438E-02
    9046.864     48.388   3.920  9.78817E-01  9.86929E-01 -8.11136E-03
    9048.065     49.589   3.960  9.93858E-01  9.86197E-01  7.66056E-03
    9049.278     50.802   4.000  1.00311E+00  9.85518E-01  1.75880E-02
    9050.504     52.027   4.040  1.00695E+00  9.84932E-01  2.20211E-02
    9051.741     53.265   4.080  1.00684E+00  9.84378E-01  2.24647E-02
    9052.991     54.514   4.120  1.00480E+00  9.83918E-01  2.08858E-02
    9054.253     55.776   4.160  1.00307E+00  9.83510E-01  1.95652E-02
    9055.527     57.050   4.200  1.00388E+00  9.83174E-01  2.07077E-02
    9056.813     58.337   4.240  1.00871E+00  9.82889E-01  2.58238E-02
    9058.111     59.635   4.280  1.01769E+00  9.82676E-01  3.50128E-02
    9059.422     60.946   4.320  1.02934E+00  9.82534E-01  4.68088E-02
    9060.745     62.268   4.360  1.04124E+00  9.82441E-01  5.87952E-02
    9062.080     63.604   4.400  1.05112E+00  9.82395E-01  6.87278E-02
    9063.427     64.951   4.440  1.05804E+00  9.82416E-01  7.56194E-02
    9064.787     66.310   4.480  1.06207E+00  9.82485E-01  7.95859E-02
    9066.158     67.682   4.520  1.06359E+00  9.82619E-01  8.09699E-02
    9067.542     69.066   4.560  1.06237E+00  9.82776E-01  7.95924E-02
    9068.938     70.461   4.600  1.05805E+00  9.82996E-01  7.50542E-02
    9070.346     71.870   4.640  1.05101E+00  9.83258E-01  6.77500E-02
    9071.766     73.290   4.680  1.04281E+00  9.83560E-01  5.92546E-02
    9073.199     74.723   4.720  1.03533E+00  9.83900E-01  5.14278E-02
    9074.644     76.167   4.760  1.02989E+00  9.84277E-01  4.56166E-02
    9076.101     77.624   4.800  1.02709E+00  9.84665E-01  4.24275E-02
    9077.570     79.093   4.840  1.02691E+00  9.85087E-01  4.18223E-02
    9079.051     80.575   4.880  1.02882E+00  9.85542E-01  4.32794E-02
    9080.545     82.068   4.920  1.03190E+00  9.86006E-01  4.58961E-02
    9082.050     83.574   4.960  1.03514E+00  9.86499E-01  4.86396E-02
    9083.568     85.092   5.000  1.03754E+00  9.86996E-01  5.05448E-02
    9085.098     86.622   5.040  1.03830E+00  9.87497E-01  5.08010E-02
    9086.641     88.164   5.080  1.03691E+00  9.88000E-01  4.89058E-02
    9088.195     89.719   5.120  1.03326E+00  9.88525E-01  4.47363E-02
    9089.762     91.285   5.160  1.02742E+00  9.89027E-01  3.83886E-02
    9091.341     92.864   5.200  1.01961E+00  9.89526E-01  3.00870E-02
    9092.932     94.455   5.240  1.01014E+00  9.90022E-01  2.01219E-02
    9094.535     96.058   5.280  9.99123E-01  9.90513E-01  8.60964E-03
    9096.150     97.674   5.320  9.86276E-01  9.90999E-01 -4.72351E-03
    9097.778     99.302   5.360  9.71262E-01  9.91453E-01 -2.01909E-02
    9099.418    100.941   5.400  9.54421E-01  9.91873E-01 -3.74523E-02
    9101.070    102.593   5.440  9.37081E-01  9.92282E-01 -5.52011E-02
    9102.734    104.258   5.480  9.20974E-01  9.92658E-01 -7.16837E-02
    9104.410    105.934   5.520  9.07611E-01  9.93023E-01 -8.54118E-02
    9106.099    107.623   5.560  8.97906E-01  9.93352E-01 -9.54463E-02
    9107.800    109.323   5.600  8.92526E-01  9.93642E-01 -1.01115E-01
    9109.513    111.036   5.640  8.91960E-01  9.93893E-01 -1.01933E-01
    9111.238    112.761   5.680  8.96356E-01  9.94108E-01 -9.77520E-02
    9112.975    114.499   5.720  9.05574E-01  9.94305E-01 -8.87302E-02
    9114.725    116.248   5.760  9.19244E-01  9.94439E-01 -7.51948E-02
    9116.487    118.010   5.800  9.36803E-01  9.94533E-01 -5.77298E-02
    9118.260    119.784   5.840  9.57261E-01  9.94610E-01 -3.73487E-02
    9120.047    121.570   5.880  9.79034E-01  9.94624E-01 -1.55892E-02
    9121.845    123.368   5.920  1.00019E+00  9.94593E-01  5.59393E-03
    9123.655    125.179   5.960  1.01849E+00  9.94516E-01  2.39717E-02
    9125.478    127.002   6.000  1.03159E+00  9.94369E-01  3.72238E-02
