# # comment:                                                     FEFF 9.9.1  
# # Source:
# # Structure
# # Reduced
# # space
# # abc:
# # angles:108.672349
# # sites:
# # POT  SCF 100  7.0000   0, screened core-hole, AFOLP (folp(0)= 1.150)
# # Abs   Z=29 Rmt= 1.249 Rnm= 1.367 K  shell
# # Pot 1 Z=29 Rmt= 1.294 Rnm= 1.377
# # Pot 2 Z= 8 Rmt= 0.984 Rnm= 1.115
# # Pot 3 Z= 9 Rmt= 1.070 Rnm= 1.147
# # Gam_ch=1.729E+00 H-L exch Vi= 0.000E+00 Vr= 0.000E+00
# # Mu=-6.858E+00eV kf=2.019E+00 Vint=-1.291E+01eV Rs_int= 1.796
# FMS rfms= 9.0000
# # PATH  Rmax=-1.000,  Keep_limit= 0.00, Heap_limit 0.00  Pwcrit= 2.50%
#  S02=0.950  Temp=   0.00  Debye_temp=   0.00  Global_sig2= 0.00000
#  Energy zero shift, vr, vi    0.00000E+00   0.00000E+00
#  Curved wave amplitude ratio filter   4.000%
#     file         sig2 tot  cw amp ratio   deg  nlegs   reff  inp sig2
#     0/   0 paths used
#  xsedge+ 50, used to normalize mu           2.4243E-04
#  -----------------------------------------------------------------------
#  omega    e    k    mu    mu0     chi     @#
    8983.341    -10.667  -1.000  3.56040E-02  5.47942E-02 -1.91902E-02
    8983.640    -10.369  -0.960  3.71909E-02  5.87066E-02 -2.15157E-02
    8983.927    -10.082  -0.920  3.88638E-02  6.30415E-02 -2.41778E-02
    8984.201     -9.808  -0.880  4.06286E-02  6.78594E-02 -2.72308E-02
    8984.463     -9.546  -0.840  4.24919E-02  7.32303E-02 -3.07384E-02
    8984.713     -9.296  -0.800  4.44607E-02  7.92351E-02 -3.47744E-02
    8984.951     -9.058  -0.760  4.65427E-02  8.59663E-02 -3.94236E-02
    8985.176     -8.833  -0.720  4.87463E-02  9.35281E-02 -4.47818E-02
    8985.390     -8.619  -0.680  5.10798E-02  1.02035E-01 -5.09549E-02
    8985.591     -8.418  -0.640  5.35515E-02  1.11606E-01 -5.80547E-02
    8985.780     -8.229  -0.600  5.61677E-02  1.22360E-01 -6.61921E-02
    8985.956     -8.052  -0.560  5.89318E-02  1.34395E-01 -7.54632E-02
    8986.121     -7.888  -0.520  6.18406E-02  1.47769E-01 -8.59288E-02
    8986.273     -7.735  -0.480  6.48808E-02  1.62467E-01 -9.75857E-02
    8986.414     -7.595  -0.440  6.80247E-02  1.78359E-01 -1.10334E-01
    8986.542     -7.467  -0.400  7.12265E-02  1.95175E-01 -1.23949E-01
    8986.658     -7.351  -0.360  7.44217E-02  2.12491E-01 -1.38070E-01
    8986.761     -7.248  -0.320  7.75314E-02  2.29756E-01 -1.52225E-01
    8986.853     -7.156  -0.280  8.04706E-02  2.46356E-01 -1.65885E-01
    8986.932     -7.077  -0.240  8.31587E-02  2.61696E-01 -1.78537E-01
    8986.999     -7.010  -0.200  8.55277E-02  2.75274E-01 -1.89747E-01
    8987.054     -6.955  -0.160  8.75260E-02  2.86718E-01 -1.99192E-01
    8987.096     -6.912  -0.120  8.91166E-02  2.95781E-01 -2.06664E-01
    8987.127     -6.882  -0.080  9.02748E-02  3.02321E-01 -2.12046E-01
    8987.151     -6.858   0.000  9.12290E-02  3.07585E-01 -2.16356E-01
    8987.206     -6.803   0.120  9.34436E-02  3.19465E-01 -2.26022E-01
    8987.249     -6.760   0.160  9.51315E-02  3.28730E-01 -2.33598E-01
    8987.304     -6.705   0.200  9.72581E-02  3.40582E-01 -2.43324E-01
    8987.371     -6.638   0.240  9.98641E-02  3.54918E-01 -2.55054E-01
    8987.450     -6.559   0.280  1.02932E-01  3.71504E-01 -2.68572E-01
    8987.541     -6.467   0.320  1.06426E-01  3.89943E-01 -2.83516E-01
    8987.645     -6.364   0.360  1.10404E-01  4.09807E-01 -2.99403E-01
    8987.761     -6.248   0.400  1.14924E-01  4.30593E-01 -3.15669E-01
    8987.889     -6.120   0.440  1.20097E-01  4.51835E-01 -3.31737E-01
    8988.029     -5.980   0.480  1.26145E-01  4.73185E-01 -3.47041E-01
    8988.182     -5.827   0.520  1.33332E-01  4.94400E-01 -3.61069E-01
    8988.346     -5.663   0.560  1.41995E-01  5.15351E-01 -3.73356E-01
    8988.523     -5.486   0.600  1.52414E-01  5.35978E-01 -3.83564E-01
    8988.712     -5.297   0.640  1.64872E-01  5.56318E-01 -3.91447E-01
    8988.913     -5.096   0.680  1.79548E-01  5.76418E-01 -3.96871E-01
    8989.126     -4.882   0.720  1.96264E-01  5.96292E-01 -4.00028E-01
    8989.352     -4.657   0.760  2.14610E-01  6.16010E-01 -4.01400E-01
    8989.590     -4.419   0.800  2.33959E-01  6.35553E-01 -4.01594E-01
    8989.840     -4.169   0.840  2.53909E-01  6.54991E-01 -4.01082E-01
    8990.102     -3.907   0.880  2.74353E-01  6.74276E-01 -3.99923E-01
    8990.376     -3.633   0.920  2.95420E-01  6.93410E-01 -3.97990E-01
    8990.663     -3.346   0.960  3.17330E-01  7.12366E-01 -3.95036E-01
    8990.961     -3.048   1.000  3.40636E-01  7.31084E-01 -3.90447E-01
    8991.272     -2.737   1.040  3.66738E-01  7.49538E-01 -3.82800E-01
    8991.595     -2.414   1.080  3.97998E-01  7.67657E-01 -3.69659E-01
    8991.931     -2.078   1.120  4.36832E-01  7.85385E-01 -3.48552E-01
    8992.278     -1.731   1.160  4.84576E-01  8.02684E-01 -3.18108E-01
    8992.638     -1.371   1.200  5.40319E-01  8.19494E-01 -2.79175E-01
    8993.010     -0.999   1.240  5.99742E-01  8.35757E-01 -2.36014E-01
    8993.394     -0.615   1.280  6.56192E-01  8.51410E-01 -1.95217E-01
    8993.790     -0.219   1.320  7.07860E-01  8.66437E-01 -1.58577E-01
    8994.198      0.189   1.360  7.61631E-01  8.80761E-01 -1.19130E-01
    8994.619      0.610   1.400  8.24690E-01  8.94369E-01 -6.96784E-02
    8995.052      1.043   1.440  8.95976E-01  9.07229E-01 -1.12534E-02
    8995.497      1.488   1.480  9.68948E-01  9.19335E-01  4.96128E-02
    8995.954      1.945   1.520  1.03719E+00  9.30641E-01  1.06547E-01
    8996.423      2.414   1.560  1.09727E+00  9.41166E-01  1.56108E-01
    8996.905      2.896   1.600  1.15315E+00  9.50913E-01  2.02241E-01
    8997.399      3.390   1.640  1.21070E+00  9.59884E-01  2.50815E-01
    8997.905      3.896   1.680  1.26302E+00  9.68067E-01  2.94954E-01
    8998.423      4.414   1.720  1.29729E+00  9.75492E-01  3.21793E-01
    8998.953      4.944   1.760  1.31156E+00  9.82213E-01  3.29346E-01
    8999.496      5.487   1.800  1.31496E+00  9.88200E-01  3.26761E-01
    9000.050      6.042   1.840  1.32375E+00  9.93512E-01  3.30234E-01
    9000.617      6.608   1.880  1.34437E+00  9.98183E-01  3.46185E-01
    9001.196      7.188   1.920  1.35928E+00  1.00223E+00  3.57051E-01
    9001.788      7.779   1.960  1.35549E+00  1.00572E+00  3.49774E-01
    9002.391      8.382   2.000  1.33683E+00  1.00866E+00  3.28165E-01
    9003.007      8.998   2.040  1.30422E+00  1.01108E+00  2.93137E-01
    9003.635      9.626   2.080  1.26261E+00  1.01306E+00  2.49555E-01
    9004.275     10.266   2.120  1.21862E+00  1.01459E+00  2.04036E-01
    9004.927     10.918   2.160  1.17328E+00  1.01573E+00  1.57550E-01
    9005.592     11.583   2.200  1.12904E+00  1.01651E+00  1.12529E-01
    9006.268     12.259   2.240  1.08999E+00  1.01697E+00  7.30198E-02
    9006.957     12.948   2.280  1.05629E+00  1.01715E+00  3.91437E-02
    9007.658     13.649   2.320  1.02595E+00  1.01705E+00  8.90279E-03
    9008.371     14.363   2.360  9.98839E-01  1.01675E+00 -1.79095E-02
    9009.097     15.088   2.400  9.75214E-01  1.01623E+00 -4.10124E-02
    9009.834     15.826   2.440  9.62430E-01  1.01556E+00 -5.31250E-02
    9010.584     16.575   2.480  9.62986E-01  1.01473E+00 -5.17414E-02
    9011.346     17.337   2.520  9.69970E-01  1.01380E+00 -4.38285E-02
    9012.120     18.112   2.560  9.78232E-01  1.01276E+00 -3.45245E-02
    9012.907     18.898   2.600  9.85250E-01  1.01163E+00 -2.63845E-02
    9013.705     19.697   2.640  9.89857E-01  1.01046E+00 -2.06068E-02
    9014.516     20.507   2.680  9.91267E-01  1.00927E+00 -1.80061E-02
    9015.339     21.330   2.720  9.89066E-01  1.00805E+00 -1.89856E-02
    9016.174     22.165   2.760  9.83684E-01  1.00683E+00 -2.31424E-02
    9017.022     23.013   2.800  9.76032E-01  1.00560E+00 -2.95716E-02
    9017.881     23.872   2.840  9.67337E-01  1.00441E+00 -3.70752E-02
    9018.753     24.744   2.880  9.58469E-01  1.00326E+00 -4.47872E-02
    9019.637     25.628   2.920  9.49862E-01  1.00212E+00 -5.22590E-02
    9020.533     26.524   2.960  9.41888E-01  1.00107E+00 -5.91852E-02
    9021.441     27.432   3.000  9.34644E-01  1.00006E+00 -6.54109E-02
    9022.362     28.353   3.040  9.28249E-01  9.99131E-01 -7.08822E-02
    9023.294     29.286   3.080  9.22795E-01  9.98263E-01 -7.54683E-02
    9024.239     30.230   3.120  9.18508E-01  9.97475E-01 -7.89664E-02
    9025.196     31.187   3.160  9.15429E-01  9.96768E-01 -8.13396E-02
    9026.166     32.157   3.200  9.13521E-01  9.96145E-01 -8.26245E-02
    9027.147     33.138   3.240  9.12820E-01  9.95629E-01 -8.28093E-02
    9028.141     34.132   3.280  9.13161E-01  9.95199E-01 -8.20378E-02
    9029.146     35.138   3.320  9.14455E-01  9.94854E-01 -8.03986E-02
    9030.164     36.156   3.360  9.16723E-01  9.94596E-01 -7.78732E-02
    9031.195     37.186   3.400  9.20163E-01  9.94446E-01 -7.42837E-02
    9032.237     38.228   3.440  9.24903E-01  9.94361E-01 -6.94581E-02
    9033.292     39.283   3.480  9.31153E-01  9.94406E-01 -6.32531E-02
    9034.359     40.350   3.520  9.38896E-01  9.94516E-01 -5.56204E-02
    9035.438     41.429   3.560  9.48239E-01  9.94730E-01 -4.64914E-02
    9036.529     42.520   3.600  9.59175E-01  9.95008E-01 -3.58329E-02
    9037.632     43.623   3.640  9.71619E-01  9.95389E-01 -2.37706E-02
    9038.748     44.739   3.680  9.85132E-01  9.95853E-01 -1.07202E-02
    9039.875     45.867   3.720  9.98985E-01  9.96394E-01  2.59190E-03
    9041.015     47.007   3.760  1.01225E+00  9.96989E-01  1.52616E-02
    9042.167     48.159   3.800  1.02401E+00  9.97660E-01  2.63548E-02
    9043.332     49.323   3.840  1.03349E+00  9.98405E-01  3.50880E-02
    9044.508     50.500   3.880  1.04028E+00  9.99198E-01  4.10785E-02
    9045.697     51.688   3.920  1.04443E+00  1.00004E+00  4.43904E-02
    9046.898     52.889   3.960  1.04642E+00  1.00094E+00  4.54773E-02
    9048.111     54.102   4.000  1.04692E+00  1.00189E+00  4.50261E-02
    9049.336     55.328   4.040  1.04668E+00  1.00288E+00  4.38040E-02
    9050.574     56.565   4.080  1.04622E+00  1.00388E+00  4.23418E-02
    9051.823     57.815   4.120  1.04589E+00  1.00491E+00  4.09725E-02
    9053.085     59.077   4.160  1.04598E+00  1.00598E+00  4.00004E-02
    9054.359     60.351   4.200  1.04682E+00  1.00705E+00  3.97644E-02
    9055.646     61.637   4.240  1.04865E+00  1.00815E+00  4.04924E-02
    9056.944     62.935   4.280  1.05128E+00  1.00923E+00  4.20499E-02
    9058.255     64.246   4.320  1.05415E+00  1.01033E+00  4.38150E-02
    9059.578     65.569   4.360  1.05626E+00  1.01141E+00  4.48569E-02
    9060.913     66.904   4.400  1.05690E+00  1.01250E+00  4.44085E-02
    9062.260     68.251   4.440  1.05567E+00  1.01353E+00  4.21371E-02
    9063.619     69.610   4.480  1.05279E+00  1.01456E+00  3.82368E-02
    9064.991     70.982   4.520  1.04881E+00  1.01556E+00  3.32454E-02
    9066.375     72.366   4.560  1.04433E+00  1.01651E+00  2.78178E-02
    9067.771     73.762   4.600  1.03995E+00  1.01745E+00  2.25085E-02
    9069.179     75.170   4.640  1.03602E+00  1.01833E+00  1.76857E-02
    9070.599     76.590   4.680  1.03270E+00  1.01916E+00  1.35433E-02
    9072.032     78.023   4.720  1.03006E+00  1.01995E+00  1.01011E-02
    9073.476     79.468   4.760  1.02790E+00  1.02068E+00  7.21375E-03
    9074.933     80.925   4.800  1.02606E+00  1.02136E+00  4.70122E-03
    9076.402     82.394   4.840  1.02444E+00  1.02197E+00  2.47225E-03
    9077.884     83.875   4.880  1.02306E+00  1.02252E+00  5.39463E-04
    9079.377     85.368   4.920  1.02191E+00  1.02300E+00 -1.09434E-03
    9080.883     86.874   4.960  1.02088E+00  1.02343E+00 -2.54791E-03
    9082.401     88.392   5.000  1.01971E+00  1.02378E+00 -4.06459E-03
    9083.931     89.922   5.040  1.01804E+00  1.02405E+00 -6.01176E-03
    9085.473     91.464   5.080  1.01542E+00  1.02427E+00 -8.85222E-03
    9087.028     93.019   5.120  1.01151E+00  1.02441E+00 -1.28983E-02
    9088.594     94.586   5.160  1.00647E+00  1.02447E+00 -1.80058E-02
    9090.173     96.164   5.200  1.00105E+00  1.02448E+00 -2.34332E-02
    9091.764     97.756   5.240  9.96330E-01  1.02441E+00 -2.80828E-02
    9093.368     99.359   5.280  9.93345E-01  1.02427E+00 -3.09251E-02
    9094.983    100.974   5.320  9.92671E-01  1.02408E+00 -3.14052E-02
    9096.611    102.602   5.360  9.94203E-01  1.02383E+00 -2.96295E-02
    9098.250    104.242   5.400  9.97252E-01  1.02352E+00 -2.62646E-02
    9099.902    105.894   5.440  1.00088E+00  1.02315E+00 -2.22649E-02
    9101.567    107.558   5.480  1.00409E+00  1.02271E+00 -1.86196E-02
    9103.243    109.234   5.520  1.00603E+00  1.02223E+00 -1.61996E-02
    9104.932    110.923   5.560  1.00614E+00  1.02170E+00 -1.55542E-02
    9106.632    112.624   5.600  1.00432E+00  1.02110E+00 -1.67790E-02
    9108.345    114.337   5.640  1.00098E+00  1.02049E+00 -1.95042E-02
    9110.071    116.062   5.680  9.96836E-01  1.01984E+00 -2.29998E-02
    9111.808    117.799   5.720  9.92781E-01  1.01914E+00 -2.63640E-02
    9113.557    119.549   5.760  9.89679E-01  1.01842E+00 -2.87374E-02
    9115.319    121.310   5.800  9.88080E-01  1.01765E+00 -2.95753E-02
    9117.093    123.084   5.840  9.88040E-01  1.01689E+00 -2.88464E-02
    9118.879    124.870   5.880  9.89126E-01  1.01609E+00 -2.69678E-02
    9120.678    126.669   5.920  9.90827E-01  1.01530E+00 -2.44768E-02
    9122.488    128.479   5.960  9.92843E-01  1.01453E+00 -2.16855E-02
    9124.311    130.302   6.000  9.95456E-01  1.01371E+00 -1.82590E-02
