# # comment:                                                     FEFF 9.9.1  
# # Source:
# # Structure
# # Reduced
# # space
# # abc:
# # angles:108.685853
# # sites:
# # POT  SCF 100  7.0000   0, screened core-hole, AFOLP (folp(0)= 1.150)
# # Abs   Z=29 Rmt= 1.200 Rnm= 1.369 K  shell
# # Pot 1 Z=29 Rmt= 1.200 Rnm= 1.369
# # Pot 2 Z=83 Rmt= 1.638 Rnm= 1.713
# # Pot 3 Z=74 Rmt= 1.272 Rnm= 1.434
# # Pot 4 Z= 8 Rmt= 0.967 Rnm= 1.074
# # Gam_ch=1.729E+00 H-L exch Vi= 0.000E+00 Vr= 0.000E+00
# # Mu=-5.735E+00eV kf=2.238E+00 Vint=-1.600E+01eV Rs_int= 1.621
# FMS rfms= 9.0000
# # PATH  Rmax=-1.000,  Keep_limit= 0.00, Heap_limit 0.00  Pwcrit= 2.50%
#  S02=0.950  Temp=   0.00  Debye_temp=   0.00  Global_sig2= 0.00000
#  Energy zero shift, vr, vi    0.00000E+00   0.00000E+00
#  Curved wave amplitude ratio filter   4.000%
#     file         sig2 tot  cw amp ratio   deg  nlegs   reff  inp sig2
#     0/   0 paths used
#  xsedge+ 50, used to normalize mu           2.4765E-04
#  -----------------------------------------------------------------------
#  omega    e    k    mu    mu0     chi     @#
    8983.328     -9.545  -1.000  5.37448E-02  5.57149E-02 -1.97004E-03
    8983.626     -9.246  -0.960  5.77140E-02  5.98349E-02 -2.12093E-03
    8983.913     -8.960  -0.920  6.21423E-02  6.44204E-02 -2.27817E-03
    8984.187     -8.685  -0.880  6.71009E-02  6.95407E-02 -2.43976E-03
    8984.449     -8.423  -0.840  7.26737E-02  7.52764E-02 -2.60264E-03
    8984.699     -8.173  -0.800  7.89588E-02  8.17211E-02 -2.76238E-03
    8984.937     -7.936  -0.760  8.60697E-02  8.89825E-02 -2.91281E-03
    8985.163     -7.710  -0.720  9.41365E-02  9.71822E-02 -3.04569E-03
    8985.376     -7.497  -0.680  1.03304E-01  1.06454E-01 -3.15046E-03
    8985.577     -7.295  -0.640  1.13726E-01  1.16940E-01 -3.21441E-03
    8985.766     -7.106  -0.600  1.25557E-01  1.28780E-01 -3.22340E-03
    8985.943     -6.930  -0.560  1.38929E-01  1.42093E-01 -3.16383E-03
    8986.107     -6.765  -0.520  1.53924E-01  1.56950E-01 -3.02599E-03
    8986.260     -6.613  -0.480  1.70528E-01  1.73337E-01 -2.80917E-03
    8986.400     -6.473  -0.440  1.88582E-01  1.91109E-01 -2.52743E-03
    8986.528     -6.345  -0.400  2.07742E-01  2.09956E-01 -2.21372E-03
    8986.644     -6.229  -0.360  2.27467E-01  2.29386E-01 -1.91890E-03
    8986.748     -6.125  -0.320  2.47061E-01  2.48763E-01 -1.70259E-03
    8986.839     -6.034  -0.280  2.65763E-01  2.67380E-01 -1.61723E-03
    8986.918     -5.954  -0.240  2.82868E-01  2.84559E-01 -1.69094E-03
    8986.985     -5.887  -0.200  2.97817E-01  2.99734E-01 -1.91711E-03
    8987.040     -5.832  -0.160  3.10235E-01  3.12491E-01 -2.25566E-03
    8987.083     -5.790  -0.120  3.19924E-01  3.22570E-01 -2.64564E-03
    8987.113     -5.759  -0.080  3.26805E-01  3.29827E-01 -3.02107E-03
    8987.138     -5.735   0.000  3.32200E-01  3.35654E-01 -3.45358E-03
    8987.193     -5.680   0.120  3.44420E-01  3.48797E-01 -4.37693E-03
    8987.235     -5.637   0.160  3.53848E-01  3.58990E-01 -5.14160E-03
    8987.290     -5.583   0.200  3.65705E-01  3.71993E-01 -6.28846E-03
    8987.357     -5.515   0.240  3.79624E-01  3.87616E-01 -7.99130E-03
    8987.436     -5.436   0.280  3.95031E-01  4.05508E-01 -1.04769E-02
    8987.528     -5.345   0.320  4.11191E-01  4.25213E-01 -1.40223E-02
    8987.631     -5.241   0.360  4.27202E-01  4.46119E-01 -1.89165E-02
    8987.747     -5.125   0.400  4.42220E-01  4.67597E-01 -2.53765E-02
    8987.875     -4.997   0.440  4.55628E-01  4.89054E-01 -3.34262E-02
    8988.016     -4.857   0.480  4.67306E-01  5.10050E-01 -4.27444E-02
    8988.168     -4.705   0.520  4.77722E-01  5.30283E-01 -5.25609E-02
    8988.333     -4.540   0.560  4.87960E-01  5.49622E-01 -6.16620E-02
    8988.509     -4.363   0.600  4.99541E-01  5.68037E-01 -6.84969E-02
    8988.698     -4.174   0.640  5.14147E-01  5.85613E-01 -7.14656E-02
    8988.899     -3.973   0.680  5.33028E-01  6.02393E-01 -6.93653E-02
    8989.113     -3.760   0.720  5.56650E-01  6.18520E-01 -6.18696E-02
    8989.338     -3.534   0.760  5.84491E-01  6.34071E-01 -4.95794E-02
    8989.576     -3.297   0.800  6.15622E-01  6.49178E-01 -3.35552E-02
    8989.826     -3.047   0.840  6.48948E-01  6.63875E-01 -1.49268E-02
    8990.088     -2.784   0.880  6.83274E-01  6.78264E-01  5.00934E-03
    8990.362     -2.510   0.920  7.16882E-01  6.92375E-01  2.45078E-02
    8990.649     -2.224   0.960  7.47192E-01  7.06238E-01  4.09540E-02
    8990.948     -1.925   1.000  7.69625E-01  7.19899E-01  4.97263E-02
    8991.259     -1.614   1.040  7.76658E-01  7.33369E-01  4.32889E-02
    8991.582     -1.291   1.080  7.62434E-01  7.46654E-01  1.57799E-02
    8991.917     -0.956   1.120  7.31787E-01  7.59730E-01 -2.79437E-02
    8992.264     -0.608   1.160  6.97079E-01  7.72612E-01 -7.55330E-02
    8992.624     -0.249   1.200  6.65239E-01  7.85307E-01 -1.20069E-01
    8992.996      0.123   1.240  6.36770E-01  7.97758E-01 -1.60988E-01
    8993.380      0.507   1.280  6.13602E-01  8.09986E-01 -1.96384E-01
    8993.776      0.904   1.320  6.02248E-01  8.21952E-01 -2.19704E-01
    8994.185      1.312   1.360  6.08349E-01  8.33633E-01 -2.25284E-01
    8994.605      1.733   1.400  6.30317E-01  8.45045E-01 -2.14728E-01
    8995.038      2.165   1.440  6.60610E-01  8.56123E-01 -1.95513E-01
    8995.483      2.610   1.480  6.91707E-01  8.66882E-01 -1.75175E-01
    8995.940      3.068   1.520  7.20289E-01  8.77299E-01 -1.57010E-01
    8996.410      3.537   1.560  7.48808E-01  8.87348E-01 -1.38540E-01
    8996.891      4.019   1.600  7.81547E-01  8.97026E-01 -1.15479E-01
    8997.385      4.512   1.640  8.20179E-01  9.06306E-01 -8.61276E-02
    8997.891      5.018   1.680  8.67535E-01  9.15187E-01 -4.76519E-02
    8998.409      5.537   1.720  9.26091E-01  9.23667E-01  2.42463E-03
    8998.939      6.067   1.760  9.86274E-01  9.31722E-01  5.45522E-02
    8999.482      6.609   1.800  1.03261E+00  9.39372E-01  9.32379E-02
    9000.037      7.164   1.840  1.06388E+00  9.46578E-01  1.17304E-01
    9000.604      7.731   1.880  1.09266E+00  9.53379E-01  1.39277E-01
    9001.183      8.310   1.920  1.12382E+00  9.59758E-01  1.64059E-01
    9001.774      8.902   1.960  1.14270E+00  9.65697E-01  1.77006E-01
    9002.378      9.505   2.000  1.13368E+00  9.71237E-01  1.62443E-01
    9002.993     10.121   2.040  1.10364E+00  9.76364E-01  1.27280E-01
    9003.621     10.749   2.080  1.07323E+00  9.81082E-01  9.21500E-02
    9004.261     11.389   2.120  1.05467E+00  9.85416E-01  6.92494E-02
    9004.914     12.041   2.160  1.04164E+00  9.89374E-01  5.22648E-02
    9005.578     12.705   2.200  1.02015E+00  9.92959E-01  2.71864E-02
    9006.255     13.382   2.240  9.93582E-01  9.96179E-01 -2.59694E-03
    9006.944     14.071   2.280  9.79653E-01  9.99063E-01 -1.94098E-02
    9007.645     14.772   2.320  9.87731E-01  1.00162E+00 -1.38853E-02
    9008.358     15.485   2.360  1.01510E+00  1.00387E+00  1.12314E-02
    9009.083     16.211   2.400  1.05490E+00  1.00580E+00  4.90967E-02
    9009.821     16.948   2.440  1.10482E+00  1.00745E+00  9.73695E-02
    9010.571     17.698   2.480  1.16051E+00  1.00884E+00  1.51671E-01
    9011.333     18.460   2.520  1.20472E+00  1.00998E+00  1.94734E-01
    9012.107     19.234   2.560  1.22467E+00  1.01086E+00  2.13812E-01
    9012.893     20.021   2.600  1.22563E+00  1.01154E+00  2.14091E-01
    9013.692     20.819   2.640  1.21257E+00  1.01202E+00  2.00548E-01
    9014.503     21.630   2.680  1.18295E+00  1.01230E+00  1.70655E-01
    9015.325     22.453   2.720  1.14372E+00  1.01238E+00  1.31333E-01
    9016.161     23.288   2.760  1.10414E+00  1.01233E+00  9.18082E-02
    9017.008     24.135   2.800  1.06973E+00  1.01214E+00  5.75970E-02
    9017.867     24.995   2.840  1.04202E+00  1.01180E+00  3.02256E-02
    9018.739     25.867   2.880  1.02056E+00  1.01133E+00  9.22313E-03
    9019.623     26.751   2.920  1.00354E+00  1.01078E+00 -7.23676E-03
    9020.519     27.647   2.960  9.89164E-01  1.01011E+00 -2.09425E-02
    9021.428     28.555   3.000  9.76506E-01  1.00936E+00 -3.28494E-02
    9022.348     29.475   3.040  9.65139E-01  1.00855E+00 -4.34089E-02
    9023.281     30.408   3.080  9.54870E-01  1.00769E+00 -5.28192E-02
    9024.226     31.353   3.120  9.45512E-01  1.00676E+00 -6.12525E-02
    9025.183     32.310   3.160  9.36904E-01  1.00580E+00 -6.88933E-02
    9026.152     33.279   3.200  9.29104E-01  1.00481E+00 -7.57100E-02
    9027.133     34.261   3.240  9.22419E-01  1.00380E+00 -8.13774E-02
    9028.127     35.254   3.280  9.17106E-01  1.00275E+00 -8.56430E-02
    9029.133     36.260   3.320  9.13180E-01  1.00172E+00 -8.85391E-02
    9030.151     37.278   3.360  9.10353E-01  1.00069E+00 -9.03351E-02
    9031.181     38.309   3.400  9.08197E-01  9.99660E-01 -9.14633E-02
    9032.224     39.351   3.440  9.06129E-01  9.98637E-01 -9.25076E-02
    9033.278     40.406   3.480  9.03753E-01  9.97641E-01 -9.38886E-02
    9034.345     41.472   3.520  9.01135E-01  9.96656E-01 -9.55201E-02
    9035.424     42.551   3.560  8.98893E-01  9.95703E-01 -9.68106E-02
    9036.515     43.642   3.600  8.98002E-01  9.94787E-01 -9.67849E-02
    9037.618     44.746   3.640  8.99601E-01  9.93908E-01 -9.43069E-02
    9038.734     45.861   3.680  9.04460E-01  9.93068E-01 -8.86082E-02
    9039.862     46.989   3.720  9.12716E-01  9.92268E-01 -7.95523E-02
    9041.002     48.129   3.760  9.24063E-01  9.91508E-01 -6.74447E-02
    9042.154     49.281   3.800  9.37931E-01  9.90789E-01 -5.28587E-02
    9043.318     50.446   3.840  9.53548E-01  9.90115E-01 -3.65665E-02
    9044.495     51.622   3.880  9.70088E-01  9.89506E-01 -1.94181E-02
    9045.683     52.811   3.920  9.86760E-01  9.88943E-01 -2.18260E-03
    9046.884     54.012   3.960  1.00265E+00  9.88445E-01  1.42093E-02
    9048.097     55.225   4.000  1.01672E+00  9.87971E-01  2.87497E-02
    9049.323     56.450   4.040  1.02815E+00  9.87563E-01  4.05919E-02
    9050.560     57.688   4.080  1.03631E+00  9.87200E-01  4.91107E-02
    9051.810     58.937   4.120  1.04101E+00  9.86904E-01  5.41084E-02
    9053.072     60.199   4.160  1.04248E+00  9.86652E-01  5.58292E-02
    9054.346     61.473   4.200  1.04118E+00  9.86445E-01  5.47313E-02
    9055.632     62.759   4.240  1.03769E+00  9.86282E-01  5.14050E-02
    9056.931     64.058   4.280  1.03273E+00  9.86182E-01  4.65526E-02
    9058.241     65.369   4.320  1.02710E+00  9.86125E-01  4.09732E-02
    9059.564     66.691   4.360  1.02152E+00  9.86088E-01  3.54298E-02
    9060.899     68.026   4.400  1.01667E+00  9.86112E-01  3.05531E-02
    9062.246     69.374   4.440  1.01292E+00  9.86178E-01  2.67437E-02
    9063.606     70.733   4.480  1.01043E+00  9.86284E-01  2.41421E-02
    9064.977     72.105   4.520  1.00908E+00  9.86429E-01  2.26553E-02
    9066.361     73.488   4.560  1.00864E+00  9.86611E-01  2.20268E-02
    9067.757     74.884   4.600  1.00872E+00  9.86829E-01  2.18924E-02
    9069.165     76.293   4.640  1.00893E+00  9.87060E-01  2.18670E-02
    9070.585     77.713   4.680  1.00895E+00  9.87324E-01  2.16218E-02
    9072.018     79.145   4.720  1.00855E+00  9.87620E-01  2.09282E-02
    9073.463     80.590   4.760  1.00759E+00  9.87926E-01  1.96634E-02
    9074.920     82.047   4.800  1.00615E+00  9.88261E-01  1.78928E-02
    9076.389     83.516   4.840  1.00455E+00  9.88603E-01  1.59456E-02
    9077.870     84.998   4.880  1.00325E+00  9.88949E-01  1.42968E-02
    9079.364     86.491   4.920  1.00273E+00  9.89322E-01  1.34119E-02
    9080.869     87.997   4.960  1.00324E+00  9.89697E-01  1.35477E-02
    9082.387     89.515   5.000  1.00469E+00  9.90072E-01  1.46193E-02
    9083.917     91.045   5.040  1.00663E+00  9.90425E-01  1.62090E-02
    9085.460     92.587   5.080  1.00852E+00  9.90798E-01  1.77261E-02
    9087.014     94.142   5.120  1.00983E+00  9.91170E-01  1.86625E-02
    9088.581     95.708   5.160  1.01024E+00  9.91540E-01  1.86960E-02
    9090.160     97.287   5.200  1.00955E+00  9.91884E-01  1.76688E-02
    9091.751     98.878   5.240  1.00780E+00  9.92243E-01  1.55539E-02
    9093.354    100.481   5.280  1.00502E+00  9.92552E-01  1.24664E-02
    9094.969    102.097   5.320  1.00152E+00  9.92873E-01  8.64900E-03
    9096.597    103.724   5.360  9.97528E-01  9.93164E-01  4.36424E-03
    9098.237    105.364   5.400  9.93194E-01  9.93421E-01 -2.27419E-04
    9099.889    107.016   5.440  9.88556E-01  9.93669E-01 -5.11278E-03
    9101.553    108.680   5.480  9.83479E-01  9.93883E-01 -1.04040E-02
    9103.229    110.357   5.520  9.77811E-01  9.94085E-01 -1.62733E-02
    9104.918    112.045   5.560  9.71437E-01  9.94252E-01 -2.28150E-02
    9106.619    113.746   5.600  9.64542E-01  9.94383E-01 -2.98413E-02
    9108.332    115.459   5.640  9.57675E-01  9.94477E-01 -3.68025E-02
    9110.057    117.184   5.680  9.51693E-01  9.94558E-01 -4.28650E-02
    9111.794    118.922   5.720  9.47469E-01  9.94604E-01 -4.71347E-02
    9113.544    120.671   5.760  9.45753E-01  9.94611E-01 -4.88578E-02
    9115.306    122.433   5.800  9.46969E-01  9.94580E-01 -4.76104E-02
    9117.079    124.207   5.840  9.51101E-01  9.94510E-01 -4.34088E-02
    9118.866    125.993   5.880  9.57748E-01  9.94404E-01 -3.66564E-02
    9120.664    127.791   5.920  9.66255E-01  9.94288E-01 -2.80327E-02
    9122.474    129.602   5.960  9.75669E-01  9.94133E-01 -1.84643E-02
    9124.297    131.425   6.000  9.84911E-01  9.93890E-01 -8.97899E-03
