# # comment:                                                     FEFF 9.9.1  
# # Source:
# # Structure
# # Reduced
# # space
# # abc:
# # angles:108.672349
# # sites:
# # POT  SCF 100  7.0000   0, screened core-hole, AFOLP (folp(0)= 1.150)
# # Abs   Z=29 Rmt= 1.252 Rnm= 1.364 K  shell
# # Pot 1 Z=29 Rmt= 1.242 Rnm= 1.354
# # Pot 2 Z= 8 Rmt= 1.031 Rnm= 1.129
# # Pot 3 Z= 9 Rmt= 1.061 Rnm= 1.130
# # Gam_ch=1.729E+00 H-L exch Vi= 0.000E+00 Vr= 0.000E+00
# # Mu=-7.066E+00eV kf=2.021E+00 Vint=-1.326E+01eV Rs_int= 1.794
# FMS rfms= 9.0000
# # PATH  Rmax=-1.000,  Keep_limit= 0.00, Heap_limit 0.00  Pwcrit= 2.50%
#  S02=0.950  Temp=   0.00  Debye_temp=   0.00  Global_sig2= 0.00000
#  Energy zero shift, vr, vi    0.00000E+00   0.00000E+00
#  Curved wave amplitude ratio filter   4.000%
#     file         sig2 tot  cw amp ratio   deg  nlegs   reff  inp sig2
#     0/   0 paths used
#  xsedge+ 50, used to normalize mu           2.4286E-04
#  -----------------------------------------------------------------------
#  omega    e    k    mu    mu0     chi     @#
    8983.398    -10.876  -1.000  3.50784E-02  5.49075E-02 -1.98292E-02
    8983.697    -10.577  -0.960  3.66100E-02  5.88355E-02 -2.22254E-02
    8983.984    -10.291  -0.920  3.82217E-02  6.31887E-02 -2.49670E-02
    8984.258    -10.016  -0.880  3.99184E-02  6.80280E-02 -2.81096E-02
    8984.520     -9.754  -0.840  4.17062E-02  7.34243E-02 -3.17180E-02
    8984.770     -9.504  -0.800  4.35914E-02  7.94591E-02 -3.58676E-02
    8985.008     -9.267  -0.760  4.55811E-02  8.62258E-02 -4.06447E-02
    8985.233     -9.041  -0.720  4.76829E-02  9.38296E-02 -4.61467E-02
    8985.447     -8.828  -0.680  4.99046E-02  1.02386E-01 -5.24813E-02
    8985.648     -8.627  -0.640  5.22538E-02  1.12016E-01 -5.97622E-02
    8985.837     -8.438  -0.600  5.47370E-02  1.22839E-01 -6.81016E-02
    8986.014     -8.261  -0.560  5.73571E-02  1.34954E-01 -7.75970E-02
    8986.178     -8.096  -0.520  6.01110E-02  1.48421E-01 -8.83099E-02
    8986.331     -7.944  -0.480  6.29857E-02  1.63223E-01 -1.00237E-01
    8986.471     -7.804  -0.440  6.59538E-02  1.79231E-01 -1.13277E-01
    8986.599     -7.676  -0.400  6.89700E-02  1.96172E-01 -1.27202E-01
    8986.715     -7.560  -0.360  7.19709E-02  2.13618E-01 -1.41647E-01
    8986.818     -7.456  -0.320  7.48798E-02  2.31012E-01 -1.56132E-01
    8986.910     -7.365  -0.280  7.76154E-02  2.47735E-01 -1.70120E-01
    8986.989     -7.285  -0.240  8.01031E-02  2.63188E-01 -1.83085E-01
    8987.056     -7.218  -0.200  8.22830E-02  2.76865E-01 -1.94582E-01
    8987.111     -7.163  -0.160  8.41120E-02  2.88389E-01 -2.04277E-01
    8987.154     -7.121  -0.120  8.55616E-02  2.97515E-01 -2.11953E-01
    8987.184     -7.090  -0.080  8.66146E-02  3.04100E-01 -2.17486E-01
    8987.208     -7.066   0.000  8.74854E-02  3.09400E-01 -2.21914E-01
    8987.263     -7.011   0.120  8.95426E-02  3.21350E-01 -2.31808E-01
    8987.306     -6.968   0.160  9.10736E-02  3.30679E-01 -2.39605E-01
    8987.361     -6.914   0.200  9.30091E-02  3.42617E-01 -2.49607E-01
    8987.428     -6.846   0.240  9.53197E-02  3.57035E-01 -2.61716E-01
    8987.507     -6.767   0.280  9.80199E-02  3.73696E-01 -2.75676E-01
    8987.599     -6.676   0.320  1.01094E-01  3.92237E-01 -2.91143E-01
    8987.702     -6.572   0.360  1.04528E-01  4.12160E-01 -3.07631E-01
    8987.818     -6.456   0.400  1.08459E-01  4.33015E-01 -3.24557E-01
    8987.946     -6.328   0.440  1.12922E-01  4.54289E-01 -3.41368E-01
    8988.086     -6.188   0.480  1.18116E-01  4.75650E-01 -3.57534E-01
    8988.239     -6.036   0.520  1.24195E-01  4.96829E-01 -3.72634E-01
    8988.403     -5.871   0.560  1.31365E-01  5.17718E-01 -3.86353E-01
    8988.580     -5.694   0.600  1.39811E-01  5.38257E-01 -3.98446E-01
    8988.769     -5.505   0.640  1.49769E-01  5.58484E-01 -4.08715E-01
    8988.970     -5.304   0.680  1.61484E-01  5.78408E-01 -4.16924E-01
    8989.184     -5.091   0.720  1.75365E-01  5.98107E-01 -4.22741E-01
    8989.409     -4.865   0.760  1.91920E-01  6.17633E-01 -4.25714E-01
    8989.647     -4.628   0.800  2.11714E-01  6.36971E-01 -4.25257E-01
    8989.897     -4.378   0.840  2.35278E-01  6.56192E-01 -4.20914E-01
    8990.159     -4.115   0.880  2.62719E-01  6.75251E-01 -4.12532E-01
    8990.433     -3.841   0.920  2.93380E-01  6.94134E-01 -4.00755E-01
    8990.720     -3.555   0.960  3.25624E-01  7.12855E-01 -3.87231E-01
    8991.018     -3.256   1.000  3.57239E-01  7.31337E-01 -3.74098E-01
    8991.329     -2.945   1.040  3.87037E-01  7.49557E-01 -3.62520E-01
    8991.652     -2.622   1.080  4.15872E-01  7.67466E-01 -3.51594E-01
    8991.988     -2.287   1.120  4.46244E-01  7.85010E-01 -3.38765E-01
    8992.335     -1.939   1.160  4.80023E-01  8.02131E-01 -3.22109E-01
    8992.695     -1.580   1.200  5.17452E-01  8.18752E-01 -3.01300E-01
    8993.067     -1.208   1.240  5.57548E-01  8.34874E-01 -2.77327E-01
    8993.451     -0.824   1.280  5.96651E-01  8.50399E-01 -2.53747E-01
    8993.847     -0.427   1.320  6.32521E-01  8.65330E-01 -2.32809E-01
    8994.255     -0.019   1.360  6.71147E-01  8.79568E-01 -2.08422E-01
    8994.676      0.402   1.400  7.24697E-01  8.93144E-01 -1.68447E-01
    8995.109      0.834   1.440  8.03805E-01  9.05965E-01 -1.02160E-01
    8995.554      1.279   1.480  9.13327E-01  9.18063E-01 -4.73640E-03
    8996.011      1.737   1.520  1.04389E+00  9.29393E-01  1.14495E-01
    8996.480      2.206   1.560  1.16551E+00  9.39973E-01  2.25539E-01
    8996.962      2.688   1.600  1.24878E+00  9.49763E-01  2.99018E-01
    8997.456      3.181   1.640  1.29560E+00  9.58808E-01  3.36792E-01
    8997.962      3.687   1.680  1.33564E+00  9.67073E-01  3.68568E-01
    8998.480      4.206   1.720  1.38864E+00  9.74608E-01  4.14034E-01
    8999.010      4.736   1.760  1.43957E+00  9.81445E-01  4.58121E-01
    8999.553      5.278   1.800  1.45874E+00  9.87553E-01  4.71192E-01
    9000.108      5.833   1.840  1.43962E+00  9.93010E-01  4.46614E-01
    9000.674      6.400   1.880  1.39586E+00  9.97811E-01  3.98046E-01
    9001.254      6.979   1.920  1.33809E+00  1.00201E+00  3.36078E-01
    9001.845      7.570   1.960  1.27380E+00  1.00563E+00  2.68171E-01
    9002.448      8.174   2.000  1.21458E+00  1.00871E+00  2.05879E-01
    9003.064      8.790   2.040  1.17419E+00  1.01130E+00  1.62893E-01
    9003.692      9.418   2.080  1.15989E+00  1.01338E+00  1.46506E-01
    9004.332     10.058   2.120  1.16181E+00  1.01506E+00  1.46750E-01
    9004.984     10.710   2.160  1.15234E+00  1.01633E+00  1.36005E-01
    9005.649     11.374   2.200  1.11358E+00  1.01723E+00  9.63478E-02
    9006.325     12.051   2.240  1.05888E+00  1.01782E+00  4.10649E-02
    9007.014     12.740   2.280  1.01064E+00  1.01809E+00 -7.45185E-03
    9007.715     13.441   2.320  9.80557E-01  1.01810E+00 -3.75460E-02
    9008.429     14.154   2.360  9.71448E-01  1.01789E+00 -4.64446E-02
    9009.154     14.880   2.400  9.83303E-01  1.01747E+00 -3.41717E-02
    9009.892     15.617   2.440  1.00837E+00  1.01686E+00 -8.48911E-03
    9010.641     16.367   2.480  1.02897E+00  1.01611E+00  1.28598E-02
    9011.403     17.129   2.520  1.03849E+00  1.01521E+00  2.32852E-02
    9012.178     17.903   2.560  1.03861E+00  1.01423E+00  2.43747E-02
    9012.964     18.690   2.600  1.03181E+00  1.01315E+00  1.86612E-02
    9013.763     19.488   2.640  1.02049E+00  1.01202E+00  8.47147E-03
    9014.573     20.299   2.680  1.00588E+00  1.01084E+00 -4.95511E-03
    9015.396     21.122   2.720  9.89312E-01  1.00962E+00 -2.03069E-02
    9016.231     21.957   2.760  9.71950E-01  1.00839E+00 -3.64447E-02
    9017.079     22.804   2.800  9.54826E-01  1.00717E+00 -5.23418E-02
    9017.938     23.664   2.840  9.38996E-01  1.00595E+00 -6.69510E-02
    9018.810     24.536   2.880  9.25198E-01  1.00476E+00 -7.95593E-02
    9019.694     25.420   2.920  9.13910E-01  1.00360E+00 -8.96951E-02
    9020.590     26.316   2.960  9.05607E-01  1.00249E+00 -9.68870E-02
    9021.498     27.224   3.000  9.00197E-01  1.00143E+00 -1.01234E-01
    9022.419     28.144   3.040  8.97415E-01  1.00044E+00 -1.03023E-01
    9023.351     29.077   3.080  8.97270E-01  9.99521E-01 -1.02250E-01
    9024.296     30.022   3.120  8.99789E-01  9.98680E-01 -9.88915E-02
    9025.253     30.979   3.160  9.04880E-01  9.97896E-01 -9.30163E-02
    9026.223     31.948   3.200  9.12368E-01  9.97193E-01 -8.48251E-02
    9027.204     32.930   3.240  9.21866E-01  9.96592E-01 -7.47258E-02
    9028.198     33.923   3.280  9.32653E-01  9.96054E-01 -6.34010E-02
    9029.204     34.929   3.320  9.44021E-01  9.95622E-01 -5.16007E-02
    9030.222     35.947   3.360  9.55300E-01  9.95275E-01 -3.99751E-02
    9031.252     36.977   3.400  9.65989E-01  9.95013E-01 -2.90240E-02
    9032.294     38.020   3.440  9.75721E-01  9.94858E-01 -1.91377E-02
    9033.349     39.074   3.480  9.84215E-01  9.94766E-01 -1.05510E-02
    9034.416     40.141   3.520  9.91458E-01  9.94778E-01 -3.32070E-03
    9035.495     41.220   3.560  9.97425E-01  9.94877E-01  2.54869E-03
    9036.586     42.311   3.600  1.00221E+00  9.95056E-01  7.14958E-03
    9037.689     43.415   3.640  1.00590E+00  9.95317E-01  1.05857E-02
    9038.805     44.530   3.680  1.00869E+00  9.95659E-01  1.30302E-02
    9039.933     45.658   3.720  1.01069E+00  9.96077E-01  1.46109E-02
    9041.072     46.798   3.760  1.01192E+00  9.96549E-01  1.53671E-02
    9042.225     47.950   3.800  1.01227E+00  9.97097E-01  1.51714E-02
    9043.389     49.115   3.840  1.01158E+00  9.97719E-01  1.38652E-02
    9044.565     50.291   3.880  1.00993E+00  9.98412E-01  1.15166E-02
    9045.754     51.480   3.920  1.00763E+00  9.99131E-01  8.49895E-03
    9046.955     52.681   3.960  1.00535E+00  9.99915E-01  5.43448E-03
    9048.168     53.894   4.000  1.00377E+00  1.00074E+00  3.02483E-03
    9049.393     55.119   4.040  1.00345E+00  1.00161E+00  1.83920E-03
    9050.631     56.357   4.080  1.00468E+00  1.00252E+00  2.16804E-03
    9051.881     57.606   4.120  1.00753E+00  1.00346E+00  4.07318E-03
    9053.143     58.868   4.160  1.01195E+00  1.00441E+00  7.54246E-03
    9054.417     60.142   4.200  1.01784E+00  1.00539E+00  1.24513E-02
    9055.703     61.428   4.240  1.02487E+00  1.00638E+00  1.84924E-02
    9057.001     62.727   4.280  1.03258E+00  1.00739E+00  2.51893E-02
    9058.312     64.037   4.320  1.04024E+00  1.00838E+00  3.18607E-02
    9059.635     65.360   4.360  1.04710E+00  1.00939E+00  3.77084E-02
    9060.970     66.695   4.400  1.05238E+00  1.01038E+00  4.20037E-02
    9062.317     68.043   4.440  1.05566E+00  1.01136E+00  4.43027E-02
    9063.676     69.402   4.480  1.05679E+00  1.01230E+00  4.44905E-02
    9065.048     70.774   4.520  1.05597E+00  1.01323E+00  4.27409E-02
    9066.432     72.157   4.560  1.05352E+00  1.01413E+00  3.93917E-02
    9067.828     73.553   4.600  1.04990E+00  1.01502E+00  3.48826E-02
    9069.236     74.961   4.640  1.04556E+00  1.01586E+00  2.96964E-02
    9070.656     76.382   4.680  1.04092E+00  1.01664E+00  2.42795E-02
    9072.089     77.814   4.720  1.03634E+00  1.01740E+00  1.89456E-02
    9073.534     79.259   4.760  1.03201E+00  1.01809E+00  1.39213E-02
    9074.990     80.716   4.800  1.02814E+00  1.01873E+00  9.41360E-03
    9076.460     82.185   4.840  1.02498E+00  1.01933E+00  5.65251E-03
    9077.941     83.667   4.880  1.02283E+00  1.01988E+00  2.95592E-03
    9079.434     85.160   4.920  1.02203E+00  1.02035E+00  1.67895E-03
    9080.940     86.666   4.960  1.02275E+00  1.02078E+00  1.97353E-03
    9082.458     88.184   5.000  1.02471E+00  1.02113E+00  3.58048E-03
    9083.988     89.714   5.040  1.02717E+00  1.02140E+00  5.76916E-03
    9085.530     91.256   5.080  1.02919E+00  1.02163E+00  7.56293E-03
    9087.085     92.810   5.120  1.02988E+00  1.02180E+00  8.08481E-03
    9088.652     94.377   5.160  1.02874E+00  1.02190E+00  6.84866E-03
    9090.230     95.956   5.200  1.02581E+00  1.02192E+00  3.88773E-03
    9091.821     97.547   5.240  1.02154E+00  1.02189E+00 -3.53540E-04
    9093.425     99.150   5.280  1.01652E+00  1.02181E+00 -5.29131E-03
    9095.040    100.766   5.320  1.01112E+00  1.02163E+00 -1.05159E-02
    9096.668    102.393   5.360  1.00558E+00  1.02143E+00 -1.58443E-02
    9098.308    104.033   5.400  1.00003E+00  1.02115E+00 -2.11187E-02
    9099.960    105.685   5.440  9.94918E-01  1.02083E+00 -2.59108E-02
    9101.624    107.349   5.480  9.90893E-01  1.02043E+00 -2.95407E-02
    9103.300    109.026   5.520  9.88595E-01  1.01999E+00 -3.13983E-02
    9104.989    110.714   5.560  9.88215E-01  1.01951E+00 -3.12945E-02
    9106.690    112.415   5.600  9.89443E-01  1.01898E+00 -2.95398E-02
    9108.403    114.128   5.640  9.91565E-01  1.01842E+00 -2.68507E-02
    9110.128    115.853   5.680  9.93681E-01  1.01781E+00 -2.41288E-02
    9111.865    117.591   5.720  9.94968E-01  1.01717E+00 -2.21991E-02
    9113.615    119.340   5.760  9.94899E-01  1.01651E+00 -2.16143E-02
    9115.376    121.102   5.800  9.93206E-01  1.01583E+00 -2.26194E-02
    9117.150    122.876   5.840  9.90004E-01  1.01510E+00 -2.51003E-02
    9118.936    124.662   5.880  9.85880E-01  1.01435E+00 -2.84752E-02
    9120.735    126.460   5.920  9.81891E-01  1.01361E+00 -3.17184E-02
    9122.545    128.271   5.960  9.79211E-01  1.01287E+00 -3.36639E-02
    9124.368    130.093   6.000  9.78803E-01  1.01213E+00 -3.33268E-02
