# # comment:                                                     FEFF 9.9.1  
# # Source:
# # Structure
# # Reduced
# # space
# # abc:
# # angles:
# # sites:
# # POT  SCF 100  7.0000   0, screened core-hole, AFOLP (folp(0)= 1.150)
# # Abs   Z=29 Rmt= 1.190 Rnm= 1.281 K  shell
# # Pot 1 Z=38 Rmt= 1.775 Rnm= 1.847
# # Pot 2 Z=29 Rmt= 1.176 Rnm= 1.274
# # Pot 3 Z=83 Rmt= 1.455 Rnm= 1.641
# # Pot 4 Z= 8 Rmt= 1.056 Rnm= 1.108
# # Gam_ch=1.729E+00 H-L exch Vi= 0.000E+00 Vr= 0.000E+00
# # Mu=-7.927E+00eV kf=1.982E+00 Vint=-1.693E+01eV Rs_int= 1.830
# FMS rfms= 9.0000
# # PATH  Rmax=-1.000,  Keep_limit= 0.00, Heap_limit 0.00  Pwcrit= 2.50%
#  S02=0.950  Temp=   0.00  Debye_temp=   0.00  Global_sig2= 0.00000
#  Energy zero shift, vr, vi    0.00000E+00   0.00000E+00
#  Curved wave amplitude ratio filter   4.000%
#     file         sig2 tot  cw amp ratio   deg  nlegs   reff  inp sig2
#     0/   0 paths used
#  xsedge+ 50, used to normalize mu           2.4288E-04
#  -----------------------------------------------------------------------
#  omega    e    k    mu    mu0     chi     @#
    8985.053    -11.737  -1.000  4.30042E-02  6.07242E-02 -1.77201E-02
    8985.352    -11.438  -0.960  4.54245E-02  6.53083E-02 -1.98838E-02
    8985.638    -11.152  -0.920  4.80493E-02  7.04147E-02 -2.23655E-02
    8985.912    -10.877  -0.880  5.09041E-02  7.61214E-02 -2.52173E-02
    8986.175    -10.615  -0.840  5.40188E-02  8.25190E-02 -2.85001E-02
    8986.425    -10.365  -0.800  5.74281E-02  8.97125E-02 -3.22844E-02
    8986.662    -10.127  -0.760  6.11716E-02  9.78227E-02 -3.66511E-02
    8986.888     -9.902  -0.720  6.52945E-02  1.06986E-01 -4.16916E-02
    8987.101     -9.689  -0.680  6.98465E-02  1.17353E-01 -4.75065E-02
    8987.302     -9.487  -0.640  7.48803E-02  1.29083E-01 -5.42023E-02
    8987.491     -9.298  -0.600  8.04465E-02  1.42331E-01 -6.18844E-02
    8987.668     -9.122  -0.560  8.65868E-02  1.57232E-01 -7.06450E-02
    8987.833     -8.957  -0.520  9.33210E-02  1.73866E-01 -8.05446E-02
    8987.985     -8.805  -0.480  1.00630E-01  1.92216E-01 -9.15858E-02
    8988.125     -8.664  -0.440  1.08438E-01  2.12122E-01 -1.03684E-01
    8988.253     -8.536  -0.400  1.16593E-01  2.33234E-01 -1.16640E-01
    8988.369     -8.421  -0.360  1.24872E-01  2.55003E-01 -1.30131E-01
    8988.473     -8.317  -0.320  1.32992E-01  2.76717E-01 -1.43725E-01
    8988.564     -8.226  -0.280  1.40659E-01  2.97584E-01 -1.56925E-01
    8988.643     -8.146  -0.240  1.47605E-01  3.16842E-01 -1.69237E-01
    8988.710     -8.079  -0.200  1.53631E-01  3.33857E-01 -1.80225E-01
    8988.765     -8.024  -0.160  1.58615E-01  3.48164E-01 -1.89549E-01
    8988.808     -7.982  -0.120  1.62497E-01  3.59469E-01 -1.96972E-01
    8988.839     -7.951  -0.080  1.65261E-01  3.67610E-01 -2.02349E-01
    8988.863     -7.927   0.000  1.67452E-01  3.74147E-01 -2.06695E-01
    8988.918     -7.872   0.120  1.72324E-01  3.88893E-01 -2.16568E-01
    8988.960     -7.829   0.160  1.76052E-01  4.00340E-01 -2.24287E-01
    8989.015     -7.774   0.200  1.80743E-01  4.14947E-01 -2.34204E-01
    8989.082     -7.707   0.240  1.86268E-01  4.32486E-01 -2.46218E-01
    8989.162     -7.628   0.280  1.92504E-01  4.52615E-01 -2.60112E-01
    8989.253     -7.537   0.320  1.99275E-01  4.74764E-01 -2.75489E-01
    8989.357     -7.433   0.360  2.06474E-01  4.98296E-01 -2.91822E-01
    8989.472     -7.317   0.400  2.14030E-01  5.22494E-01 -3.08464E-01
    8989.601     -7.189   0.440  2.21977E-01  5.46679E-01 -3.24703E-01
    8989.741     -7.049   0.480  2.30524E-01  5.70379E-01 -3.39855E-01
    8989.893     -6.897   0.520  2.39942E-01  5.93256E-01 -3.53315E-01
    8990.058     -6.732   0.560  2.50502E-01  6.15123E-01 -3.64621E-01
    8990.234     -6.555   0.600  2.62640E-01  6.35980E-01 -3.73341E-01
    8990.423     -6.366   0.640  2.76813E-01  6.55833E-01 -3.79019E-01
    8990.625     -6.165   0.680  2.93685E-01  6.74790E-01 -3.81105E-01
    8990.838     -5.952   0.720  3.14033E-01  6.92938E-01 -3.78905E-01
    8991.064     -5.726   0.760  3.38808E-01  7.10402E-01 -3.71594E-01
    8991.301     -5.488   0.800  3.68864E-01  7.27276E-01 -3.58412E-01
    8991.551     -5.239   0.840  4.04813E-01  7.43598E-01 -3.38785E-01
    8991.813     -4.976   0.880  4.46914E-01  7.59450E-01 -3.12536E-01
    8992.088     -4.702   0.920  4.94670E-01  7.74879E-01 -2.80209E-01
    8992.374     -4.416   0.960  5.45751E-01  7.89898E-01 -2.44147E-01
    8992.673     -4.117   1.000  5.94245E-01  8.04525E-01 -2.10279E-01
    8992.984     -3.806   1.040  6.30676E-01  8.18750E-01 -1.88075E-01
    8993.307     -3.483   1.080  6.47265E-01  8.32598E-01 -1.85333E-01
    8993.642     -3.148   1.120  6.44551E-01  8.46040E-01 -2.01490E-01
    8993.990     -2.800   1.160  6.31189E-01  8.59069E-01 -2.27880E-01
    8994.349     -2.440   1.200  6.18436E-01  8.71669E-01 -2.53232E-01
    8994.721     -2.069   1.240  6.16121E-01  8.83822E-01 -2.67701E-01
    8995.105     -1.685   1.280  6.31395E-01  8.95511E-01 -2.64116E-01
    8995.501     -1.288   1.320  6.71532E-01  9.06714E-01 -2.35183E-01
    8995.910     -0.880   1.360  7.42292E-01  9.17410E-01 -1.75117E-01
    8996.330     -0.459   1.400  8.35351E-01  9.27598E-01 -9.22472E-02
    8996.763     -0.026   1.440  9.14774E-01  9.37279E-01 -2.25050E-02
    8997.208      0.419   1.480  9.40888E-01  9.46410E-01 -5.52225E-03
    8997.665      0.876   1.520  9.23520E-01  9.54992E-01 -3.14715E-02
    8998.135      1.345   1.560  9.03149E-01  9.63026E-01 -5.98770E-02
    8998.616      1.827   1.600  9.03890E-01  9.70515E-01 -6.66249E-02
    8999.110      2.320   1.640  9.36244E-01  9.77462E-01 -4.12183E-02
    8999.616      2.826   1.680  1.00675E+00  9.83852E-01  2.28962E-02
    9000.134      3.345   1.720  1.11672E+00  9.89731E-01  1.26992E-01
    9000.665      3.875   1.760  1.25964E+00  9.95067E-01  2.64569E-01
    9001.207      4.418   1.800  1.40101E+00  9.99907E-01  4.01103E-01
    9001.762      4.972   1.840  1.46635E+00  1.00424E+00  4.62105E-01
    9002.329      5.539   1.880  1.44900E+00  1.00810E+00  4.40908E-01
    9002.908      6.118   1.920  1.41809E+00  1.01148E+00  4.06607E-01
    9003.499      6.710   1.960  1.39568E+00  1.01446E+00  3.81218E-01
    9004.103      7.313   2.000  1.37442E+00  1.01699E+00  3.57436E-01
    9004.719      7.929   2.040  1.35013E+00  1.01912E+00  3.31004E-01
    9005.346      8.557   2.080  1.32358E+00  1.02088E+00  3.02702E-01
    9005.986      9.197   2.120  1.29635E+00  1.02229E+00  2.74058E-01
    9006.639      9.849   2.160  1.27034E+00  1.02336E+00  2.46976E-01
    9007.303     10.513   2.200  1.24293E+00  1.02413E+00  2.18800E-01
    9007.980     11.190   2.240  1.20458E+00  1.02464E+00  1.79941E-01
    9008.669     11.879   2.280  1.15083E+00  1.02486E+00  1.25976E-01
    9009.370     12.580   2.320  1.09163E+00  1.02483E+00  6.68002E-02
    9010.083     13.293   2.360  1.04371E+00  1.02462E+00  1.90944E-02
    9010.808     14.019   2.400  1.02388E+00  1.02419E+00 -3.17438E-04
    9011.546     14.756   2.440  1.02893E+00  1.02360E+00  5.33264E-03
    9012.296     15.506   2.480  1.04330E+00  1.02287E+00  2.04291E-02
    9013.058     16.268   2.520  1.05974E+00  1.02198E+00  3.77602E-02
    9013.832     17.042   2.560  1.07457E+00  1.02099E+00  5.35741E-02
    9014.618     17.829   2.600  1.08549E+00  1.01989E+00  6.55981E-02
    9015.417     18.627   2.640  1.09051E+00  1.01870E+00  7.18098E-02
    9016.228     19.438   2.680  1.08773E+00  1.01746E+00  7.02743E-02
    9017.051     20.261   2.720  1.07575E+00  1.01617E+00  5.95855E-02
    9017.886     21.096   2.760  1.05496E+00  1.01484E+00  4.01208E-02
    9018.733     21.943   2.800  1.02756E+00  1.01349E+00  1.40699E-02
    9019.593     22.803   2.840  9.96990E-01  1.01214E+00 -1.51504E-02
    9020.464     23.675   2.880  9.66802E-01  1.01077E+00 -4.39635E-02
    9021.348     24.559   2.920  9.39614E-01  1.00941E+00 -6.98010E-02
    9022.244     25.455   2.960  9.16298E-01  1.00807E+00 -9.17739E-02
    9023.153     26.363   3.000  8.97440E-01  1.00676E+00 -1.09322E-01
    9024.073     27.284   3.040  8.83506E-01  1.00549E+00 -1.21986E-01
    9025.006     28.216   3.080  8.75115E-01  1.00428E+00 -1.29168E-01
    9025.951     29.161   3.120  8.72590E-01  1.00310E+00 -1.30508E-01
    9026.908     30.118   3.160  8.75310E-01  1.00198E+00 -1.26673E-01
    9027.877     31.087   3.200  8.81586E-01  1.00094E+00 -1.19353E-01
    9028.859     32.069   3.240  8.89121E-01  9.99946E-01 -1.10825E-01
    9029.852     33.062   3.280  8.95473E-01  9.99030E-01 -1.03557E-01
    9030.858     34.068   3.320  8.98570E-01  9.98190E-01 -9.96206E-02
    9031.876     35.086   3.360  8.97822E-01  9.97429E-01 -9.96074E-02
    9032.906     36.117   3.400  8.94170E-01  9.96727E-01 -1.02557E-01
    9033.949     37.159   3.440  8.89541E-01  9.96127E-01 -1.06586E-01
    9035.003     38.214   3.480  8.86091E-01  9.95609E-01 -1.09517E-01
    9036.070     39.280   3.520  8.85887E-01  9.95173E-01 -1.09286E-01
    9037.149     40.359   3.560  8.90360E-01  9.94818E-01 -1.04458E-01
    9038.240     41.451   3.600  8.99851E-01  9.94546E-01 -9.46951E-02
    9039.344     42.554   3.640  9.13728E-01  9.94355E-01 -8.06268E-02
    9040.459     43.669   3.680  9.30480E-01  9.94245E-01 -6.37650E-02
    9041.587     44.797   3.720  9.47972E-01  9.94216E-01 -4.62440E-02
    9042.727     45.937   3.760  9.64184E-01  9.94267E-01 -3.00824E-02
    9043.879     47.089   3.800  9.78041E-01  9.94397E-01 -1.63560E-02
    9045.043     48.254   3.840  9.89307E-01  9.94606E-01 -5.29877E-03
    9046.220     49.430   3.880  9.98385E-01  9.94872E-01  3.51337E-03
    9047.409     50.619   3.920  1.00595E+00  9.95232E-01  1.07219E-02
    9048.610     51.820   3.960  1.01245E+00  9.95647E-01  1.68023E-02
    9049.823     53.033   4.000  1.01815E+00  9.96112E-01  2.20335E-02
    9051.048     54.258   4.040  1.02328E+00  9.96649E-01  2.66294E-02
    9052.285     55.496   4.080  1.02813E+00  9.97257E-01  3.08744E-02
    9053.535     56.745   4.120  1.03299E+00  9.97911E-01  3.50772E-02
    9054.797     58.007   4.160  1.03825E+00  9.98608E-01  3.96383E-02
    9056.071     59.281   4.200  1.04439E+00  9.99346E-01  4.50441E-02
    9057.357     60.568   4.240  1.05181E+00  1.00012E+00  5.16893E-02
    9058.656     61.866   4.280  1.06060E+00  1.00094E+00  5.96641E-02
    9059.966     63.177   4.320  1.07050E+00  1.00177E+00  6.87393E-02
    9061.289     64.499   4.360  1.08105E+00  1.00265E+00  7.84017E-02
    9062.624     65.834   4.400  1.09150E+00  1.00352E+00  8.79792E-02
    9063.971     67.182   4.440  1.10120E+00  1.00444E+00  9.67657E-02
    9065.331     68.541   4.480  1.10934E+00  1.00534E+00  1.03995E-01
    9066.702     69.913   4.520  1.11501E+00  1.00627E+00  1.08740E-01
    9068.086     71.296   4.560  1.11729E+00  1.00717E+00  1.10122E-01
    9069.482     72.692   4.600  1.11571E+00  1.00809E+00  1.07616E-01
    9070.890     74.101   4.640  1.11024E+00  1.00899E+00  1.01253E-01
    9072.311     75.521   4.680  1.10138E+00  1.00988E+00  9.15020E-02
    9073.743     76.954   4.720  1.08994E+00  1.01076E+00  7.91751E-02
    9075.188     78.398   4.760  1.07658E+00  1.01162E+00  6.49694E-02
    9076.645     79.855   4.800  1.06188E+00  1.01245E+00  4.94240E-02
    9078.114     81.324   4.840  1.04611E+00  1.01323E+00  3.28800E-02
    9079.595     82.806   4.880  1.02952E+00  1.01399E+00  1.55234E-02
    9081.089     84.299   4.920  1.01236E+00  1.01474E+00 -2.37467E-03
    9082.595     85.805   4.960  9.95120E-01  1.01542E+00 -2.02987E-02
    9084.112     87.323   5.000  9.78858E-01  1.01606E+00 -3.71979E-02
    9085.643     88.853   5.040  9.65157E-01  1.01665E+00 -5.14908E-02
    9087.185     90.395   5.080  9.55795E-01  1.01717E+00 -6.13763E-02
    9088.739     91.950   5.120  9.52330E-01  1.01767E+00 -6.53399E-02
    9090.306     93.516   5.160  9.55316E-01  1.01810E+00 -6.27848E-02
    9091.885     95.095   5.200  9.64222E-01  1.01848E+00 -5.42589E-02
    9093.476     96.686   5.240  9.77335E-01  1.01879E+00 -4.14539E-02
    9095.079     98.289   5.280  9.92084E-01  1.01905E+00 -2.69628E-02
    9096.695     99.905   5.320  1.00546E+00  1.01923E+00 -1.37705E-02
    9098.322    101.532   5.360  1.01477E+00  1.01937E+00 -4.59889E-03
    9099.962    103.172   5.400  1.01814E+00  1.01946E+00 -1.31870E-03
    9101.614    104.824   5.440  1.01487E+00  1.01947E+00 -4.59685E-03
    9103.278    106.489   5.480  1.00574E+00  1.01944E+00 -1.36929E-02
    9104.955    108.165   5.520  9.92834E-01  1.01933E+00 -2.64948E-02
    9106.643    109.853   5.560  9.79093E-01  1.01917E+00 -4.00782E-02
    9108.344    111.554   5.600  9.67174E-01  1.01894E+00 -5.17668E-02
    9110.057    113.267   5.640  9.58805E-01  1.01866E+00 -5.98601E-02
    9111.782    114.992   5.680  9.54599E-01  1.01834E+00 -6.37437E-02
    9113.519    116.730   5.720  9.54467E-01  1.01795E+00 -6.34865E-02
    9115.269    118.479   5.760  9.58144E-01  1.01754E+00 -5.93997E-02
    9117.031    120.241   5.800  9.65038E-01  1.01707E+00 -5.20308E-02
    9118.805    122.015   5.840  9.74075E-01  1.01655E+00 -4.24780E-02
    9120.591    123.801   5.880  9.83491E-01  1.01600E+00 -3.25088E-02
    9122.389    125.599   5.920  9.91353E-01  1.01541E+00 -2.40609E-02
    9124.200    127.410   5.960  9.95933E-01  1.01479E+00 -1.88611E-02
    9126.022    129.233   6.000  9.97363E-01  1.01411E+00 -1.67464E-02
