# # comment:                                                     FEFF 9.9.1  
# # Source:
# # Structure
# # Reduced
# # space
# # abc:
# # angles:107.580080
# # sites:
# # POT  SCF 100  7.0000   0, screened core-hole, AFOLP (folp(0)= 1.150)
# # Abs   Z=29 Rmt= 1.234 Rnm= 1.311 K  shell
# # Pot 1 Z=56 Rmt= 1.912 Rnm= 1.975
# # Pot 2 Z=38 Rmt= 1.794 Rnm= 1.859
# # Pot 3 Z=29 Rmt= 1.232 Rnm= 1.312
# # Pot 4 Z= 8 Rmt= 1.082 Rnm= 1.129
# # Gam_ch=1.729E+00 H-L exch Vi= 0.000E+00 Vr= 0.000E+00
# # Mu=-1.045E+01eV kf=1.912E+00 Vint=-1.765E+01eV Rs_int= 1.896
# FMS rfms= 9.0000
# # PATH  Rmax=-1.000,  Keep_limit= 0.00, Heap_limit 0.00  Pwcrit= 2.50%
#  S02=0.950  Temp=   0.00  Debye_temp=   0.00  Global_sig2= 0.00000
#  Energy zero shift, vr, vi    0.00000E+00   0.00000E+00
#  Curved wave amplitude ratio filter   4.000%
#     file         sig2 tot  cw amp ratio   deg  nlegs   reff  inp sig2
#     0/   0 paths used
#  xsedge+ 50, used to normalize mu           2.4475E-04
#  -----------------------------------------------------------------------
#  omega    e    k    mu    mu0     chi     @#
    8985.360    -14.261  -1.000  3.35096E-02  5.22543E-02 -1.87446E-02
    8985.659    -13.962  -0.960  3.50640E-02  5.59539E-02 -2.08898E-02
    8985.946    -13.676  -0.920  3.67277E-02  6.00541E-02 -2.33265E-02
    8986.220    -13.402  -0.880  3.85139E-02  6.46128E-02 -2.60989E-02
    8986.482    -13.139  -0.840  4.04385E-02  6.96971E-02 -2.92586E-02
    8986.732    -12.890  -0.800  4.25197E-02  7.53846E-02 -3.28649E-02
    8986.970    -12.652  -0.760  4.47788E-02  8.17643E-02 -3.69855E-02
    8987.195    -12.426  -0.720  4.72400E-02  8.89363E-02 -4.16963E-02
    8987.409    -12.213  -0.680  4.99302E-02  9.70108E-02 -4.70806E-02
    8987.610    -12.012  -0.640  5.28778E-02  1.06104E-01 -5.32260E-02
    8987.799    -11.823  -0.600  5.61109E-02  1.16329E-01 -6.02179E-02
    8987.976    -11.646  -0.560  5.96534E-02  1.27782E-01 -6.81287E-02
    8988.140    -11.481  -0.520  6.35193E-02  1.40520E-01 -7.70007E-02
    8988.293    -11.329  -0.480  6.77049E-02  1.54528E-01 -8.68230E-02
    8988.433    -11.189  -0.440  7.21791E-02  1.69683E-01 -9.75042E-02
    8988.561    -11.061  -0.400  7.68758E-02  1.85726E-01 -1.08850E-01
    8988.677    -10.945  -0.360  8.16900E-02  2.02248E-01 -1.20558E-01
    8988.780    -10.841  -0.320  8.64835E-02  2.18719E-01 -1.32235E-01
    8988.872    -10.750  -0.280  9.10994E-02  2.34549E-01 -1.43449E-01
    8988.951    -10.671  -0.240  9.53813E-02  2.49169E-01 -1.53788E-01
    8989.018    -10.604  -0.200  9.91924E-02  2.62102E-01 -1.62909E-01
    8989.073    -10.549  -0.160  1.02426E-01  2.72991E-01 -1.70565E-01
    8989.116    -10.506  -0.120  1.05006E-01  2.81608E-01 -1.76602E-01
    8989.146    -10.476  -0.080  1.06887E-01  2.87821E-01 -1.80934E-01
    8989.170    -10.451   0.000  1.08435E-01  2.92818E-01 -1.84382E-01
    8989.225    -10.396   0.120  1.11899E-01  3.04098E-01 -1.92199E-01
    8989.268    -10.354   0.160  1.14561E-01  3.12879E-01 -1.98318E-01
    8989.323    -10.299   0.200  1.17931E-01  3.24102E-01 -2.06171E-01
    8989.390    -10.232   0.240  1.21987E-01  3.37655E-01 -2.15668E-01
    8989.469    -10.152   0.280  1.26586E-01  3.53275E-01 -2.26689E-01
    8989.561    -10.061   0.320  1.31567E-01  3.70603E-01 -2.39036E-01
    8989.664     -9.957   0.360  1.36622E-01  3.89168E-01 -2.52546E-01
    8989.780     -9.842   0.400  1.41420E-01  4.08506E-01 -2.67086E-01
    8989.908     -9.714   0.440  1.45501E-01  4.28155E-01 -2.82654E-01
    8990.048     -9.573   0.480  1.48498E-01  4.47752E-01 -2.99254E-01
    8990.201     -9.421   0.520  1.50253E-01  4.67077E-01 -3.16823E-01
    8990.365     -9.256   0.560  1.50969E-01  4.86008E-01 -3.35039E-01
    8990.542     -9.080   0.600  1.51115E-01  5.04533E-01 -3.53418E-01
    8990.731     -8.891   0.640  1.51190E-01  5.22679E-01 -3.71489E-01
    8990.932     -8.689   0.680  1.51542E-01  5.40500E-01 -3.88958E-01
    8991.145     -8.476   0.720  1.52470E-01  5.58064E-01 -4.05594E-01
    8991.371     -8.251   0.760  1.54521E-01  5.75433E-01 -4.20913E-01
    8991.609     -8.013   0.800  1.58449E-01  5.92664E-01 -4.34215E-01
    8991.859     -7.763   0.840  1.65178E-01  6.09798E-01 -4.44620E-01
    8992.121     -7.501   0.880  1.75608E-01  6.26845E-01 -4.51237E-01
    8992.395     -7.226   0.920  1.90772E-01  6.43845E-01 -4.53073E-01
    8992.682     -6.940   0.960  2.11734E-01  6.60764E-01 -4.49030E-01
    8992.980     -6.641   1.000  2.39501E-01  6.77618E-01 -4.38116E-01
    8993.291     -6.330   1.040  2.74324E-01  6.94398E-01 -4.20073E-01
    8993.614     -6.007   1.080  3.14954E-01  7.11045E-01 -3.96091E-01
    8993.950     -5.672   1.120  3.59326E-01  7.27537E-01 -3.68211E-01
    8994.297     -5.324   1.160  4.06116E-01  7.43846E-01 -3.37730E-01
    8994.657     -4.965   1.200  4.53586E-01  7.59922E-01 -3.06337E-01
    8995.029     -4.593   1.240  4.96347E-01  7.75733E-01 -2.79386E-01
    8995.413     -4.209   1.280  5.28707E-01  7.91244E-01 -2.62537E-01
    8995.809     -3.813   1.320  5.52195E-01  8.06399E-01 -2.54204E-01
    8996.217     -3.404   1.360  5.74934E-01  8.21164E-01 -2.46231E-01
    8996.638     -2.984   1.400  6.05692E-01  8.35504E-01 -2.29812E-01
    8997.071     -2.551   1.440  6.53285E-01  8.49383E-01 -1.96098E-01
    8997.516     -2.106   1.480  7.22937E-01  8.62769E-01 -1.39832E-01
    8997.973     -1.649   1.520  8.00225E-01  8.75628E-01 -7.54031E-02
    8998.442     -1.179   1.560  8.62834E-01  8.87931E-01 -2.50965E-02
    8998.924     -0.698   1.600  9.29569E-01  8.99688E-01  2.98805E-02
    8999.418     -0.204   1.640  1.04126E+00  9.10834E-01  1.30431E-01
    8999.924      0.302   1.680  1.18893E+00  9.21403E-01  2.67529E-01
    9000.442      0.820   1.720  1.29295E+00  9.31349E-01  3.61605E-01
    9000.972      1.351   1.760  1.31171E+00  9.40674E-01  3.71034E-01
    9001.515      1.893   1.800  1.33063E+00  9.49399E-01  3.81231E-01
    9002.069      2.448   1.840  1.41501E+00  9.57525E-01  4.57486E-01
    9002.636      3.015   1.880  1.54116E+00  9.65037E-01  5.76119E-01
    9003.216      3.594   1.920  1.63390E+00  9.71959E-01  6.61945E-01
    9003.807      4.185   1.960  1.60734E+00  9.78298E-01  6.29040E-01
    9004.410      4.789   2.000  1.47314E+00  9.84063E-01  4.89074E-01
    9005.026      5.404   2.040  1.31880E+00  9.89284E-01  3.29515E-01
    9005.654      6.032   2.080  1.19291E+00  9.93969E-01  1.98941E-01
    9006.294      6.672   2.120  1.10123E+00  9.98173E-01  1.03052E-01
    9006.946      7.325   2.160  1.03835E+00  1.00186E+00  3.64898E-02
    9007.611      7.989   2.200  1.00317E+00  1.00510E+00 -1.92864E-03
    9008.287      8.666   2.240  9.93845E-01  1.00791E+00 -1.40609E-02
    9008.976      9.355   2.280  9.91806E-01  1.01030E+00 -1.84928E-02
    9009.677     10.056   2.320  9.76210E-01  1.01231E+00 -3.61026E-02
    9010.390     10.769   2.360  9.63566E-01  1.01394E+00 -5.03726E-02
    9011.116     11.494   2.400  9.60876E-01  1.01525E+00 -5.43743E-02
    9011.854     12.232   2.440  9.65988E-01  1.01624E+00 -5.02533E-02
    9012.603     12.982   2.480  9.78185E-01  1.01696E+00 -3.87785E-02
    9013.365     13.744   2.520  9.96474E-01  1.01739E+00 -2.09153E-02
    9014.139     14.518   2.560  1.01779E+00  1.01761E+00  1.73151E-04
    9014.926     15.304   2.600  1.03766E+00  1.01760E+00  2.00615E-02
    9015.724     16.103   2.640  1.05187E+00  1.01739E+00  3.44840E-02
    9016.535     16.914   2.680  1.05784E+00  1.01701E+00  4.08395E-02
    9017.358     17.737   2.720  1.05510E+00  1.01646E+00  3.86345E-02
    9018.193     18.572   2.760  1.04524E+00  1.01581E+00  2.94275E-02
    9019.041     19.419   2.800  1.03006E+00  1.01502E+00  1.50419E-02
    9019.900     20.279   2.840  1.01157E+00  1.01413E+00 -2.56093E-03
    9020.772     21.150   2.880  9.91597E-01  1.01316E+00 -2.15630E-02
    9021.656     22.034   2.920  9.71485E-01  1.01213E+00 -4.06496E-02
    9022.552     22.930   2.960  9.52156E-01  1.01104E+00 -5.88839E-02
    9023.460     23.839   3.000  9.34173E-01  1.00990E+00 -7.57306E-02
    9024.381     24.759   3.040  9.17896E-01  1.00875E+00 -9.08563E-02
    9025.313     25.692   3.080  9.03749E-01  1.00757E+00 -1.03824E-01
    9026.258     26.637   3.120  8.92251E-01  1.00641E+00 -1.14159E-01
    9027.215     27.594   3.160  8.83749E-01  1.00523E+00 -1.21478E-01
    9028.185     28.563   3.200  8.78610E-01  1.00407E+00 -1.25460E-01
    9029.166     29.545   3.240  8.77020E-01  1.00292E+00 -1.25905E-01
    9030.160     30.538   3.280  8.78612E-01  1.00183E+00 -1.23223E-01
    9031.166     31.544   3.320  8.82735E-01  1.00076E+00 -1.18026E-01
    9032.184     32.562   3.360  8.88931E-01  9.99728E-01 -1.10798E-01
    9033.214     33.592   3.400  8.96924E-01  9.98759E-01 -1.01835E-01
    9034.256     34.635   3.440  9.06454E-01  9.97814E-01 -9.13603E-02
    9035.311     35.689   3.480  9.17669E-01  9.96959E-01 -7.92904E-02
    9036.378     36.756   3.520  9.30691E-01  9.96134E-01 -6.54428E-02
    9037.457     37.835   3.560  9.45530E-01  9.95401E-01 -4.98704E-02
    9038.548     38.926   3.600  9.61746E-01  9.94719E-01 -3.29734E-02
    9039.651     40.030   3.640  9.78677E-01  9.94091E-01 -1.54145E-02
    9040.767     41.145   3.680  9.95404E-01  9.93559E-01  1.84456E-03
    9041.894     42.273   3.720  1.01087E+00  9.93081E-01  1.77872E-02
    9043.034     43.413   3.760  1.02420E+00  9.92678E-01  3.15243E-02
    9044.187     44.565   3.800  1.03459E+00  9.92331E-01  4.22623E-02
    9045.351     45.729   3.840  1.04152E+00  9.92080E-01  4.94361E-02
    9046.527     46.906   3.880  1.04488E+00  9.91885E-01  5.29953E-02
    9047.716     48.095   3.920  1.04535E+00  9.91764E-01  5.35874E-02
    9048.917     49.295   3.960  1.04391E+00  9.91719E-01  5.21907E-02
    9050.130     50.509   4.000  1.04137E+00  9.91724E-01  4.96501E-02
    9051.355     51.734   4.040  1.03812E+00  9.91801E-01  4.63230E-02
    9052.593     52.971   4.080  1.03418E+00  9.91929E-01  4.22487E-02
    9053.843     54.221   4.120  1.02970E+00  9.92128E-01  3.75733E-02
    9055.104     55.483   4.160  1.02532E+00  9.92375E-01  3.29432E-02
    9056.378     56.757   4.200  1.02202E+00  9.92691E-01  2.93329E-02
    9057.665     58.043   4.240  1.02061E+00  9.93053E-01  2.75614E-02
    9058.963     59.342   4.280  1.02141E+00  9.93458E-01  2.79538E-02
    9060.274     60.652   4.320  1.02415E+00  9.93927E-01  3.02256E-02
    9061.597     61.975   4.360  1.02800E+00  9.94415E-01  3.35864E-02
    9062.932     63.310   4.400  1.03212E+00  9.94940E-01  3.71785E-02
    9064.279     64.657   4.440  1.03603E+00  9.95502E-01  4.05237E-02
    9065.638     66.017   4.480  1.03979E+00  9.96101E-01  4.36867E-02
    9067.010     67.388   4.520  1.04378E+00  9.96733E-01  4.70467E-02
    9068.394     68.772   4.560  1.04826E+00  9.97374E-01  5.08839E-02
    9069.790     70.168   4.600  1.05290E+00  9.98020E-01  5.48767E-02
    9071.198     71.576   4.640  1.05669E+00  9.98695E-01  5.79927E-02
    9072.618     72.997   4.680  1.05811E+00  9.99375E-01  5.87354E-02
    9074.051     74.429   4.720  1.05569E+00  1.00006E+00  5.56362E-02
    9075.495     75.874   4.760  1.04861E+00  1.00076E+00  4.78522E-02
    9076.952     77.331   4.800  1.03707E+00  1.00144E+00  3.56282E-02
    9078.422     78.800   4.840  1.02246E+00  1.00212E+00  2.03443E-02
    9079.903     80.281   4.880  1.00696E+00  1.00278E+00  4.17871E-03
    9081.396     81.775   4.920  9.92900E-01  1.00342E+00 -1.05227E-02
    9082.902     83.281   4.960  9.82112E-01  1.00405E+00 -2.19391E-02
    9084.420     84.798   5.000  9.75548E-01  1.00465E+00 -2.90999E-02
    9085.950     86.329   5.040  9.73262E-01  1.00523E+00 -3.19716E-02
    9087.492     87.871   5.080  9.74546E-01  1.00578E+00 -3.12391E-02
    9089.047     89.425   5.120  9.78183E-01  1.00632E+00 -2.81388E-02
    9090.613     90.992   5.160  9.82589E-01  1.00680E+00 -2.42087E-02
    9092.192     92.571   5.200  9.86283E-01  1.00726E+00 -2.09736E-02
    9093.783     94.162   5.240  9.88043E-01  1.00768E+00 -1.96336E-02
    9095.387     95.765   5.280  9.87149E-01  1.00806E+00 -2.09066E-02
    9097.002     97.381   5.320  9.83515E-01  1.00839E+00 -2.48758E-02
    9098.630     99.008   5.360  9.77811E-01  1.00866E+00 -3.08479E-02
    9100.270    100.648   5.400  9.71335E-01  1.00891E+00 -3.75705E-02
    9101.922    102.300   5.440  9.65309E-01  1.00909E+00 -4.37781E-02
    9103.586    103.964   5.480  9.60513E-01  1.00922E+00 -4.87102E-02
    9105.262    105.641   5.520  9.57159E-01  1.00932E+00 -5.21572E-02
    9106.951    107.329   5.560  9.55208E-01  1.00937E+00 -5.41570E-02
    9108.651    109.030   5.600  9.54758E-01  1.00937E+00 -5.46111E-02
    9110.364    110.743   5.640  9.56107E-01  1.00930E+00 -5.31972E-02
    9112.090    112.468   5.680  9.59233E-01  1.00919E+00 -4.99612E-02
    9113.827    114.205   5.720  9.64104E-01  1.00904E+00 -4.49393E-02
    9115.577    115.955   5.760  9.70202E-01  1.00885E+00 -3.86473E-02
    9117.338    117.717   5.800  9.76811E-01  1.00861E+00 -3.18014E-02
    9119.112    119.491   5.840  9.83277E-01  1.00831E+00 -2.50331E-02
    9120.898    121.277   5.880  9.89372E-01  1.00799E+00 -1.86208E-02
    9122.697    123.075   5.920  9.95267E-01  1.00762E+00 -1.23493E-02
    9124.507    124.886   5.960  1.00140E+00  1.00723E+00 -5.82256E-03
    9126.330    126.708   6.000  1.00866E+00  1.00674E+00  1.91973E-03
