# # comment:                                                     FEFF 9.9.1  
# # Source:
# # Structure
# # Reduced
# # space
# # abc:
# # angles:
# # sites:
# # POT  SCF 100  7.0000   0, screened core-hole, AFOLP (folp(0)= 1.150)
# # Abs   Z=29 Rmt= 1.342 Rnm= 1.401 K  shell
# # Pot 1 Z= 3 Rmt= 1.254 Rnm= 1.314
# # Pot 2 Z=29 Rmt= 1.351 Rnm= 1.410
# # Pot 3 Z=15 Rmt= 0.945 Rnm= 1.155
# # Pot 4 Z= 8 Rmt= 0.941 Rnm= 1.039
# # Gam_ch=1.729E+00 H-L exch Vi= 0.000E+00 Vr= 0.000E+00
# # Mu=-6.338E+00eV kf=2.374E+00 Vint=-1.740E+01eV Rs_int= 1.528
# FMS rfms= 9.0000
# # PATH  Rmax=-1.000,  Keep_limit= 0.00, Heap_limit 0.00  Pwcrit= 2.50%
#  S02=0.950  Temp=   0.00  Debye_temp=   0.00  Global_sig2= 0.00000
#  Energy zero shift, vr, vi    0.00000E+00   0.00000E+00
#  Curved wave amplitude ratio filter   4.000%
#     file         sig2 tot  cw amp ratio   deg  nlegs   reff  inp sig2
#     0/   0 paths used
#  xsedge+ 50, used to normalize mu           2.4677E-04
#  -----------------------------------------------------------------------
#  omega    e    k    mu    mu0     chi     @#
    8983.728    -10.148  -1.000  4.86334E-02  5.48588E-02 -6.22541E-03
    8984.026     -9.850  -0.960  5.16821E-02  5.88827E-02 -7.20057E-03
    8984.313     -9.563  -0.920  5.50151E-02  6.33593E-02 -8.34423E-03
    8984.587     -9.289  -0.880  5.86682E-02  6.83558E-02 -9.68753E-03
    8984.849     -9.027  -0.840  6.26831E-02  7.39506E-02 -1.12675E-02
    8985.099     -8.777  -0.800  6.71069E-02  8.02347E-02 -1.31279E-02
    8985.337     -8.539  -0.760  7.19928E-02  8.73127E-02 -1.53199E-02
    8985.563     -8.313  -0.720  7.73999E-02  9.53026E-02 -1.79027E-02
    8985.776     -8.100  -0.680  8.33923E-02  1.04335E-01 -2.09426E-02
    8985.977     -7.899  -0.640  9.00358E-02  1.14547E-01 -2.45113E-02
    8986.166     -7.710  -0.600  9.73934E-02  1.26075E-01 -2.86815E-02
    8986.343     -7.533  -0.560  1.05517E-01  1.39034E-01 -3.35176E-02
    8986.507     -7.369  -0.520  1.14431E-01  1.53494E-01 -3.90627E-02
    8986.660     -7.216  -0.480  1.24122E-01  1.69441E-01 -4.53193E-02
    8986.800     -7.076  -0.440  1.34507E-01  1.86734E-01 -5.22271E-02
    8986.928     -6.948  -0.400  1.45425E-01  2.05070E-01 -5.96446E-02
    8987.044     -6.832  -0.360  1.56627E-01  2.23972E-01 -6.73445E-02
    8987.148     -6.729  -0.320  1.67789E-01  2.42821E-01 -7.50317E-02
    8987.239     -6.637  -0.280  1.78544E-01  2.60929E-01 -8.23846E-02
    8987.318     -6.558  -0.240  1.88531E-01  2.77637E-01 -8.91060E-02
    8987.385     -6.491  -0.200  1.97430E-01  2.92395E-01 -9.49648E-02
    8987.440     -6.436  -0.160  2.04986E-01  3.04801E-01 -9.98153E-02
    8987.483     -6.393  -0.120  2.11012E-01  3.14603E-01 -1.03591E-01
    8987.513     -6.363  -0.080  2.15382E-01  3.21660E-01 -1.06278E-01
    8987.538     -6.338   0.000  2.18906E-01  3.27327E-01 -1.08421E-01
    8987.593     -6.284   0.120  2.27135E-01  3.40092E-01 -1.12957E-01
    8987.635     -6.241   0.160  2.33571E-01  3.50008E-01 -1.16437E-01
    8987.690     -6.186   0.200  2.41906E-01  3.62652E-01 -1.20746E-01
    8987.757     -6.119   0.240  2.52139E-01  3.77839E-01 -1.25699E-01
    8987.836     -6.040   0.280  2.64234E-01  3.95246E-01 -1.31013E-01
    8987.928     -5.948   0.320  2.78108E-01  4.14386E-01 -1.36278E-01
    8988.031     -5.845   0.360  2.93655E-01  4.34704E-01 -1.41048E-01
    8988.147     -5.729   0.400  3.10757E-01  4.55566E-01 -1.44810E-01
    8988.275     -5.601   0.440  3.29273E-01  4.76417E-01 -1.47143E-01
    8988.416     -5.461   0.480  3.49026E-01  4.96824E-01 -1.47798E-01
    8988.568     -5.308   0.520  3.69638E-01  5.16476E-01 -1.46838E-01
    8988.733     -5.144   0.560  3.90490E-01  5.35290E-01 -1.44799E-01
    8988.909     -4.967   0.600  4.10545E-01  5.53213E-01 -1.42668E-01
    8989.098     -4.778   0.640  4.28604E-01  5.70311E-01 -1.41707E-01
    8989.299     -4.577   0.680  4.43684E-01  5.86691E-01 -1.43007E-01
    8989.513     -4.363   0.720  4.55506E-01  6.02431E-01 -1.46925E-01
    8989.738     -4.138   0.760  4.65111E-01  6.17672E-01 -1.52561E-01
    8989.976     -3.900   0.800  4.74771E-01  6.32482E-01 -1.57711E-01
    8990.226     -3.650   0.840  4.87683E-01  6.46958E-01 -1.59275E-01
    8990.488     -3.388   0.880  5.06964E-01  6.61182E-01 -1.54218E-01
    8990.762     -3.114   0.920  5.34230E-01  6.75203E-01 -1.40972E-01
    8991.049     -2.827   0.960  5.68425E-01  6.89033E-01 -1.20608E-01
    8991.348     -2.528   1.000  6.05576E-01  7.02738E-01 -9.71619E-02
    8991.659     -2.217   1.040  6.39945E-01  7.16291E-01 -7.63466E-02
    8991.982     -1.894   1.080  6.66978E-01  7.29760E-01 -6.27817E-02
    8992.317     -1.559   1.120  6.85923E-01  7.43080E-01 -5.71570E-02
    8992.664     -1.212   1.160  7.02264E-01  7.56307E-01 -5.40430E-02
    8993.024     -0.852   1.200  7.25340E-01  7.69388E-01 -4.40480E-02
    8993.396     -0.480   1.240  7.62469E-01  7.82346E-01 -1.98767E-02
    8993.780     -0.096   1.280  8.12916E-01  7.95142E-01  1.77738E-02
    8994.176      0.300   1.320  8.68411E-01  8.07734E-01  6.06765E-02
    8994.585      0.709   1.360  9.22786E-01  8.20159E-01  1.02627E-01
    8995.005      1.129   1.400  9.74855E-01  8.32352E-01  1.42502E-01
    8995.438      1.562   1.440  1.02167E+00  8.44285E-01  1.77388E-01
    8995.883      2.007   1.480  1.06208E+00  8.55972E-01  2.06108E-01
    8996.340      2.464   1.520  1.10487E+00  8.67363E-01  2.37511E-01
    8996.810      2.934   1.560  1.15652E+00  8.78432E-01  2.78087E-01
    8997.291      3.415   1.600  1.21085E+00  8.89191E-01  3.21656E-01
    8997.785      3.909   1.640  1.26049E+00  8.99571E-01  3.60914E-01
    8998.291      4.415   1.680  1.29720E+00  9.09604E-01  3.87595E-01
    8998.809      4.933   1.720  1.31038E+00  9.19224E-01  3.91152E-01
    8999.340      5.463   1.760  1.29772E+00  9.28446E-01  3.69272E-01
    8999.882      6.006   1.800  1.26172E+00  9.37264E-01  3.24456E-01
    9000.437      6.561   1.840  1.20556E+00  9.45632E-01  2.59923E-01
    9001.004      7.128   1.880  1.14095E+00  9.53568E-01  1.87379E-01
    9001.583      7.707   1.920  1.08417E+00  9.61070E-01  1.23104E-01
    9002.174      8.298   1.960  1.04676E+00  9.68117E-01  7.86391E-02
    9002.778      8.902   2.000  1.03171E+00  9.74707E-01  5.70039E-02
    9003.393      9.517   2.040  1.03752E+00  9.80861E-01  5.66623E-02
    9004.021     10.145   2.080  1.05620E+00  9.86561E-01  6.96394E-02
    9004.661     10.785   2.120  1.07462E+00  9.91809E-01  8.28072E-02
    9005.314     11.437   2.160  1.08115E+00  9.96608E-01  8.45417E-02
    9005.978     12.102   2.200  1.07160E+00  1.00098E+00  7.06202E-02
    9006.655     12.779   2.240  1.05211E+00  1.00494E+00  4.71744E-02
    9007.344     13.467   2.280  1.03326E+00  1.00848E+00  2.47794E-02
    9008.045     14.168   2.320  1.02096E+00  1.01161E+00  9.34427E-03
    9008.758     14.882   2.360  1.01338E+00  1.01437E+00 -9.88836E-04
    9009.483     15.607   2.400  1.00479E+00  1.01673E+00 -1.19362E-02
    9010.221     16.345   2.440  9.91801E-01  1.01875E+00 -2.69467E-02
    9010.971     17.095   2.480  9.77358E-01  1.02043E+00 -4.30729E-02
    9011.733     17.857   2.520  9.66685E-01  1.02179E+00 -5.51019E-02
    9012.507     18.631   2.560  9.60422E-01  1.02285E+00 -6.24243E-02
    9013.293     19.417   2.600  9.55651E-01  1.02362E+00 -6.79666E-02
    9014.092     20.216   2.640  9.51271E-01  1.02411E+00 -7.28364E-02
    9014.903     21.026   2.680  9.47742E-01  1.02435E+00 -7.66045E-02
    9015.725     21.849   2.720  9.42813E-01  1.02435E+00 -8.15327E-02
    9016.561     22.685   2.760  9.33869E-01  1.02413E+00 -9.02640E-02
    9017.408     23.532   2.800  9.24576E-01  1.02372E+00 -9.91416E-02
    9018.268     24.391   2.840  9.18565E-01  1.02313E+00 -1.04565E-01
    9019.139     25.263   2.880  9.16573E-01  1.02238E+00 -1.05806E-01
    9020.023     26.147   2.920  9.17945E-01  1.02150E+00 -1.03551E-01
    9020.919     27.043   2.960  9.20741E-01  1.02048E+00 -9.97428E-02
    9021.828     27.951   3.000  9.23840E-01  1.01933E+00 -9.54927E-02
    9022.748     28.872   3.040  9.26963E-01  1.01811E+00 -9.11479E-02
    9023.681     29.805   3.080  9.30128E-01  1.01679E+00 -8.66582E-02
    9024.626     30.750   3.120  9.33684E-01  1.01541E+00 -8.17234E-02
    9025.583     31.707   3.160  9.37896E-01  1.01398E+00 -7.60850E-02
    9026.552     32.676   3.200  9.42680E-01  1.01251E+00 -6.98322E-02
    9027.533     33.657   3.240  9.48056E-01  1.01101E+00 -6.29518E-02
    9028.527     34.651   3.280  9.54025E-01  1.00950E+00 -5.54704E-02
    9029.533     35.657   3.320  9.60466E-01  1.00798E+00 -4.75122E-02
    9030.551     36.675   3.360  9.67272E-01  1.00646E+00 -3.91896E-02
    9031.581     37.705   3.400  9.74292E-01  1.00495E+00 -3.06590E-02
    9032.624     38.747   3.440  9.81366E-01  1.00347E+00 -2.21056E-02
    9033.678     39.802   3.480  9.88543E-01  1.00202E+00 -1.34814E-02
    9034.745     40.869   3.520  9.96066E-01  1.00060E+00 -4.53071E-03
    9035.824     41.948   3.560  1.00431E+00  9.99233E-01  5.08035E-03
    9036.915     43.039   3.600  1.01353E+00  9.97938E-01  1.55905E-02
    9038.018     44.142   3.640  1.02374E+00  9.96691E-01  2.70530E-02
    9039.134     45.258   3.680  1.03486E+00  9.95493E-01  3.93624E-02
    9040.262     46.386   3.720  1.04658E+00  9.94368E-01  5.22118E-02
    9041.402     47.526   3.760  1.05849E+00  9.93320E-01  6.51743E-02
    9042.554     48.678   3.800  1.06995E+00  9.92352E-01  7.76019E-02
    9043.718     49.842   3.840  1.08007E+00  9.91462E-01  8.86124E-02
    9044.895     51.019   3.880  1.08804E+00  9.90651E-01  9.73856E-02
    9046.083     52.207   3.920  1.09330E+00  9.89921E-01  1.03382E-01
    9047.284     53.408   3.960  1.09565E+00  9.89272E-01  1.06377E-01
    9048.497     54.621   4.000  1.09507E+00  9.88704E-01  1.06366E-01
    9049.723     55.847   4.040  1.09179E+00  9.88218E-01  1.03577E-01
    9050.960     57.084   4.080  1.08603E+00  9.87814E-01  9.82180E-02
    9052.210     58.334   4.120  1.07797E+00  9.87514E-01  9.04534E-02
    9053.472     59.596   4.160  1.06768E+00  9.87274E-01  8.04085E-02
    9054.746     60.870   4.200  1.05539E+00  9.87136E-01  6.82574E-02
    9056.032     62.156   4.240  1.04121E+00  9.87056E-01  5.41556E-02
    9057.331     63.454   4.280  1.02545E+00  9.87075E-01  3.83777E-02
    9058.641     64.765   4.320  1.00856E+00  9.87152E-01  2.14035E-02
    9059.964     66.088   4.360  9.91246E-01  9.87304E-01  3.94164E-03
    9061.299     67.423   4.400  9.74484E-01  9.87530E-01 -1.30462E-02
    9062.646     68.770   4.440  9.59299E-01  9.87809E-01 -2.85105E-02
    9064.006     70.130   4.480  9.46503E-01  9.88161E-01 -4.16574E-02
    9065.377     71.501   4.520  9.36505E-01  9.88582E-01 -5.20777E-02
    9066.761     72.885   4.560  9.29329E-01  9.89050E-01 -5.97203E-02
    9068.157     74.281   4.600  9.24765E-01  9.89561E-01 -6.47956E-02
    9069.565     75.689   4.640  9.22481E-01  9.90113E-01 -6.76320E-02
    9070.985     77.109   4.680  9.22154E-01  9.90703E-01 -6.85499E-02
    9072.418     78.542   4.720  9.23428E-01  9.91330E-01 -6.79020E-02
    9073.863     79.987   4.760  9.26085E-01  9.91972E-01 -6.58864E-02
    9075.320     81.444   4.800  9.30173E-01  9.92668E-01 -6.24947E-02
    9076.789     82.913   4.840  9.35793E-01  9.93373E-01 -5.75795E-02
    9078.270     84.394   4.880  9.43106E-01  9.94082E-01 -5.09760E-02
    9079.764     85.888   4.920  9.52091E-01  9.94793E-01 -4.27013E-02
    9081.269     87.393   4.960  9.62363E-01  9.95503E-01 -3.31398E-02
    9082.787     88.911   5.000  9.73273E-01  9.96214E-01 -2.29411E-02
    9084.317     90.441   5.040  9.84013E-01  9.96943E-01 -1.29304E-02
    9085.860     91.984   5.080  9.93722E-01  9.97623E-01 -3.90040E-03
    9087.414     93.538   5.120  1.00187E+00  9.98313E-01  3.56066E-03
    9088.981     95.105   5.160  1.00814E+00  9.98951E-01  9.18450E-03
    9090.560     96.684   5.200  1.01263E+00  9.99598E-01  1.30275E-02
    9092.151     98.275   5.240  1.01555E+00  1.00018E+00  1.53712E-02
    9093.754     99.878   5.280  1.01724E+00  1.00073E+00  1.65123E-02
    9095.369    101.493   5.320  1.01783E+00  1.00123E+00  1.65994E-02
    9096.997    103.121   5.360  1.01727E+00  1.00172E+00  1.55466E-02
    9098.637    104.761   5.400  1.01524E+00  1.00214E+00  1.30960E-02
    9100.289    106.413   5.440  1.01155E+00  1.00251E+00  9.04026E-03
    9101.953    108.077   5.480  1.00632E+00  1.00282E+00  3.50091E-03
    9103.629    109.753   5.520  1.00008E+00  1.00307E+00 -2.99750E-03
    9105.318    111.442   5.560  9.93562E-01  1.00328E+00 -9.72036E-03
    9107.019    113.143   5.600  9.87499E-01  1.00342E+00 -1.59201E-02
    9108.732    114.856   5.640  9.82603E-01  1.00351E+00 -2.09024E-02
    9110.457    116.581   5.680  9.79497E-01  1.00352E+00 -2.40223E-02
    9112.194    118.318   5.720  9.78709E-01  1.00346E+00 -2.47507E-02
    9113.944    120.068   5.760  9.80564E-01  1.00335E+00 -2.27867E-02
    9115.706    121.829   5.800  9.85083E-01  1.00319E+00 -1.81087E-02
    9117.479    123.603   5.840  9.91945E-01  1.00294E+00 -1.09949E-02
    9119.266    125.390   5.880  1.00063E+00  1.00266E+00 -2.03777E-03
    9121.064    127.188   5.920  1.01024E+00  1.00230E+00  7.94616E-03
    9122.874    128.998   5.960  1.01997E+00  1.00191E+00  1.80597E-02
    9124.697    130.821   6.000  1.02896E+00  1.00140E+00  2.75610E-02
