# # comment:                                                     FEFF 9.9.1  
# # Source:
# # Structure
# # Reduced
# # space
# # abc:
# # angles:130.838453
# # sites:
# # POT  SCF 100  7.0000   0, screened core-hole, AFOLP (folp(0)= 1.150)
# # Abs   Z=29 Rmt= 1.224 Rnm= 1.309 K  shell
# # Pot 1 Z=38 Rmt= 1.760 Rnm= 1.823
# # Pot 2 Z=29 Rmt= 1.224 Rnm= 1.309
# # Pot 3 Z= 6 Rmt= 0.663 Rnm= 0.916
# # Pot 4 Z= 8 Rmt= 1.071 Rnm= 1.122
# # Gam_ch=1.729E+00 H-L exch Vi= 0.000E+00 Vr= 0.000E+00
# # Mu=-1.012E+01eV kf=2.186E+00 Vint=-1.847E+01eV Rs_int= 1.659
# FMS rfms= 9.0000
# # PATH  Rmax=-1.000,  Keep_limit= 0.00, Heap_limit 0.00  Pwcrit= 2.50%
#  S02=0.950  Temp=   0.00  Debye_temp=   0.00  Global_sig2= 0.00000
#  Energy zero shift, vr, vi    0.00000E+00   0.00000E+00
#  Curved wave amplitude ratio filter   4.000%
#     file         sig2 tot  cw amp ratio   deg  nlegs   reff  inp sig2
#     0/   0 paths used
#  xsedge+ 50, used to normalize mu           2.4717E-04
#  -----------------------------------------------------------------------
#  omega    e    k    mu    mu0     chi     @#
    8984.936    -13.933  -1.000  3.65531E-02  5.13857E-02 -1.48327E-02
    8985.235    -13.634  -0.960  3.84447E-02  5.50461E-02 -1.66014E-02
    8985.521    -13.348  -0.920  4.04794E-02  5.91075E-02 -1.86281E-02
    8985.795    -13.073  -0.880  4.26728E-02  6.36284E-02 -2.09556E-02
    8986.058    -12.811  -0.840  4.50427E-02  6.86768E-02 -2.36341E-02
    8986.307    -12.561  -0.800  4.76097E-02  7.43316E-02 -2.67219E-02
    8986.545    -12.323  -0.760  5.03967E-02  8.06830E-02 -3.02862E-02
    8986.771    -12.098  -0.720  5.34294E-02  8.78331E-02 -3.44037E-02
    8986.984    -11.885  -0.680  5.67353E-02  9.58940E-02 -3.91587E-02
    8987.185    -11.683  -0.640  6.03431E-02  1.04984E-01 -4.46411E-02
    8987.374    -11.494  -0.600  6.42800E-02  1.15220E-01 -5.09398E-02
    8987.551    -11.318  -0.560  6.85675E-02  1.26699E-01 -5.81320E-02
    8987.716    -11.153  -0.520  7.32155E-02  1.39482E-01 -6.62660E-02
    8987.868    -11.001  -0.480  7.82138E-02  1.53552E-01 -7.53384E-02
    8988.008    -10.860  -0.440  8.35216E-02  1.68788E-01 -8.52663E-02
    8988.136    -10.732  -0.400  8.90595E-02  1.84925E-01 -9.58657E-02
    8988.252    -10.617  -0.360  9.47053E-02  2.01550E-01 -1.06845E-01
    8988.356    -10.513  -0.320  1.00301E-01  2.18124E-01 -1.17824E-01
    8988.447    -10.422  -0.280  1.05666E-01  2.34051E-01 -1.28385E-01
    8988.526    -10.342  -0.240  1.10625E-01  2.48755E-01 -1.38129E-01
    8988.593    -10.275  -0.200  1.15024E-01  2.61752E-01 -1.46729E-01
    8988.648    -10.220  -0.160  1.18743E-01  2.72690E-01 -1.53947E-01
    8988.691    -10.178  -0.120  1.21702E-01  2.81339E-01 -1.59638E-01
    8988.721    -10.147  -0.080  1.23852E-01  2.87573E-01 -1.63720E-01
    8988.746    -10.123   0.000  1.25617E-01  2.92582E-01 -1.66965E-01
    8988.801    -10.068   0.120  1.29514E-01  3.03881E-01 -1.74367E-01
    8988.843    -10.025   0.160  1.32492E-01  3.12672E-01 -1.80180E-01
    8988.898     -9.970   0.200  1.36247E-01  3.23884E-01 -1.87636E-01
    8988.965     -9.903   0.240  1.40755E-01  3.37414E-01 -1.96659E-01
    8989.045     -9.824   0.280  1.45846E-01  3.52962E-01 -2.07115E-01
    8989.136     -9.733   0.320  1.51343E-01  3.70167E-01 -2.18824E-01
    8989.240     -9.629   0.360  1.56948E-01  3.88514E-01 -2.31566E-01
    8989.355     -9.513   0.400  1.62475E-01  4.07537E-01 -2.45062E-01
    8989.483     -9.385   0.440  1.67738E-01  4.26732E-01 -2.58995E-01
    8989.624     -9.245   0.480  1.72865E-01  4.45742E-01 -2.72877E-01
    8989.776     -9.093   0.520  1.78397E-01  4.64341E-01 -2.85943E-01
    8989.941     -8.928   0.560  1.85222E-01  4.82401E-01 -2.97180E-01
    8990.117     -8.751   0.600  1.94525E-01  4.99915E-01 -3.05390E-01
    8990.306     -8.562   0.640  2.07580E-01  5.16913E-01 -3.09333E-01
    8990.508     -8.361   0.680  2.25645E-01  5.33459E-01 -3.07813E-01
    8990.721     -8.148   0.720  2.49708E-01  5.49646E-01 -2.99939E-01
    8990.947     -7.922   0.760  2.79799E-01  5.65552E-01 -2.85753E-01
    8991.184     -7.684   0.800  3.14219E-01  5.81238E-01 -2.67019E-01
    8991.434     -7.434   0.840  3.50082E-01  5.96760E-01 -2.46678E-01
    8991.696     -7.172   0.880  3.85384E-01  6.12177E-01 -2.26793E-01
    8991.971     -6.898   0.920  4.19724E-01  6.27477E-01 -2.07754E-01
    8992.257     -6.612   0.960  4.52984E-01  6.42718E-01 -1.89734E-01
    8992.556     -6.313   1.000  4.85035E-01  6.57908E-01 -1.72873E-01
    8992.867     -6.002   1.040  5.15463E-01  6.73006E-01 -1.57543E-01
    8993.190     -5.679   1.080  5.42103E-01  6.88023E-01 -1.45920E-01
    8993.525     -5.344   1.120  5.64303E-01  7.02968E-01 -1.38665E-01
    8993.873     -4.996   1.160  5.84084E-01  7.17779E-01 -1.33695E-01
    8994.232     -4.636   1.200  5.97554E-01  7.32456E-01 -1.34901E-01
    8994.604     -4.265   1.240  5.94253E-01  7.46953E-01 -1.52701E-01
    8994.988     -3.881   1.280  5.73054E-01  7.61265E-01 -1.88211E-01
    8995.384     -3.484   1.320  5.46523E-01  7.75340E-01 -2.28817E-01
    8995.793     -3.076   1.360  5.27568E-01  7.89168E-01 -2.61600E-01
    8996.213     -2.655   1.400  5.21815E-01  8.02699E-01 -2.80885E-01
    8996.646     -2.222   1.440  5.32756E-01  8.15904E-01 -2.83148E-01
    8997.091     -1.777   1.480  5.66345E-01  8.28790E-01 -2.62444E-01
    8997.548     -1.320   1.520  6.22299E-01  8.41286E-01 -2.18987E-01
    8998.018     -0.851   1.560  6.90216E-01  8.53383E-01 -1.63167E-01
    8998.499     -0.369   1.600  7.59449E-01  8.65071E-01 -1.05621E-01
    8998.993      0.125   1.640  8.20614E-01  8.76301E-01 -5.56870E-02
    8999.499      0.630   1.680  8.66620E-01  8.87089E-01 -2.04692E-02
    9000.017      1.149   1.720  9.03066E-01  8.97407E-01  5.65830E-03
    9000.548      1.679   1.760  9.57156E-01  9.07232E-01  4.99246E-02
    9001.090      2.222   1.800  1.05939E+00  9.16579E-01  1.42809E-01
    9001.645      2.776   1.840  1.20975E+00  9.25425E-01  2.84321E-01
    9002.212      3.343   1.880  1.34953E+00  9.33772E-01  4.15760E-01
    9002.791      3.922   1.920  1.41415E+00  9.41619E-01  4.72532E-01
    9003.382      4.514   1.960  1.40399E+00  9.48970E-01  4.55017E-01
    9003.986      5.117   2.000  1.35383E+00  9.55823E-01  3.98007E-01
    9004.602      5.733   2.040  1.29850E+00  9.62186E-01  3.36314E-01
    9005.229      6.361   2.080  1.25437E+00  9.68083E-01  2.86289E-01
    9005.869      7.001   2.120  1.21709E+00  9.73498E-01  2.43587E-01
    9006.522      7.653   2.160  1.17854E+00  9.78481E-01  2.00054E-01
    9007.186      8.318   2.200  1.13938E+00  9.83017E-01  1.56361E-01
    9007.863      8.994   2.240  1.10882E+00  9.87114E-01  1.21709E-01
    9008.552      9.683   2.280  1.09380E+00  9.90801E-01  1.02998E-01
    9009.253     10.384   2.320  1.09430E+00  9.94105E-01  1.00194E-01
    9009.966     11.097   2.360  1.09946E+00  9.97038E-01  1.02423E-01
    9010.691     11.823   2.400  1.09850E+00  9.99608E-01  9.88946E-02
    9011.429     12.560   2.440  1.09571E+00  1.00184E+00  9.38702E-02
    9012.179     13.310   2.480  1.10158E+00  1.00375E+00  9.78236E-02
    9012.941     14.072   2.520  1.11344E+00  1.00535E+00  1.08090E-01
    9013.715     14.846   2.560  1.11401E+00  1.00668E+00  1.07330E-01
    9014.501     15.633   2.600  1.09378E+00  1.00776E+00  8.60126E-02
    9015.300     16.431   2.640  1.06487E+00  1.00858E+00  5.62938E-02
    9016.111     17.242   2.680  1.03801E+00  1.00920E+00  2.88111E-02
    9016.934     18.065   2.720  1.01614E+00  1.00959E+00  6.55179E-03
    9017.769     18.900   2.760  9.99240E-01  1.00978E+00 -1.05412E-02
    9018.616     19.747   2.800  9.85485E-01  1.00981E+00 -2.43205E-02
    9019.476     20.607   2.840  9.72941E-01  1.00969E+00 -3.67490E-02
    9020.347     21.479   2.880  9.60004E-01  1.00942E+00 -4.94176E-02
    9021.231     22.363   2.920  9.45764E-01  1.00903E+00 -6.32630E-02
    9022.127     23.259   2.960  9.30098E-01  1.00851E+00 -7.84168E-02
    9023.036     24.167   3.000  9.13839E-01  1.00791E+00 -9.40732E-02
    9023.956     25.088   3.040  8.98204E-01  1.00723E+00 -1.09023E-01
    9024.889     26.020   3.080  8.84533E-01  1.00648E+00 -1.21950E-01
    9025.834     26.965   3.120  8.73702E-01  1.00565E+00 -1.31947E-01
    9026.791     27.922   3.160  8.65905E-01  1.00479E+00 -1.38883E-01
    9027.760     28.891   3.200  8.60875E-01  1.00389E+00 -1.43013E-01
    9028.742     29.873   3.240  8.58556E-01  1.00295E+00 -1.44395E-01
    9029.735     30.867   3.280  8.58720E-01  1.00200E+00 -1.43284E-01
    9030.741     31.872   3.320  8.61126E-01  1.00103E+00 -1.39904E-01
    9031.759     32.890   3.360  8.66045E-01  1.00007E+00 -1.34027E-01
    9032.789     33.921   3.400  8.73755E-01  9.99096E-01 -1.25340E-01
    9033.832     34.963   3.440  8.84379E-01  9.98146E-01 -1.13766E-01
    9034.886     36.018   3.480  8.98030E-01  9.97225E-01 -9.91945E-02
    9035.953     37.084   3.520  9.14664E-01  9.96313E-01 -8.16490E-02
    9037.032     38.163   3.560  9.33726E-01  9.95433E-01 -6.17066E-02
    9038.123     39.255   3.600  9.53945E-01  9.94568E-01 -4.06232E-02
    9039.227     40.358   3.640  9.73534E-01  9.93762E-01 -2.02281E-02
    9040.342     41.474   3.680  9.90578E-01  9.92973E-01 -2.39493E-03
    9041.470     42.601   3.720  1.00365E+00  9.92245E-01  1.14050E-02
    9042.610     43.741   3.760  1.01218E+00  9.91539E-01  2.06366E-02
    9043.762     44.893   3.800  1.01654E+00  9.90897E-01  2.56395E-02
    9044.926     46.058   3.840  1.01792E+00  9.90322E-01  2.76007E-02
    9046.103     47.234   3.880  1.01782E+00  9.89770E-01  2.80514E-02
    9047.292     48.423   3.920  1.01764E+00  9.89283E-01  2.83597E-02
    9048.493     49.624   3.960  1.01829E+00  9.88843E-01  2.94467E-02
    9049.706     50.837   4.000  1.02038E+00  9.88471E-01  3.19106E-02
    9050.931     52.062   4.040  1.02403E+00  9.88143E-01  3.58842E-02
    9052.168     53.300   4.080  1.02896E+00  9.87860E-01  4.10974E-02
    9053.418     54.549   4.120  1.03464E+00  9.87622E-01  4.70213E-02
    9054.680     55.811   4.160  1.04049E+00  9.87450E-01  5.30428E-02
    9055.954     57.085   4.200  1.04590E+00  9.87326E-01  5.85754E-02
    9057.240     58.372   4.240  1.05040E+00  9.87266E-01  6.31343E-02
    9058.539     59.670   4.280  1.05368E+00  9.87228E-01  6.64472E-02
    9059.849     60.981   4.320  1.05570E+00  9.87255E-01  6.84459E-02
    9061.172     62.303   4.360  1.05662E+00  9.87324E-01  6.93004E-02
    9062.507     63.638   4.400  1.05693E+00  9.87433E-01  6.95010E-02
    9063.854     64.986   4.440  1.05716E+00  9.87581E-01  6.95832E-02
    9065.214     66.345   4.480  1.05750E+00  9.87769E-01  6.97280E-02
    9066.585     67.717   4.520  1.05760E+00  9.87993E-01  6.96093E-02
    9067.969     69.100   4.560  1.05687E+00  9.88232E-01  6.86397E-02
    9069.365     70.496   4.600  1.05465E+00  9.88528E-01  6.61240E-02
    9070.773     71.905   4.640  1.05037E+00  9.88835E-01  6.15361E-02
    9072.194     73.325   4.680  1.04362E+00  9.89152E-01  5.44683E-02
    9073.626     74.758   4.720  1.03418E+00  9.89523E-01  4.46527E-02
    9075.071     76.202   4.760  1.02194E+00  9.89881E-01  3.20545E-02
    9076.528     77.659   4.800  1.00740E+00  9.90288E-01  1.71162E-02
    9077.997     79.128   4.840  9.91606E-01  9.90680E-01  9.25768E-04
    9079.478     80.610   4.880  9.76210E-01  9.91094E-01 -1.48841E-02
    9080.972     82.103   4.920  9.62826E-01  9.91489E-01 -2.86638E-02
    9082.478     83.609   4.960  9.52608E-01  9.91907E-01 -3.92992E-02
    9083.995     85.127   5.000  9.45992E-01  9.92327E-01 -4.63349E-02
    9085.526     86.657   5.040  9.42863E-01  9.92744E-01 -4.98810E-02
    9087.068     88.199   5.080  9.42904E-01  9.93158E-01 -5.02549E-02
    9088.622     89.754   5.120  9.45591E-01  9.93548E-01 -4.79567E-02
    9090.189     91.320   5.160  9.50205E-01  9.93952E-01 -4.37469E-02
    9091.768     92.899   5.200  9.55701E-01  9.94328E-01 -3.86267E-02
    9093.359     94.490   5.240  9.60983E-01  9.94672E-01 -3.36890E-02
    9094.962     96.093   5.280  9.65080E-01  9.95008E-01 -2.99281E-02
    9096.578     97.709   5.320  9.67307E-01  9.95335E-01 -2.80280E-02
    9098.205     99.337   5.360  9.67577E-01  9.95628E-01 -2.80512E-02
    9099.845    100.976   5.400  9.66486E-01  9.95887E-01 -2.94014E-02
    9101.497    102.628   5.440  9.65013E-01  9.96133E-01 -3.11205E-02
    9103.161    104.293   5.480  9.63972E-01  9.96344E-01 -3.23720E-02
    9104.838    105.969   5.520  9.63886E-01  9.96517E-01 -3.26307E-02
    9106.526    107.658   5.560  9.65051E-01  9.96654E-01 -3.16024E-02
    9108.227    109.358   5.600  9.67662E-01  9.96777E-01 -2.91152E-02
    9109.940    111.071   5.640  9.71555E-01  9.96863E-01 -2.53088E-02
    9111.665    112.796   5.680  9.76137E-01  9.96911E-01 -2.07737E-02
    9113.402    114.534   5.720  9.80457E-01  9.96920E-01 -1.64630E-02
    9115.152    116.283   5.760  9.83545E-01  9.96889E-01 -1.33438E-02
    9116.914    118.045   5.800  9.84701E-01  9.96819E-01 -1.21176E-02
    9118.688    119.819   5.840  9.83690E-01  9.96713E-01 -1.30225E-02
    9120.474    121.605   5.880  9.80906E-01  9.96594E-01 -1.56877E-02
    9122.272    123.403   5.920  9.77337E-01  9.96414E-01 -1.90776E-02
    9124.083    125.214   5.960  9.74085E-01  9.96219E-01 -2.21339E-02
    9125.905    127.037   6.000  9.73249E-01  9.95937E-01 -2.26883E-02
