# # comment:                                                     FEFF 9.9.1  
# # Source:
# # Structure
# # Reduced
# # space
# # abc:
# # angles:
# # sites:
# # POT  SCF 100  7.0000   0, screened core-hole, AFOLP (folp(0)= 1.150)
# # Abs   Z=29 Rmt= 1.244 Rnm= 1.332 K  shell
# # Pot 1 Z=57 Rmt= 1.750 Rnm= 1.833
# # Pot 2 Z=29 Rmt= 1.225 Rnm= 1.315
# # Pot 3 Z= 8 Rmt= 1.059 Rnm= 1.121
# # Gam_ch=1.729E+00 H-L exch Vi= 0.000E+00 Vr= 0.000E+00
# # Mu=-7.919E+00eV kf=2.008E+00 Vint=-1.683E+01eV Rs_int= 1.806
# FMS rfms= 9.0000
# # PATH  Rmax=-1.000,  Keep_limit= 0.00, Heap_limit 0.00  Pwcrit= 2.50%
#  S02=0.950  Temp=   0.00  Debye_temp=   0.00  Global_sig2= 0.00000
#  Energy zero shift, vr, vi    0.00000E+00   0.00000E+00
#  Curved wave amplitude ratio filter   4.000%
#     file         sig2 tot  cw amp ratio   deg  nlegs   reff  inp sig2
#     0/   0 paths used
#  xsedge+ 50, used to normalize mu           2.4586E-04
#  -----------------------------------------------------------------------
#  omega    e    k    mu    mu0     chi     @#
    8984.307    -11.729  -1.000  4.25466E-02  5.47776E-02 -1.22310E-02
    8984.606    -11.431  -0.960  4.51707E-02  5.87846E-02 -1.36139E-02
    8984.893    -11.144  -0.920  4.80604E-02  6.32393E-02 -1.51790E-02
    8985.167    -10.870  -0.880  5.12555E-02  6.82078E-02 -1.69523E-02
    8985.429    -10.608  -0.840  5.48036E-02  7.37671E-02 -1.89635E-02
    8985.679    -10.358  -0.800  5.87601E-02  8.00061E-02 -2.12460E-02
    8985.917    -10.120  -0.760  6.31898E-02  8.70272E-02 -2.38374E-02
    8986.142     -9.894  -0.720  6.81673E-02  9.49460E-02 -2.67787E-02
    8986.356     -9.681  -0.680  7.37758E-02  1.03890E-01 -3.01141E-02
    8986.557     -9.480  -0.640  8.01044E-02  1.13993E-01 -3.38887E-02
    8986.746     -9.291  -0.600  8.72419E-02  1.25388E-01 -3.81458E-02
    8986.922     -9.114  -0.560  9.52648E-02  1.38186E-01 -4.29216E-02
    8987.087     -8.950  -0.520  1.04219E-01  1.52456E-01 -4.82378E-02
    8987.239     -8.797  -0.480  1.14091E-01  1.68183E-01 -5.40916E-02
    8987.380     -8.657  -0.440  1.24783E-01  1.85228E-01 -6.04444E-02
    8987.508     -8.529  -0.400  1.36084E-01  2.03294E-01 -6.72107E-02
    8987.624     -8.413  -0.360  1.47662E-01  2.21915E-01 -7.42526E-02
    8987.727     -8.310  -0.320  1.59101E-01  2.40484E-01 -8.13828E-02
    8987.819     -8.218  -0.280  1.69949E-01  2.58327E-01 -8.83778E-02
    8987.898     -8.139  -0.240  1.79798E-01  2.74796E-01 -9.49986E-02
    8987.965     -8.072  -0.200  1.88337E-01  2.89350E-01 -1.01013E-01
    8988.020     -8.017  -0.160  1.95381E-01  3.01592E-01 -1.06212E-01
    8988.062     -7.974  -0.120  2.00847E-01  3.11269E-01 -1.10422E-01
    8988.093     -7.944  -0.080  2.04726E-01  3.18239E-01 -1.13513E-01
    8988.117     -7.919   0.000  2.07800E-01  3.23839E-01 -1.16039E-01
    8988.172     -7.865   0.120  2.14347E-01  3.36469E-01 -1.22122E-01
    8988.215     -7.822   0.160  2.19337E-01  3.46268E-01 -1.26931E-01
    8988.270     -7.767   0.200  2.25553E-01  3.58806E-01 -1.33253E-01
    8988.337     -7.700   0.240  2.32725E-01  3.73869E-01 -1.41145E-01
    8988.416     -7.621   0.280  2.40552E-01  3.91158E-01 -1.50605E-01
    8988.507     -7.529   0.320  2.48668E-01  4.10229E-01 -1.61562E-01
    8988.611     -7.426   0.360  2.56813E-01  4.30534E-01 -1.73721E-01
    8988.727     -7.310   0.400  2.64852E-01  4.51487E-01 -1.86635E-01
    8988.855     -7.182   0.440  2.72943E-01  4.72516E-01 -1.99573E-01
    8988.995     -7.042   0.480  2.81545E-01  4.93227E-01 -2.11682E-01
    8989.148     -6.889   0.520  2.91145E-01  5.13338E-01 -2.22193E-01
    8989.312     -6.725   0.560  3.01965E-01  5.32685E-01 -2.30720E-01
    8989.489     -6.548   0.600  3.13791E-01  5.51297E-01 -2.37507E-01
    8989.678     -6.359   0.640  3.25773E-01  5.69170E-01 -2.43397E-01
    8989.879     -6.158   0.680  3.36852E-01  5.86419E-01 -2.49568E-01
    8990.092     -5.944   0.720  3.46048E-01  6.03115E-01 -2.57067E-01
    8990.318     -5.719   0.760  3.52974E-01  6.19344E-01 -2.66369E-01
    8990.556     -5.481   0.800  3.58250E-01  6.35182E-01 -2.76932E-01
    8990.806     -5.231   0.840  3.63379E-01  6.50717E-01 -2.87338E-01
    8991.068     -4.969   0.880  3.70158E-01  6.65997E-01 -2.95840E-01
    8991.342     -4.695   0.920  3.80193E-01  6.81019E-01 -3.00826E-01
    8991.629     -4.408   0.960  3.94857E-01  6.95871E-01 -3.01014E-01
    8991.927     -4.109   1.000  4.14537E-01  7.10504E-01 -2.95966E-01
    8992.238     -3.798   1.040  4.38687E-01  7.24942E-01 -2.86255E-01
    8992.561     -3.475   1.080  4.66461E-01  7.39205E-01 -2.72744E-01
    8992.897     -3.140   1.120  4.96181E-01  7.53241E-01 -2.57060E-01
    8993.244     -2.793   1.160  5.24520E-01  7.67058E-01 -2.42537E-01
    8993.604     -2.433   1.200  5.48718E-01  7.80637E-01 -2.31920E-01
    8993.976     -2.061   1.240  5.68513E-01  7.93938E-01 -2.25425E-01
    8994.360     -1.677   1.280  5.83691E-01  8.06957E-01 -2.23266E-01
    8994.756     -1.281   1.320  5.94854E-01  8.19669E-01 -2.24814E-01
    8995.164     -0.872   1.360  6.09070E-01  8.32049E-01 -2.22978E-01
    8995.585     -0.452   1.400  6.37669E-01  8.44070E-01 -2.06401E-01
    8996.018     -0.019   1.440  6.83478E-01  8.55705E-01 -1.72226E-01
    8996.463      0.426   1.480  7.33765E-01  8.66926E-01 -1.33161E-01
    8996.920      0.883   1.520  7.76981E-01  8.77731E-01 -1.00750E-01
    8997.389      1.353   1.560  8.20928E-01  8.88112E-01 -6.71840E-02
    8997.871      1.834   1.600  8.81715E-01  8.98043E-01 -1.63287E-02
    8998.365      2.328   1.640  9.68135E-01  9.07505E-01  6.06300E-02
    8998.871      2.834   1.680  1.07575E+00  9.16493E-01  1.59257E-01
    8999.389      3.352   1.720  1.18697E+00  9.25024E-01  2.61944E-01
    8999.919      3.882   1.760  1.28186E+00  9.33060E-01  3.48802E-01
    9000.462      4.425   1.800  1.35660E+00  9.40623E-01  4.15976E-01
    9001.016      4.980   1.840  1.41506E+00  9.47712E-01  4.67344E-01
    9001.583      5.547   1.880  1.44841E+00  9.54313E-01  4.94100E-01
    9002.162      6.126   1.920  1.44573E+00  9.60469E-01  4.85264E-01
    9002.754      6.717   1.960  1.41511E+00  9.66165E-01  4.48945E-01
    9003.357      7.321   2.000  1.37437E+00  9.71407E-01  4.02962E-01
    9003.973      7.936   2.040  1.33265E+00  9.76221E-01  3.56431E-01
    9004.601      8.564   2.080  1.28694E+00  9.80596E-01  3.06345E-01
    9005.241      9.204   2.120  1.23078E+00  9.84578E-01  2.46199E-01
    9005.893      9.856   2.160  1.16708E+00  9.88177E-01  1.78901E-01
    9006.558     10.521   2.200  1.10825E+00  9.91381E-01  1.16865E-01
    9007.234     11.198   2.240  1.06253E+00  9.94241E-01  6.82928E-02
    9007.923     11.886   2.280  1.03019E+00  9.96763E-01  3.34235E-02
    9008.624     12.587   2.320  1.01316E+00  9.98960E-01  1.42045E-02
    9009.337     13.301   2.360  1.01403E+00  1.00086E+00  1.31702E-02
    9010.063     14.026   2.400  1.02842E+00  1.00247E+00  2.59447E-02
    9010.800     14.764   2.440  1.04511E+00  1.00381E+00  4.13054E-02
    9011.550     15.514   2.480  1.05253E+00  1.00491E+00  4.76168E-02
    9012.312     16.276   2.520  1.05142E+00  1.00578E+00  4.56372E-02
    9013.086     17.050   2.560  1.04355E+00  1.00646E+00  3.70879E-02
    9013.873     17.836   2.600  1.03062E+00  1.00692E+00  2.36987E-02
    9014.671     18.635   2.640  1.01460E+00  1.00723E+00  7.36542E-03
    9015.482     19.445   2.680  9.96540E-01  1.00736E+00 -1.08220E-02
    9016.305     20.268   2.720  9.77769E-01  1.00737E+00 -2.96057E-02
    9017.140     21.104   2.760  9.59299E-01  1.00724E+00 -4.79408E-02
    9017.988     21.951   2.800  9.41833E-01  1.00698E+00 -6.51512E-02
    9018.847     22.810   2.840  9.26122E-01  1.00664E+00 -8.05162E-02
    9019.719     23.682   2.880  9.12228E-01  1.00621E+00 -9.39778E-02
    9020.603     24.566   2.920  9.00021E-01  1.00569E+00 -1.05674E-01
    9021.499     25.462   2.960  8.89721E-01  1.00513E+00 -1.15411E-01
    9022.407     26.370   3.000  8.81484E-01  1.00452E+00 -1.23040E-01
    9023.328     27.291   3.040  8.75611E-01  1.00387E+00 -1.28261E-01
    9024.260     28.224   3.080  8.72424E-01  1.00319E+00 -1.30762E-01
    9025.205     29.169   3.120  8.71782E-01  1.00249E+00 -1.30704E-01
    9026.162     30.126   3.160  8.73024E-01  1.00176E+00 -1.28734E-01
    9027.132     31.095   3.200  8.75668E-01  1.00103E+00 -1.25358E-01
    9028.113     32.076   3.240  8.79466E-01  1.00032E+00 -1.20849E-01
    9029.107     33.070   3.280  8.84208E-01  9.99586E-01 -1.15377E-01
    9030.112     34.076   3.320  8.90003E-01  9.98885E-01 -1.08881E-01
    9031.130     35.094   3.360  8.96992E-01  9.98216E-01 -1.01224E-01
    9032.161     36.124   3.400  9.05282E-01  9.97578E-01 -9.22961E-02
    9033.203     37.166   3.440  9.14767E-01  9.96953E-01 -8.21861E-02
    9034.258     38.221   3.480  9.25454E-01  9.96365E-01 -7.09114E-02
    9035.325     39.288   3.520  9.37240E-01  9.95815E-01 -5.85751E-02
    9036.404     40.367   3.560  9.49925E-01  9.95303E-01 -4.53784E-02
    9037.495     41.458   3.600  9.63301E-01  9.94831E-01 -3.15306E-02
    9038.598     42.561   3.640  9.77178E-01  9.94400E-01 -1.72223E-02
    9039.714     43.677   3.680  9.91351E-01  9.94013E-01 -2.66230E-03
    9040.841     44.805   3.720  1.00563E+00  9.93691E-01  1.19425E-02
    9041.981     45.945   3.760  1.01976E+00  9.93411E-01  2.63447E-02
    9043.133     47.097   3.800  1.03324E+00  9.93175E-01  4.00632E-02
    9044.298     48.261   3.840  1.04538E+00  9.92981E-01  5.23976E-02
    9045.474     49.438   3.880  1.05554E+00  9.92832E-01  6.27061E-02
    9046.663     50.626   3.920  1.06329E+00  9.92747E-01  7.05441E-02
    9047.864     51.827   3.960  1.06850E+00  9.92706E-01  7.57919E-02
    9049.077     53.040   4.000  1.07146E+00  9.92707E-01  7.87536E-02
    9050.302     54.266   4.040  1.07271E+00  9.92750E-01  7.99586E-02
    9051.540     55.503   4.080  1.07274E+00  9.92835E-01  7.99019E-02
    9052.789     56.753   4.120  1.07178E+00  9.92981E-01  7.88022E-02
    9054.051     58.015   4.160  1.06985E+00  9.93145E-01  7.67071E-02
    9055.325     59.289   4.200  1.06683E+00  9.93346E-01  7.34845E-02
    9056.612     60.575   4.240  1.06267E+00  9.93586E-01  6.90819E-02
    9057.910     61.873   4.280  1.05751E+00  9.93862E-01  6.36504E-02
    9059.221     63.184   4.320  1.05163E+00  9.94173E-01  5.74554E-02
    9060.544     64.507   4.360  1.04523E+00  9.94496E-01  5.07300E-02
    9061.879     65.842   4.400  1.03847E+00  9.94854E-01  4.36128E-02
    9063.226     67.189   4.440  1.03149E+00  9.95242E-01  3.62484E-02
    9064.585     68.549   4.480  1.02446E+00  9.95639E-01  2.88208E-02
    9065.957     69.920   4.520  1.01770E+00  9.96066E-01  2.16307E-02
    9067.341     71.304   4.560  1.01152E+00  9.96498E-01  1.50248E-02
    9068.737     72.700   4.600  1.00619E+00  9.96933E-01  9.25522E-03
    9070.145     74.108   4.640  1.00177E+00  9.97369E-01  4.40496E-03
    9071.565     75.528   4.680  9.98220E-01  9.97830E-01  3.90047E-04
    9072.998     76.961   4.720  9.95277E-01  9.98269E-01 -2.99222E-03
    9074.442     78.406   4.760  9.92761E-01  9.98727E-01 -5.96615E-03
    9075.899     79.863   4.800  9.90455E-01  9.99161E-01 -8.70685E-03
    9077.368     81.332   4.840  9.88253E-01  9.99592E-01 -1.13392E-02
    9078.850     82.813   4.880  9.86073E-01  1.00002E+00 -1.39446E-02
    9080.343     84.307   4.920  9.83833E-01  1.00044E+00 -1.66055E-02
    9081.849     85.812   4.960  9.81477E-01  1.00085E+00 -1.93735E-02
    9083.367     87.330   5.000  9.79053E-01  1.00121E+00 -2.21569E-02
    9084.897     88.860   5.040  9.76905E-01  1.00158E+00 -2.46765E-02
    9086.439     90.403   5.080  9.75364E-01  1.00192E+00 -2.65569E-02
    9087.994     91.957   5.120  9.74689E-01  1.00223E+00 -2.75367E-02
    9089.560     93.524   5.160  9.74848E-01  1.00252E+00 -2.76707E-02
    9091.139     95.103   5.200  9.75469E-01  1.00277E+00 -2.73057E-02
    9092.730     96.694   5.240  9.76053E-01  1.00299E+00 -2.69413E-02
    9094.334     98.297   5.280  9.76206E-01  1.00320E+00 -2.69937E-02
    9095.949     99.912   5.320  9.75689E-01  1.00335E+00 -2.76569E-02
    9097.577    101.540   5.360  9.74677E-01  1.00347E+00 -2.87978E-02
    9099.216    103.180   5.400  9.73515E-01  1.00357E+00 -3.00516E-02
    9100.868    104.832   5.440  9.72674E-01  1.00362E+00 -3.09474E-02
    9102.533    106.496   5.480  9.72657E-01  1.00366E+00 -3.10019E-02
    9104.209    108.172   5.520  9.73839E-01  1.00364E+00 -2.97961E-02
    9105.898    109.861   5.560  9.76477E-01  1.00359E+00 -2.71172E-02
    9107.598    111.562   5.600  9.80478E-01  1.00349E+00 -2.30152E-02
    9109.311    113.275   5.640  9.85538E-01  1.00338E+00 -1.78372E-02
    9111.037    115.000   5.680  9.91053E-01  1.00322E+00 -1.21668E-02
    9112.774    116.737   5.720  9.96319E-01  1.00303E+00 -6.70730E-03
    9114.523    118.487   5.760  1.00072E+00  1.00280E+00 -2.08109E-03
    9116.285    120.248   5.800  1.00384E+00  1.00255E+00  1.29165E-03
    9118.059    122.022   5.840  1.00548E+00  1.00225E+00  3.22688E-03
    9119.845    123.809   5.880  1.00568E+00  1.00194E+00  3.74805E-03
    9121.644    125.607   5.920  1.00469E+00  1.00159E+00  3.09724E-03
    9123.454    127.417   5.960  1.00299E+00  1.00121E+00  1.77942E-03
    9125.277    129.240   6.000  1.00125E+00  1.00081E+00  4.39297E-04
