# # comment:                                                     FEFF 9.9.1  
# # Source:
# # Structure
# # Reduced
# # space
# # abc:
# # angles:108.052645
# # sites:
# # POT  SCF 100  7.0000   0, screened core-hole, AFOLP (folp(0)= 1.150)
# # Abs   Z=29 Rmt= 1.232 Rnm= 1.345 K  shell
# # Pot 1 Z=29 Rmt= 1.232 Rnm= 1.345
# # Pot 2 Z= 8 Rmt= 0.988 Rnm= 1.123
# # Pot 3 Z= 9 Rmt= 1.019 Rnm= 1.121
# # Gam_ch=1.729E+00 H-L exch Vi= 0.000E+00 Vr= 0.000E+00
# # Mu=-6.301E+00eV kf=1.991E+00 Vint=-1.261E+01eV Rs_int= 1.822
# FMS rfms= 9.0000
# # PATH  Rmax=-1.000,  Keep_limit= 0.00, Heap_limit 0.00  Pwcrit= 2.50%
#  S02=0.950  Temp=   0.00  Debye_temp=   0.00  Global_sig2= 0.00000
#  Energy zero shift, vr, vi    0.00000E+00   0.00000E+00
#  Curved wave amplitude ratio filter   4.000%
#     file         sig2 tot  cw amp ratio   deg  nlegs   reff  inp sig2
#     0/   0 paths used
#  xsedge+ 50, used to normalize mu           2.4156E-04
#  -----------------------------------------------------------------------
#  omega    e    k    mu    mu0     chi     @#
    8983.276    -10.111  -1.000  3.39649E-02  5.39642E-02 -1.99993E-02
    8983.575     -9.812  -0.960  3.54171E-02  5.77843E-02 -2.23672E-02
    8983.861     -9.526  -0.920  3.69467E-02  6.20150E-02 -2.50683E-02
    8984.136     -9.251  -0.880  3.85598E-02  6.67149E-02 -2.81552E-02
    8984.398     -8.989  -0.840  4.02635E-02  7.19521E-02 -3.16885E-02
    8984.648     -8.739  -0.800  4.20662E-02  7.78051E-02 -3.57389E-02
    8984.885     -8.501  -0.760  4.39772E-02  8.43638E-02 -4.03866E-02
    8985.111     -8.276  -0.720  4.60071E-02  9.17294E-02 -4.57223E-02
    8985.324     -8.063  -0.680  4.81674E-02  1.00013E-01 -5.18455E-02
    8985.525     -7.861  -0.640  5.04700E-02  1.09331E-01 -5.88611E-02
    8985.714     -7.672  -0.600  5.29259E-02  1.19798E-01 -6.68719E-02
    8985.891     -7.496  -0.560  5.55434E-02  1.31510E-01 -7.59664E-02
    8986.056     -7.331  -0.520  5.83240E-02  1.44523E-01 -8.61989E-02
    8986.208     -7.179  -0.480  6.12584E-02  1.58821E-01 -9.75628E-02
    8986.348     -7.038  -0.440  6.43208E-02  1.74280E-01 -1.09960E-01
    8986.476     -6.910  -0.400  6.74642E-02  1.90637E-01 -1.23172E-01
    8986.592     -6.795  -0.360  7.06198E-02  2.07477E-01 -1.36858E-01
    8986.696     -6.691  -0.320  7.37009E-02  2.24266E-01 -1.50565E-01
    8986.787     -6.600  -0.280  7.66135E-02  2.40405E-01 -1.63792E-01
    8986.867     -6.520  -0.240  7.92692E-02  2.55318E-01 -1.76049E-01
    8986.934     -6.453  -0.200  8.15962E-02  2.68516E-01 -1.86920E-01
    8986.988     -6.398  -0.160  8.35439E-02  2.79637E-01 -1.96093E-01
    8987.031     -6.356  -0.120  8.50817E-02  2.88443E-01 -2.03361E-01
    8987.062     -6.325  -0.080  8.61935E-02  2.94798E-01 -2.08604E-01
    8987.086     -6.301   0.000  8.71021E-02  2.99911E-01 -2.12809E-01
    8987.141     -6.246   0.120  8.91210E-02  3.11463E-01 -2.22342E-01
    8987.184     -6.203   0.160  9.06147E-02  3.20440E-01 -2.29825E-01
    8987.238     -6.148   0.200  9.25473E-02  3.31977E-01 -2.39430E-01
    8987.305     -6.081   0.240  9.47830E-02  3.45888E-01 -2.51105E-01
    8987.385     -6.002   0.280  9.73263E-02  3.61985E-01 -2.64659E-01
    8987.476     -5.911   0.320  1.00040E-01  3.79877E-01 -2.79836E-01
    8987.580     -5.807   0.360  1.02870E-01  3.99123E-01 -2.96253E-01
    8987.696     -5.691   0.400  1.05789E-01  4.19273E-01 -3.13484E-01
    8987.824     -5.563   0.440  1.08791E-01  4.39850E-01 -3.31059E-01
    8987.964     -5.423   0.480  1.12004E-01  4.60516E-01 -3.48512E-01
    8988.116     -5.271   0.520  1.15650E-01  4.81034E-01 -3.65384E-01
    8988.281     -5.106   0.560  1.20036E-01  5.01301E-01 -3.81265E-01
    8988.458     -4.929   0.600  1.25447E-01  5.21260E-01 -3.95813E-01
    8988.647     -4.740   0.640  1.32149E-01  5.40953E-01 -4.08804E-01
    8988.848     -4.539   0.680  1.40297E-01  5.60427E-01 -4.20130E-01
    8989.061     -4.326   0.720  1.50009E-01  5.79722E-01 -4.29712E-01
    8989.287     -4.100   0.760  1.61321E-01  5.98870E-01 -4.37548E-01
    8989.524     -3.862   0.800  1.74583E-01  6.17958E-01 -4.43375E-01
    8989.774     -3.613   0.840  1.90406E-01  6.36956E-01 -4.46550E-01
    8990.036     -3.350   0.880  2.09964E-01  6.55905E-01 -4.45941E-01
    8990.311     -3.076   0.920  2.34648E-01  6.74769E-01 -4.40121E-01
    8990.597     -2.790   0.960  2.65504E-01  6.93567E-01 -4.28062E-01
    8990.896     -2.491   1.000  3.02194E-01  7.12220E-01 -4.10026E-01
    8991.207     -2.180   1.040  3.42327E-01  7.30708E-01 -3.88381E-01
    8991.530     -1.857   1.080  3.82875E-01  7.49004E-01 -3.66129E-01
    8991.865     -1.522   1.120  4.23628E-01  7.67031E-01 -3.43404E-01
    8992.213     -1.174   1.160  4.67887E-01  7.84755E-01 -3.16868E-01
    8992.572     -0.814   1.200  5.17574E-01  8.02094E-01 -2.84521E-01
    8992.944     -0.443   1.240  5.68822E-01  8.19010E-01 -2.50188E-01
    8993.328     -0.059   1.280  6.13612E-01  8.35459E-01 -2.21847E-01
    8993.725      0.338   1.320  6.46077E-01  8.51381E-01 -2.05304E-01
    8994.133      0.746   1.360  6.65230E-01  8.66738E-01 -2.01508E-01
    8994.554      1.167   1.400  6.77366E-01  8.81449E-01 -2.04083E-01
    8994.986      1.600   1.440  6.98136E-01  8.95519E-01 -1.97383E-01
    8995.431      2.045   1.480  7.41259E-01  9.08915E-01 -1.67656E-01
    8995.889      2.502   1.520  8.07489E-01  9.21583E-01 -1.14094E-01
    8996.358      2.971   1.560  8.86257E-01  9.33518E-01 -4.72618E-02
    8996.840      3.453   1.600  9.70328E-01  9.44715E-01  2.56131E-02
    8997.333      3.947   1.640  1.06885E+00  9.55147E-01  1.13702E-01
    8997.839      4.452   1.680  1.19586E+00  9.64816E-01  2.31040E-01
    8998.357      4.971   1.720  1.34469E+00  9.73747E-01  3.70944E-01
    8998.888      5.501   1.760  1.47344E+00  9.81923E-01  4.91514E-01
    8999.430      6.044   1.800  1.53743E+00  9.89352E-01  5.48079E-01
    8999.985      6.598   1.840  1.53928E+00  9.96084E-01  5.43192E-01
    9000.552      7.165   1.880  1.51760E+00  1.00211E+00  5.15489E-01
    9001.131      7.744   1.920  1.49922E+00  1.00749E+00  4.91729E-01
    9001.722      8.336   1.960  1.48219E+00  1.01220E+00  4.69989E-01
    9002.326      8.939   2.000  1.46419E+00  1.01630E+00  4.47893E-01
    9002.942      9.555   2.040  1.44118E+00  1.01981E+00  4.21376E-01
    9003.570     10.183   2.080  1.39684E+00  1.02279E+00  3.74049E-01
    9004.210     10.823   2.120  1.33657E+00  1.02524E+00  3.11327E-01
    9004.862     11.475   2.160  1.28944E+00  1.02722E+00  2.62219E-01
    9005.526     12.139   2.200  1.25461E+00  1.02874E+00  2.25871E-01
    9006.203     12.816   2.240  1.20048E+00  1.02984E+00  1.70637E-01
    9006.892     13.505   2.280  1.12097E+00  1.03057E+00  9.03992E-02
    9007.593     14.206   2.320  1.05006E+00  1.03095E+00  1.91044E-02
    9008.306     14.919   2.360  1.00989E+00  1.03101E+00 -2.11161E-02
    9009.031     15.645   2.400  9.92139E-01  1.03077E+00 -3.86346E-02
    9009.769     16.382   2.440  9.86646E-01  1.03031E+00 -4.36615E-02
    9010.519     17.132   2.480  9.87831E-01  1.02960E+00 -4.17714E-02
    9011.281     17.894   2.520  9.91701E-01  1.02869E+00 -3.69914E-02
    9012.055     18.668   2.560  9.94345E-01  1.02763E+00 -3.32873E-02
    9012.841     19.455   2.600  9.93889E-01  1.02639E+00 -3.25048E-02
    9013.640     20.253   2.640  9.89803E-01  1.02505E+00 -3.52485E-02
    9014.451     21.064   2.680  9.82341E-01  1.02362E+00 -4.12743E-02
    9015.274     21.887   2.720  9.72784E-01  1.02210E+00 -4.93116E-02
    9016.109     22.722   2.760  9.62502E-01  1.02050E+00 -5.80003E-02
    9016.956     23.569   2.800  9.52809E-01  1.01886E+00 -6.60552E-02
    9017.816     24.429   2.840  9.44684E-01  1.01721E+00 -7.25282E-02
    9018.688     25.301   2.880  9.38378E-01  1.01553E+00 -7.71539E-02
    9019.571     26.185   2.920  9.33459E-01  1.01387E+00 -8.04159E-02
    9020.468     27.081   2.960  9.28748E-01  1.01222E+00 -8.34762E-02
    9021.376     27.989   3.000  9.23017E-01  1.01061E+00 -8.75894E-02
    9022.296     28.910   3.040  9.15673E-01  1.00903E+00 -9.33550E-02
    9023.229     29.842   3.080  9.07222E-01  1.00749E+00 -1.00272E-01
    9024.174     30.787   3.120  8.98998E-01  1.00601E+00 -1.07009E-01
    9025.131     31.744   3.160  8.92324E-01  1.00459E+00 -1.12269E-01
    9026.100     32.713   3.200  8.87902E-01  1.00326E+00 -1.15354E-01
    9027.082     33.695   3.240  8.86029E-01  1.00200E+00 -1.15973E-01
    9028.075     34.689   3.280  8.86834E-01  1.00083E+00 -1.13993E-01
    9029.081     35.694   3.320  8.90404E-01  9.99739E-01 -1.09336E-01
    9030.099     36.712   3.360  8.96115E-01  9.98760E-01 -1.02645E-01
    9031.129     37.743   3.400  9.03123E-01  9.97847E-01 -9.47241E-02
    9032.172     38.785   3.440  9.10537E-01  9.97065E-01 -8.65275E-02
    9033.226     39.840   3.480  9.17581E-01  9.96352E-01 -7.87706E-02
    9034.293     40.906   3.520  9.24011E-01  9.95750E-01 -7.17391E-02
    9035.372     41.985   3.560  9.30241E-01  9.95263E-01 -6.50221E-02
    9036.463     43.077   3.600  9.37114E-01  9.94867E-01 -5.77527E-02
    9037.567     44.180   3.640  9.45578E-01  9.94562E-01 -4.89840E-02
    9038.682     45.295   3.680  9.56245E-01  9.94390E-01 -3.81450E-02
    9039.810     46.423   3.720  9.69121E-01  9.94288E-01 -2.51672E-02
    9040.950     47.563   3.760  9.83813E-01  9.94296E-01 -1.04829E-02
    9042.102     48.715   3.800  9.99439E-01  9.94395E-01  5.04468E-03
    9043.266     49.880   3.840  1.01484E+00  9.94602E-01  2.02356E-02
    9044.443     51.056   3.880  1.02890E+00  9.94896E-01  3.40082E-02
    9045.632     52.245   3.920  1.04094E+00  9.95276E-01  4.56641E-02
    9046.833     53.446   3.960  1.05072E+00  9.95736E-01  5.49792E-02
    9048.046     54.659   4.000  1.05840E+00  9.96277E-01  6.21232E-02
    9049.271     55.884   4.040  1.06447E+00  9.96898E-01  6.75735E-02
    9050.509     57.122   4.080  1.06951E+00  9.97574E-01  7.19361E-02
    9051.758     58.371   4.120  1.07399E+00  9.98347E-01  7.56473E-02
    9053.020     59.633   4.160  1.07790E+00  9.99173E-01  7.87314E-02
    9054.294     60.907   4.200  1.08076E+00  1.00005E+00  8.07138E-02
    9055.580     62.194   4.240  1.08186E+00  1.00099E+00  8.08742E-02
    9056.879     63.492   4.280  1.08045E+00  1.00197E+00  7.84769E-02
    9058.189     64.803   4.320  1.07610E+00  1.00298E+00  7.31215E-02
    9059.512     66.125   4.360  1.06893E+00  1.00404E+00  6.48888E-02
    9060.847     67.460   4.400  1.05958E+00  1.00514E+00  5.44355E-02
    9062.194     68.808   4.440  1.04915E+00  1.00625E+00  4.28982E-02
    9063.554     70.167   4.480  1.03915E+00  1.00737E+00  3.17819E-02
    9064.925     71.539   4.520  1.03112E+00  1.00852E+00  2.25979E-02
    9066.309     72.922   4.560  1.02612E+00  1.00967E+00  1.64476E-02
    9067.705     74.318   4.600  1.02461E+00  1.01084E+00  1.37709E-02
    9069.113     75.727   4.640  1.02643E+00  1.01199E+00  1.44317E-02
    9070.534     77.147   4.680  1.03094E+00  1.01314E+00  1.78006E-02
    9071.966     78.580   4.720  1.03700E+00  1.01425E+00  2.27520E-02
    9073.411     80.024   4.760  1.04316E+00  1.01535E+00  2.78133E-02
    9074.868     81.481   4.800  1.04809E+00  1.01644E+00  3.16551E-02
    9076.337     82.950   4.840  1.05097E+00  1.01747E+00  3.35032E-02
    9077.818     84.432   4.880  1.05159E+00  1.01848E+00  3.31063E-02
    9079.312     85.925   4.920  1.04987E+00  1.01945E+00  3.04134E-02
    9080.818     87.431   4.960  1.04571E+00  1.02038E+00  2.53259E-02
    9082.336     88.949   5.000  1.03893E+00  1.02124E+00  1.76920E-02
    9083.866     90.479   5.040  1.02956E+00  1.02205E+00  7.51125E-03
    9085.408     92.021   5.080  1.01811E+00  1.02281E+00 -4.70304E-03
    9086.962     93.576   5.120  1.00580E+00  1.02353E+00 -1.77270E-02
    9088.529     95.142   5.160  9.94260E-01  1.02417E+00 -2.99062E-02
    9090.108     96.721   5.200  9.85012E-01  1.02473E+00 -3.97174E-02
    9091.699     98.312   5.240  9.78961E-01  1.02524E+00 -4.62770E-02
    9093.302     99.915   5.280  9.76150E-01  1.02567E+00 -4.95192E-02
    9094.918    101.531   5.320  9.75846E-01  1.02602E+00 -5.01769E-02
    9096.545    103.158   5.360  9.76865E-01  1.02632E+00 -4.94557E-02
    9098.185    104.798   5.400  9.78078E-01  1.02654E+00 -4.84623E-02
    9099.837    106.450   5.440  9.78959E-01  1.02668E+00 -4.77217E-02
    9101.501    108.115   5.480  9.79671E-01  1.02674E+00 -4.70716E-02
    9103.178    109.791   5.520  9.80795E-01  1.02675E+00 -4.59522E-02
    9104.866    111.479   5.560  9.82882E-01  1.02665E+00 -4.37708E-02
    9106.567    113.180   5.600  9.86274E-01  1.02653E+00 -4.02520E-02
    9108.280    114.893   5.640  9.90688E-01  1.02630E+00 -3.56136E-02
    9110.005    116.618   5.680  9.95605E-01  1.02602E+00 -3.04176E-02
    9111.743    118.356   5.720  1.00048E+00  1.02567E+00 -2.51932E-02
    9113.492    120.105   5.760  1.00505E+00  1.02527E+00 -2.02185E-02
    9115.254    121.867   5.800  1.00917E+00  1.02480E+00 -1.56302E-02
    9117.028    123.641   5.840  1.01272E+00  1.02428E+00 -1.15633E-02
    9118.814    125.427   5.880  1.01558E+00  1.02372E+00 -8.14002E-03
    9120.612    127.225   5.920  1.01760E+00  1.02310E+00 -5.50661E-03
    9122.423    129.036   5.960  1.01857E+00  1.02247E+00 -3.89621E-03
    9124.245    130.859   6.000  1.01822E+00  1.02174E+00 -3.51743E-03
