# # comment:                                                     FEFF 9.9.1  
# # Source:
# # Structure
# # Reduced
# # space
# # abc:
# # angles:
# # sites:
# # POT  SCF 100  7.0000   0, screened core-hole, AFOLP (folp(0)= 1.150)
# # Abs   Z=29 Rmt= 1.269 Rnm= 1.347 K  shell
# # Pot 1 Z=30 Rmt= 1.384 Rnm= 1.527
# # Pot 2 Z=29 Rmt= 1.270 Rnm= 1.347
# # Pot 3 Z=74 Rmt= 1.263 Rnm= 1.424
# # Pot 4 Z= 8 Rmt= 0.933 Rnm= 1.076
# # Gam_ch=1.729E+00 H-L exch Vi= 0.000E+00 Vr= 0.000E+00
# # Mu=-5.749E+00eV kf=2.267E+00 Vint=-1.556E+01eV Rs_int= 1.600
# FMS rfms= 9.0000
# # PATH  Rmax=-1.000,  Keep_limit= 0.00, Heap_limit 0.00  Pwcrit= 2.50%
#  S02=0.950  Temp=   0.00  Debye_temp=   0.00  Global_sig2= 0.00000
#  Energy zero shift, vr, vi    0.00000E+00   0.00000E+00
#  Curved wave amplitude ratio filter   4.000%
#     file         sig2 tot  cw amp ratio   deg  nlegs   reff  inp sig2
#     0/   0 paths used
#  xsedge+ 50, used to normalize mu           2.4584E-04
#  -----------------------------------------------------------------------
#  omega    e    k    mu    mu0     chi     @#
    8983.385     -9.559  -1.000  4.42422E-02  5.68203E-02 -1.25781E-02
    8983.684     -9.260  -0.960  4.68164E-02  6.10506E-02 -1.42342E-02
    8983.970     -8.973  -0.920  4.96187E-02  6.57605E-02 -1.61418E-02
    8984.244     -8.699  -0.880  5.26798E-02  7.10216E-02 -1.83418E-02
    8984.507     -8.437  -0.840  5.60355E-02  7.69171E-02 -2.08816E-02
    8984.756     -8.187  -0.800  5.97280E-02  8.35435E-02 -2.38155E-02
    8984.994     -7.949  -0.760  6.38062E-02  9.10118E-02 -2.72056E-02
    8985.220     -7.724  -0.720  6.83263E-02  9.94474E-02 -3.11212E-02
    8985.433     -7.510  -0.680  7.33508E-02  1.08989E-01 -3.56379E-02
    8985.634     -7.309  -0.640  7.89469E-02  1.19782E-01 -4.08350E-02
    8985.823     -7.120  -0.600  8.51808E-02  1.31971E-01 -4.67900E-02
    8986.000     -6.943  -0.560  9.21089E-02  1.45678E-01 -5.35695E-02
    8986.165     -6.779  -0.520  9.97629E-02  1.60979E-01 -6.12157E-02
    8986.317     -6.626  -0.480  1.08129E-01  1.77856E-01 -6.97274E-02
    8986.457     -6.486  -0.440  1.17124E-01  1.96163E-01 -7.90390E-02
    8986.585     -6.358  -0.400  1.26577E-01  2.15578E-01 -8.90010E-02
    8986.701     -6.242  -0.360  1.36223E-01  2.35596E-01 -9.93733E-02
    8986.805     -6.139  -0.320  1.45725E-01  2.55561E-01 -1.09836E-01
    8986.896     -6.047  -0.280  1.54720E-01  2.74743E-01 -1.20024E-01
    8986.975     -5.968  -0.240  1.62878E-01  2.92445E-01 -1.29567E-01
    8987.042     -5.901  -0.200  1.69948E-01  3.08082E-01 -1.38135E-01
    8987.097     -5.846  -0.160  1.75775E-01  3.21229E-01 -1.45455E-01
    8987.140     -5.803  -0.120  1.80293E-01  3.31616E-01 -1.51323E-01
    8987.170     -5.773  -0.080  1.83493E-01  3.39096E-01 -1.55603E-01
    8987.195     -5.749   0.000  1.86007E-01  3.45104E-01 -1.59097E-01
    8987.250     -5.694   0.120  1.91360E-01  3.58629E-01 -1.67270E-01
    8987.292     -5.651   0.160  1.95483E-01  3.69149E-01 -1.73666E-01
    8987.347     -5.596   0.200  2.00580E-01  3.82552E-01 -1.81972E-01
    8987.414     -5.529   0.240  2.06416E-01  3.98643E-01 -1.92228E-01
    8987.494     -5.450   0.280  2.12698E-01  4.17106E-01 -2.04409E-01
    8987.585     -5.358   0.320  2.18971E-01  4.37407E-01 -2.18436E-01
    8987.689     -5.255   0.360  2.24813E-01  4.58957E-01 -2.34144E-01
    8987.804     -5.139   0.400  2.29867E-01  4.81092E-01 -2.51225E-01
    8987.932     -5.011   0.440  2.34001E-01  5.03221E-01 -2.69220E-01
    8988.073     -4.871   0.480  2.37422E-01  5.24846E-01 -2.87424E-01
    8988.225     -4.718   0.520  2.40889E-01  5.45699E-01 -3.04809E-01
    8988.390     -4.554   0.560  2.45584E-01  5.65624E-01 -3.20040E-01
    8988.566     -4.377   0.600  2.53054E-01  5.84609E-01 -3.31555E-01
    8988.755     -4.188   0.640  2.64840E-01  6.02677E-01 -3.37837E-01
    8988.957     -3.987   0.680  2.82283E-01  6.19914E-01 -3.37630E-01
    8989.170     -3.773   0.720  3.06460E-01  6.36461E-01 -3.30001E-01
    8989.395     -3.548   0.760  3.37875E-01  6.52382E-01 -3.14507E-01
    8989.633     -3.310   0.800  3.76371E-01  6.67804E-01 -2.91434E-01
    8989.883     -3.060   0.840  4.20531E-01  6.82786E-01 -2.62256E-01
    8990.145     -2.798   0.880  4.67481E-01  6.97410E-01 -2.29929E-01
    8990.420     -2.524   0.920  5.13002E-01  7.11681E-01 -1.98679E-01
    8990.706     -2.237   0.960  5.52918E-01  7.25695E-01 -1.72777E-01
    8991.005     -1.939   1.000  5.84423E-01  7.39411E-01 -1.54988E-01
    8991.316     -1.628   1.040  6.07773E-01  7.52883E-01 -1.45110E-01
    8991.639     -1.305   1.080  6.27995E-01  7.66096E-01 -1.38101E-01
    8991.974     -0.969   1.120  6.52110E-01  7.79067E-01 -1.26956E-01
    8992.322     -0.622   1.160  6.82486E-01  7.91766E-01 -1.09281E-01
    8992.681     -0.262   1.200  7.16364E-01  8.04181E-01 -8.78176E-02
    8993.053      0.110   1.240  7.51213E-01  8.16318E-01 -6.51057E-02
    8993.437      0.494   1.280  7.88124E-01  8.28159E-01 -4.00348E-02
    8993.833      0.890   1.320  8.28565E-01  8.39661E-01 -1.10959E-02
    8994.242      1.298   1.360  8.69869E-01  8.50843E-01  1.90259E-02
    8994.662      1.719   1.400  9.07080E-01  8.61663E-01  4.54166E-02
    8995.095      2.152   1.440  9.41052E-01  8.72098E-01  6.89538E-02
    8995.540      2.597   1.480  9.75860E-01  8.82166E-01  9.36941E-02
    8995.997      3.054   1.520  1.01085E+00  8.91843E-01  1.19005E-01
    8996.467      3.523   1.560  1.04194E+00  9.01086E-01  1.40855E-01
    8996.948      4.005   1.600  1.07157E+00  9.09933E-01  1.61633E-01
    8997.442      4.499   1.640  1.10696E+00  9.18344E-01  1.88614E-01
    8997.948      5.005   1.680  1.14271E+00  9.26317E-01  2.16395E-01
    8998.466      5.523   1.720  1.16611E+00  9.33854E-01  2.32254E-01
    8998.997      6.053   1.760  1.17917E+00  9.40975E-01  2.38194E-01
    8999.539      6.596   1.800  1.19986E+00  9.47642E-01  2.52218E-01
    9000.094      7.151   1.840  1.24362E+00  9.53879E-01  2.89746E-01
    9000.661      7.717   1.880  1.30563E+00  9.59710E-01  3.45919E-01
    9001.240      8.297   1.920  1.36762E+00  9.65097E-01  4.02525E-01
    9001.831      8.888   1.960  1.41444E+00  9.70088E-01  4.44349E-01
    9002.435      9.491   2.000  1.43423E+00  9.74668E-01  4.59562E-01
    9003.050     10.107   2.040  1.41841E+00  9.78885E-01  4.39524E-01
    9003.678     10.735   2.080  1.36842E+00  9.82703E-01  3.85712E-01
    9004.318     11.375   2.120  1.29272E+00  9.86170E-01  3.06553E-01
    9004.971     12.027   2.160  1.20406E+00  9.89277E-01  2.14782E-01
    9005.635     12.692   2.200  1.11562E+00  9.92071E-01  1.23554E-01
    9006.312     13.368   2.240  1.04114E+00  9.94539E-01  4.66018E-02
    9007.001     14.057   2.280  9.88084E-01  9.96711E-01 -8.62705E-03
    9007.702     14.758   2.320  9.51031E-01  9.98595E-01 -4.75637E-02
    9008.415     15.472   2.360  9.24015E-01  1.00022E+00 -7.62052E-02
    9009.140     16.197   2.400  9.08504E-01  1.00160E+00 -9.30917E-02
    9009.878     16.935   2.440  9.08091E-01  1.00273E+00 -9.46396E-02
    9010.628     17.684   2.480  9.22236E-01  1.00365E+00 -8.14164E-02
    9011.390     18.446   2.520  9.45956E-01  1.00439E+00 -5.84347E-02
    9012.164     19.221   2.560  9.70275E-01  1.00493E+00 -3.46564E-02
    9012.950     20.007   2.600  9.89838E-01  1.00531E+00 -1.54680E-02
    9013.749     20.805   2.640  1.00325E+00  1.00552E+00 -2.27405E-03
    9014.560     21.616   2.680  1.00471E+00  1.00562E+00 -9.11692E-04
    9015.383     22.439   2.720  9.97632E-01  1.00558E+00 -7.95101E-03
    9016.218     23.274   2.760  9.86922E-01  1.00544E+00 -1.85214E-02
    9017.065     24.122   2.800  9.74837E-01  1.00519E+00 -3.03540E-02
    9017.925     24.981   2.840  9.63846E-01  1.00485E+00 -4.10081E-02
    9018.796     25.853   2.880  9.54852E-01  1.00446E+00 -4.96076E-02
    9019.680     26.737   2.920  9.46938E-01  1.00399E+00 -5.70552E-02
    9020.576     27.633   2.960  9.38884E-01  1.00348E+00 -6.45955E-02
    9021.485     28.541   3.000  9.29892E-01  1.00294E+00 -7.30533E-02
    9022.405     29.462   3.040  9.20082E-01  1.00235E+00 -8.22701E-02
    9023.338     30.394   3.080  9.10655E-01  1.00175E+00 -9.10928E-02
    9024.283     31.339   3.120  9.02984E-01  1.00113E+00 -9.81497E-02
    9025.240     32.296   3.160  8.97937E-01  1.00052E+00 -1.02578E-01
    9026.209     33.266   3.200  8.95958E-01  9.99876E-01 -1.03918E-01
    9027.191     34.247   3.240  8.97108E-01  9.99259E-01 -1.02151E-01
    9028.184     35.241   3.280  9.00966E-01  9.98669E-01 -9.77037E-02
    9029.190     36.247   3.320  9.06897E-01  9.98087E-01 -9.11904E-02
    9030.208     37.265   3.360  9.14139E-01  9.97513E-01 -8.33745E-02
    9031.238     38.295   3.400  9.21936E-01  9.96971E-01 -7.50356E-02
    9032.281     39.337   3.440  9.29656E-01  9.96465E-01 -6.68091E-02
    9033.335     40.392   3.480  9.37072E-01  9.95996E-01 -5.89235E-02
    9034.402     41.459   3.520  9.44239E-01  9.95564E-01 -5.13250E-02
    9035.481     42.538   3.560  9.51380E-01  9.95149E-01 -4.37691E-02
    9036.572     43.629   3.600  9.58896E-01  9.94795E-01 -3.58995E-02
    9037.676     44.732   3.640  9.67074E-01  9.94484E-01 -2.74094E-02
    9038.791     45.848   3.680  9.76157E-01  9.94213E-01 -1.80553E-02
    9039.919     46.976   3.720  9.86266E-01  9.93984E-01 -7.71863E-03
    9041.059     48.115   3.760  9.97380E-01  9.93820E-01  3.55977E-03
    9042.211     49.268   3.800  1.00908E+00  9.93677E-01  1.54075E-02
    9043.375     50.432   3.840  1.02073E+00  9.93597E-01  2.71332E-02
    9044.552     51.608   3.880  1.03151E+00  9.93560E-01  3.79542E-02
    9045.741     52.797   3.920  1.04070E+00  9.93564E-01  4.71400E-02
    9046.941     53.998   3.960  1.04763E+00  9.93608E-01  5.40271E-02
    9048.155     55.211   4.000  1.05188E+00  9.93691E-01  5.81876E-02
    9049.380     56.436   4.040  1.05334E+00  9.93814E-01  5.95279E-02
    9050.617     57.674   4.080  1.05236E+00  9.93977E-01  5.83874E-02
    9051.867     58.924   4.120  1.04976E+00  9.94178E-01  5.55787E-02
    9053.129     60.185   4.160  1.04665E+00  9.94417E-01  5.22310E-02
    9054.403     61.460   4.200  1.04410E+00  9.94691E-01  4.94043E-02
    9055.689     62.746   4.240  1.04279E+00  9.94979E-01  4.78113E-02
    9056.988     64.044   4.280  1.04291E+00  9.95301E-01  4.76110E-02
    9058.298     65.355   4.320  1.04399E+00  9.95657E-01  4.83322E-02
    9059.621     66.678   4.360  1.04510E+00  9.96045E-01  4.90521E-02
    9060.956     68.013   4.400  1.04528E+00  9.96441E-01  4.88429E-02
    9062.303     69.360   4.440  1.04411E+00  9.96844E-01  4.72621E-02
    9063.663     70.719   4.480  1.04159E+00  9.97274E-01  4.43147E-02
    9065.034     72.091   4.520  1.03799E+00  9.97708E-01  4.02845E-02
    9066.418     73.475   4.560  1.03371E+00  9.98147E-01  3.55627E-02
    9067.814     74.871   4.600  1.02913E+00  9.98608E-01  3.05228E-02
    9069.222     76.279   4.640  1.02460E+00  9.99049E-01  2.55521E-02
    9070.643     77.699   4.680  1.02052E+00  9.99509E-01  2.10094E-02
    9072.075     79.132   4.720  1.01698E+00  9.99945E-01  1.70364E-02
    9073.520     80.577   4.760  1.01385E+00  1.00038E+00  1.34767E-02
    9074.977     82.033   4.800  1.01083E+00  1.00080E+00  1.00287E-02
    9076.446     83.503   4.840  1.00771E+00  1.00122E+00  6.48788E-03
    9077.927     84.984   4.880  1.00452E+00  1.00162E+00  2.89910E-03
    9079.421     86.477   4.920  1.00145E+00  1.00200E+00 -5.52943E-04
    9080.927     87.983   4.960  9.98620E-01  1.00238E+00 -3.75827E-03
    9082.444     89.501   5.000  9.95938E-01  1.00272E+00 -6.78434E-03
    9083.975     91.031   5.040  9.93176E-01  1.00305E+00 -9.87653E-03
    9085.517     92.573   5.080  9.90012E-01  1.00333E+00 -1.33143E-02
    9087.071     94.128   5.120  9.86407E-01  1.00359E+00 -1.71804E-02
    9088.638     95.695   5.160  9.82508E-01  1.00384E+00 -2.13274E-02
    9090.217     97.273   5.200  9.78588E-01  1.00405E+00 -2.54604E-02
    9091.808     98.864   5.240  9.74856E-01  1.00422E+00 -2.93682E-02
    9093.411    100.468   5.280  9.71351E-01  1.00436E+00 -3.30067E-02
    9095.027    102.083   5.320  9.67960E-01  1.00445E+00 -3.64930E-02
    9096.654    103.711   5.360  9.64530E-01  1.00451E+00 -3.99805E-02
    9098.294    105.351   5.400  9.60974E-01  1.00455E+00 -4.35771E-02
    9099.946    107.003   5.440  9.57259E-01  1.00453E+00 -4.72717E-02
    9101.610    108.667   5.480  9.53612E-01  1.00449E+00 -5.08822E-02
    9103.287    110.343   5.520  9.50398E-01  1.00442E+00 -5.40222E-02
    9104.975    112.032   5.560  9.48126E-01  1.00431E+00 -5.61787E-02
    9106.676    113.733   5.600  9.47289E-01  1.00415E+00 -5.68613E-02
    9108.389    115.445   5.640  9.48213E-01  1.00396E+00 -5.57437E-02
    9110.114    117.171   5.680  9.50990E-01  1.00372E+00 -5.27349E-02
    9111.851    118.908   5.720  9.55459E-01  1.00346E+00 -4.79967E-02
    9113.601    120.658   5.760  9.61328E-01  1.00317E+00 -4.18457E-02
    9115.363    122.419   5.800  9.68258E-01  1.00286E+00 -3.45991E-02
    9117.137    124.193   5.840  9.76044E-01  1.00251E+00 -2.64613E-02
    9118.923    125.979   5.880  9.84595E-01  1.00212E+00 -1.75232E-02
    9120.721    127.778   5.920  9.93753E-01  1.00170E+00 -7.94643E-03
    9122.532    129.588   5.960  1.00311E+00  1.00128E+00  1.83295E-03
    9124.354    131.411   6.000  1.01215E+00  1.00080E+00  1.13516E-02
