# # comment:                                                     FEFF 9.9.1  
# # Source:
# # Structure
# # Reduced
# # space
# # abc:
# # angles:114.243346
# # sites:
# # POT  SCF 100  7.0000   0, screened core-hole, AFOLP (folp(0)= 1.150)
# # Abs   Z=29 Rmt= 1.217 Rnm= 1.297 K  shell
# # Pot 1 Z=56 Rmt= 1.941 Rnm= 1.998
# # Pot 2 Z=67 Rmt= 1.626 Rnm= 1.697
# # Pot 3 Z=29 Rmt= 1.217 Rnm= 1.297
# # Pot 4 Z= 8 Rmt= 1.049 Rnm= 1.104
# # Gam_ch=1.729E+00 H-L exch Vi= 0.000E+00 Vr= 0.000E+00
# # Mu=-7.974E+00eV kf=2.016E+00 Vint=-1.720E+01eV Rs_int= 1.799
# FMS rfms= 9.0000
# # PATH  Rmax=-1.000,  Keep_limit= 0.00, Heap_limit 0.00  Pwcrit= 2.50%
#  S02=0.950  Temp=   0.00  Debye_temp=   0.00  Global_sig2= 0.00000
#  Energy zero shift, vr, vi    0.00000E+00   0.00000E+00
#  Curved wave amplitude ratio filter   4.000%
#     file         sig2 tot  cw amp ratio   deg  nlegs   reff  inp sig2
#     0/   0 paths used
#  xsedge+ 50, used to normalize mu           2.4367E-04
#  -----------------------------------------------------------------------
#  omega    e    k    mu    mu0     chi     @#
    8984.901    -11.784  -1.000  4.33020E-02  5.93722E-02 -1.60703E-02
    8985.199    -11.485  -0.960  4.57894E-02  6.38298E-02 -1.80404E-02
    8985.486    -11.198  -0.920  4.84926E-02  6.87940E-02 -2.03014E-02
    8985.760    -10.924  -0.880  5.14383E-02  7.43405E-02 -2.29022E-02
    8986.022    -10.662  -0.840  5.46568E-02  8.05569E-02 -2.59001E-02
    8986.272    -10.412  -0.800  5.81826E-02  8.75453E-02 -2.93626E-02
    8986.510    -10.174  -0.760  6.20547E-02  9.54226E-02 -3.33679E-02
    8986.735     -9.949  -0.720  6.63159E-02  1.04321E-01 -3.80053E-02
    8986.949     -9.735  -0.680  7.10124E-02  1.14387E-01 -4.33745E-02
    8987.150     -9.534  -0.640  7.61916E-02  1.25774E-01 -4.95822E-02
    8987.339     -9.345  -0.600  8.18987E-02  1.38634E-01 -5.67350E-02
    8987.516     -9.169  -0.560  8.81699E-02  1.53096E-01 -6.49260E-02
    8987.680     -9.004  -0.520  9.50239E-02  1.69238E-01 -7.42144E-02
    8987.833     -8.852  -0.480  1.02449E-01  1.87045E-01 -8.45968E-02
    8987.973     -8.711  -0.440  1.10387E-01  2.06360E-01 -9.59735E-02
    8988.101     -8.583  -0.400  1.18723E-01  2.26844E-01 -1.08121E-01
    8988.217     -8.467  -0.360  1.27280E-01  2.47965E-01 -1.20685E-01
    8988.320     -8.364  -0.320  1.35824E-01  2.69031E-01 -1.33207E-01
    8988.412     -8.272  -0.280  1.44088E-01  2.89274E-01 -1.45186E-01
    8988.491     -8.193  -0.240  1.51800E-01  3.07956E-01 -1.56155E-01
    8988.558     -8.126  -0.200  1.58714E-01  3.24460E-01 -1.65746E-01
    8988.613     -8.071  -0.160  1.64625E-01  3.38338E-01 -1.73713E-01
    8988.656     -8.029  -0.120  1.69374E-01  3.49304E-01 -1.79930E-01
    8988.686     -7.998  -0.080  1.72851E-01  3.57201E-01 -1.84350E-01
    8988.711     -7.974   0.000  1.75702E-01  3.63542E-01 -1.87840E-01
    8988.765     -7.919   0.120  1.82194E-01  3.77855E-01 -1.95661E-01
    8988.808     -7.876   0.160  1.87265E-01  3.88950E-01 -2.01685E-01
    8988.863     -7.821   0.200  1.93866E-01  4.03103E-01 -2.09238E-01
    8988.930     -7.754   0.240  2.02036E-01  4.20134E-01 -2.18098E-01
    8989.009     -7.675   0.280  2.11752E-01  4.39648E-01 -2.27896E-01
    8989.101     -7.584   0.320  2.22938E-01  4.61130E-01 -2.38192E-01
    8989.204     -7.480   0.360  2.35464E-01  4.83944E-01 -2.48479E-01
    8989.320     -7.364   0.400  2.49028E-01  5.07391E-01 -2.58362E-01
    8989.448     -7.236   0.440  2.63264E-01  5.30852E-01 -2.67589E-01
    8989.588     -7.096   0.480  2.77649E-01  5.53830E-01 -2.76181E-01
    8989.741     -6.944   0.520  2.91777E-01  5.75997E-01 -2.84220E-01
    8989.905     -6.779   0.560  3.05502E-01  5.97210E-01 -2.91708E-01
    8990.082     -6.602   0.600  3.19066E-01  6.17433E-01 -2.98367E-01
    8990.271     -6.413   0.640  3.33017E-01  6.36709E-01 -3.03692E-01
    8990.472     -6.212   0.680  3.47883E-01  6.55108E-01 -3.07224E-01
    8990.686     -5.999   0.720  3.64210E-01  6.72772E-01 -3.08562E-01
    8990.911     -5.773   0.760  3.82552E-01  6.89766E-01 -3.07214E-01
    8991.149     -5.535   0.800  4.03612E-01  7.06202E-01 -3.02589E-01
    8991.399     -5.285   0.840  4.27076E-01  7.22156E-01 -2.95081E-01
    8991.661     -5.023   0.880  4.49733E-01  7.37671E-01 -2.87938E-01
    8991.935     -4.749   0.920  4.65825E-01  7.52792E-01 -2.86967E-01
    8992.222     -4.462   0.960  4.71405E-01  7.67572E-01 -2.96167E-01
    8992.520     -4.164   1.000  4.68781E-01  7.81991E-01 -3.13210E-01
    8992.831     -3.853   1.040  4.65046E-01  7.96081E-01 -3.31035E-01
    8993.154     -3.530   1.080  4.66350E-01  8.09842E-01 -3.43491E-01
    8993.490     -3.194   1.120  4.74588E-01  8.23249E-01 -3.48661E-01
    8993.837     -2.847   1.160  4.88124E-01  8.36294E-01 -3.48170E-01
    8994.197     -2.487   1.200  5.04556E-01  8.48961E-01 -3.44405E-01
    8994.569     -2.115   1.240  5.23655E-01  8.61254E-01 -3.37599E-01
    8994.953     -1.731   1.280  5.47079E-01  8.73112E-01 -3.26033E-01
    8995.349     -1.335   1.320  5.77295E-01  8.84576E-01 -3.07281E-01
    8995.757     -0.927   1.360  6.18319E-01  8.95562E-01 -2.77243E-01
    8996.178     -0.506   1.400  6.75645E-01  9.06110E-01 -2.30465E-01
    8996.611     -0.073   1.440  7.54438E-01  9.16176E-01 -1.61739E-01
    8997.056      0.372   1.480  8.55813E-01  9.25759E-01 -6.99467E-02
    8997.513      0.829   1.520  9.79531E-01  9.34837E-01  4.46943E-02
    8997.982      1.298   1.560  1.12638E+00  9.43411E-01  1.82967E-01
    8998.464      1.780   1.600  1.27046E+00  9.51459E-01  3.18996E-01
    8998.958      2.274   1.640  1.34948E+00  9.59025E-01  3.90460E-01
    8999.464      2.780   1.680  1.37301E+00  9.66049E-01  4.06961E-01
    8999.982      3.298   1.720  1.43241E+00  9.72578E-01  4.59828E-01
    9000.512      3.828   1.760  1.54751E+00  9.78615E-01  5.68898E-01
    9001.055      4.371   1.800  1.63836E+00  9.84145E-01  6.54214E-01
    9001.610      4.925   1.840  1.62506E+00  9.89197E-01  6.35860E-01
    9002.177      5.492   1.880  1.52760E+00  9.93776E-01  5.33823E-01
    9002.756      6.071   1.920  1.41390E+00  9.97891E-01  4.16006E-01
    9003.347      6.663   1.960  1.31738E+00  1.00157E+00  3.15811E-01
    9003.950      7.266   2.000  1.23605E+00  1.00485E+00  2.31206E-01
    9004.566      7.882   2.040  1.17071E+00  1.00769E+00  1.63023E-01
    9005.194      8.510   2.080  1.13549E+00  1.01017E+00  1.25324E-01
    9005.834      9.150   2.120  1.13257E+00  1.01227E+00  1.20295E-01
    9006.486      9.802   2.160  1.13481E+00  1.01404E+00  1.20772E-01
    9007.151     10.467   2.200  1.10928E+00  1.01547E+00  9.38148E-02
    9007.827     11.143   2.240  1.05155E+00  1.01660E+00  3.49489E-02
    9008.516     11.832   2.280  9.87934E-01  1.01744E+00 -2.95077E-02
    9009.217     12.533   2.320  9.46058E-01  1.01805E+00 -7.19898E-02
    9009.931     13.246   2.360  9.38037E-01  1.01839E+00 -8.03500E-02
    9010.656     13.972   2.400  9.62050E-01  1.01853E+00 -5.64826E-02
    9011.394     14.709   2.440  1.01221E+00  1.01847E+00 -6.25699E-03
    9012.143     15.459   2.480  1.06142E+00  1.01821E+00  4.32100E-02
    9012.905     16.221   2.520  1.09554E+00  1.01782E+00  7.77249E-02
    9013.680     16.995   2.560  1.11204E+00  1.01728E+00  9.47642E-02
    9014.466     17.782   2.600  1.11194E+00  1.01660E+00  9.53463E-02
    9015.265     18.580   2.640  1.09920E+00  1.01584E+00  8.33582E-02
    9016.075     19.391   2.680  1.07913E+00  1.01495E+00  6.41786E-02
    9016.898     20.214   2.720  1.05678E+00  1.01402E+00  4.27586E-02
    9017.733     21.049   2.760  1.03521E+00  1.01299E+00  2.22169E-02
    9018.581     21.897   2.800  1.01538E+00  1.01194E+00  3.44186E-03
    9019.440     22.756   2.840  9.97064E-01  1.01085E+00 -1.37833E-02
    9020.312     23.628   2.880  9.79404E-01  1.00972E+00 -3.03162E-02
    9021.196     24.512   2.920  9.61411E-01  1.00858E+00 -4.71738E-02
    9022.092     25.408   2.960  9.42466E-01  1.00745E+00 -6.49794E-02
    9023.000     26.316   3.000  9.22796E-01  1.00631E+00 -8.35113E-02
    9023.921     27.237   3.040  9.03517E-01  1.00520E+00 -1.01680E-01
    9024.854     28.169   3.080  8.86131E-01  1.00410E+00 -1.17967E-01
    9025.798     29.114   3.120  8.72383E-01  1.00306E+00 -1.30673E-01
    9026.755     30.071   3.160  8.62826E-01  1.00203E+00 -1.39202E-01
    9027.725     31.041   3.200  8.57248E-01  1.00104E+00 -1.43793E-01
    9028.706     32.022   3.240  8.54991E-01  1.00010E+00 -1.45107E-01
    9029.700     33.016   3.280  8.55174E-01  9.99222E-01 -1.44048E-01
    9030.706     34.021   3.320  8.57169E-01  9.98417E-01 -1.41248E-01
    9031.724     35.039   3.360  8.60932E-01  9.97640E-01 -1.36708E-01
    9032.754     36.070   3.400  8.67246E-01  9.96956E-01 -1.29710E-01
    9033.796     37.112   3.440  8.76592E-01  9.96326E-01 -1.19734E-01
    9034.851     38.167   3.480  8.89349E-01  9.95770E-01 -1.06421E-01
    9035.918     39.234   3.520  9.05519E-01  9.95290E-01 -8.97707E-02
    9036.997     40.312   3.560  9.24539E-01  9.94864E-01 -7.03253E-02
    9038.088     41.404   3.600  9.45501E-01  9.94514E-01 -4.90129E-02
    9039.191     42.507   3.640  9.67227E-01  9.94242E-01 -2.70150E-02
    9040.307     43.623   3.680  9.88376E-01  9.94048E-01 -5.67225E-03
    9041.435     44.750   3.720  1.00759E+00  9.93933E-01  1.36566E-02
    9042.575     45.890   3.760  1.02381E+00  9.93893E-01  2.99170E-02
    9043.727     47.042   3.800  1.03635E+00  9.93907E-01  4.24440E-02
    9044.891     48.207   3.840  1.04490E+00  9.93997E-01  5.09027E-02
    9046.068     49.383   3.880  1.04966E+00  9.94160E-01  5.55035E-02
    9047.256     50.572   3.920  1.05122E+00  9.94374E-01  5.68503E-02
    9048.457     51.773   3.960  1.05035E+00  9.94662E-01  5.56867E-02
    9049.670     52.986   4.000  1.04784E+00  9.94998E-01  5.28424E-02
    9050.896     54.211   4.040  1.04461E+00  9.95403E-01  4.92058E-02
    9052.133     55.449   4.080  1.04146E+00  9.95855E-01  4.56023E-02
    9053.383     56.698   4.120  1.03886E+00  9.96352E-01  4.25054E-02
    9054.645     57.960   4.160  1.03700E+00  9.96916E-01  4.00812E-02
    9055.919     59.234   4.200  1.03555E+00  9.97519E-01  3.80342E-02
    9057.205     60.521   4.240  1.03399E+00  9.98142E-01  3.58481E-02
    9058.503     61.819   4.280  1.03216E+00  9.98824E-01  3.33317E-02
    9059.814     63.130   4.320  1.03051E+00  9.99520E-01  3.09897E-02
    9061.137     64.453   4.360  1.02998E+00  1.00025E+00  2.97298E-02
    9062.472     65.788   4.400  1.03124E+00  1.00101E+00  3.02301E-02
    9063.819     67.135   4.440  1.03460E+00  1.00179E+00  3.28172E-02
    9065.178     68.494   4.480  1.04006E+00  1.00259E+00  3.74741E-02
    9066.550     69.866   4.520  1.04743E+00  1.00337E+00  4.40598E-02
    9067.934     71.250   4.560  1.05647E+00  1.00417E+00  5.22978E-02
    9069.330     72.646   4.600  1.06644E+00  1.00498E+00  6.14579E-02
    9070.738     74.054   4.640  1.07590E+00  1.00578E+00  7.01196E-02
    9072.158     75.474   4.680  1.08294E+00  1.00658E+00  7.63526E-02
    9073.591     76.907   4.720  1.08568E+00  1.00738E+00  7.83005E-02
    9075.036     78.351   4.760  1.08299E+00  1.00814E+00  7.48471E-02
    9076.493     79.808   4.800  1.07487E+00  1.00888E+00  6.59941E-02
    9077.962     81.277   4.840  1.06241E+00  1.00962E+00  5.27907E-02
    9079.443     82.759   4.880  1.04732E+00  1.01031E+00  3.70141E-02
    9080.937     84.252   4.920  1.03167E+00  1.01098E+00  2.06892E-02
    9082.442     85.758   4.960  1.01710E+00  1.01161E+00  5.48204E-03
    9083.960     87.276   5.000  1.00453E+00  1.01221E+00 -7.67552E-03
    9085.490     88.806   5.040  9.94206E-01  1.01276E+00 -1.85549E-02
    9087.032     90.348   5.080  9.85923E-01  1.01327E+00 -2.73512E-02
    9088.587     91.903   5.120  9.79326E-01  1.01376E+00 -3.44381E-02
    9090.154     93.469   5.160  9.73882E-01  1.01417E+00 -4.02854E-02
    9091.732     95.048   5.200  9.69258E-01  1.01455E+00 -4.52885E-02
    9093.324     96.639   5.240  9.65165E-01  1.01488E+00 -4.97152E-02
    9094.927     98.243   5.280  9.61485E-01  1.01514E+00 -5.36592E-02
    9096.542     99.858   5.320  9.58263E-01  1.01536E+00 -5.70972E-02
    9098.170    101.486   5.360  9.55639E-01  1.01551E+00 -5.98680E-02
    9099.810    103.125   5.400  9.53961E-01  1.01563E+00 -6.16683E-02
    9101.462    104.777   5.440  9.53585E-01  1.01568E+00 -6.20973E-02
    9103.126    106.442   5.480  9.54842E-01  1.01566E+00 -6.08227E-02
    9104.802    108.118   5.520  9.57885E-01  1.01562E+00 -5.77360E-02
    9106.491    109.807   5.560  9.62487E-01  1.01551E+00 -5.30209E-02
    9108.192    111.507   5.600  9.68193E-01  1.01533E+00 -4.71332E-02
    9109.905    113.220   5.640  9.74221E-01  1.01512E+00 -4.08988E-02
    9111.630    114.946   5.680  9.79747E-01  1.01484E+00 -3.50977E-02
    9113.367    116.683   5.720  9.84169E-01  1.01450E+00 -3.03327E-02
    9115.117    118.432   5.760  9.87407E-01  1.01414E+00 -2.67329E-02
    9116.878    120.194   5.800  9.89539E-01  1.01374E+00 -2.41982E-02
    9118.652    121.968   5.840  9.90686E-01  1.01327E+00 -2.25862E-02
    9120.438    123.754   5.880  9.91282E-01  1.01279E+00 -2.15111E-02
    9122.237    125.553   5.920  9.92149E-01  1.01226E+00 -2.01062E-02
    9124.047    127.363   5.960  9.94648E-01  1.01171E+00 -1.70619E-02
    9125.870    129.186   6.000  9.99698E-01  1.01110E+00 -1.14045E-02
