# # comment:                                                     FEFF 9.9.1  
# # Source:
# # Structure
# # Reduced
# # space
# # abc:
# # angles:101.625707
# # sites:
# # POT  SCF 100  7.0000   0, screened core-hole, AFOLP (folp(0)= 1.150)
# # Abs   Z=29 Rmt= 1.349 Rnm= 1.403 K  shell
# # Pot 1 Z=24 Rmt= 1.332 Rnm= 1.436
# # Pot 2 Z=29 Rmt= 1.349 Rnm= 1.404
# # Pot 3 Z=74 Rmt= 1.268 Rnm= 1.425
# # Pot 4 Z= 8 Rmt= 0.999 Rnm= 1.075
# # Gam_ch=1.729E+00 H-L exch Vi= 0.000E+00 Vr= 0.000E+00
# # Mu=-7.241E+00eV kf=2.293E+00 Vint=-1.684E+01eV Rs_int= 1.581
# FMS rfms= 9.0000
# # PATH  Rmax=-1.000,  Keep_limit= 0.00, Heap_limit 0.00  Pwcrit= 2.50%
#  S02=0.950  Temp=   0.00  Debye_temp=   0.00  Global_sig2= 0.00000
#  Energy zero shift, vr, vi    0.00000E+00   0.00000E+00
#  Curved wave amplitude ratio filter   4.000%
#     file         sig2 tot  cw amp ratio   deg  nlegs   reff  inp sig2
#     0/   0 paths used
#  xsedge+ 50, used to normalize mu           2.4709E-04
#  -----------------------------------------------------------------------
#  omega    e    k    mu    mu0     chi     @#
    8983.679    -11.051  -1.000  4.05240E-02  5.11962E-02 -1.06722E-02
    8983.977    -10.752  -0.960  4.26801E-02  5.48427E-02 -1.21626E-02
    8984.264    -10.466  -0.920  4.50021E-02  5.88902E-02 -1.38880E-02
    8984.538    -10.191  -0.880  4.75093E-02  6.33975E-02 -1.58882E-02
    8984.800     -9.929  -0.840  5.02237E-02  6.84331E-02 -1.82094E-02
    8985.050     -9.679  -0.800  5.31707E-02  7.40763E-02 -2.09056E-02
    8985.288     -9.442  -0.760  5.63793E-02  8.04181E-02 -2.40388E-02
    8985.514     -9.216  -0.720  5.98819E-02  8.75615E-02 -2.76796E-02
    8985.727     -9.003  -0.680  6.37140E-02  9.56197E-02 -3.19057E-02
    8985.928     -8.802  -0.640  6.79126E-02  1.04712E-01 -3.67995E-02
    8986.117     -8.613  -0.600  7.25134E-02  1.14956E-01 -4.24427E-02
    8986.294     -8.436  -0.560  7.75464E-02  1.26452E-01 -4.89054E-02
    8986.458     -8.271  -0.520  8.30278E-02  1.39259E-01 -5.62308E-02
    8986.611     -8.119  -0.480  8.89502E-02  1.53363E-01 -6.44126E-02
    8986.751     -7.979  -0.440  9.52704E-02  1.68640E-01 -7.33701E-02
    8986.879     -7.851  -0.400  1.01899E-01  1.84826E-01 -8.29273E-02
    8986.995     -7.735  -0.360  1.08695E-01  2.01503E-01 -9.28082E-02
    8987.099     -7.631  -0.320  1.15470E-01  2.18128E-01 -1.02658E-01
    8987.190     -7.540  -0.280  1.22011E-01  2.34102E-01 -1.12091E-01
    8987.269     -7.460  -0.240  1.28097E-01  2.48844E-01 -1.20748E-01
    8987.336     -7.393  -0.200  1.33531E-01  2.61872E-01 -1.28341E-01
    8987.391     -7.338  -0.160  1.38153E-01  2.72830E-01 -1.34676E-01
    8987.434     -7.296  -0.120  1.41850E-01  2.81492E-01 -1.39642E-01
    8987.464     -7.265  -0.080  1.44545E-01  2.87732E-01 -1.43187E-01
    8987.489     -7.241   0.000  1.46749E-01  2.92745E-01 -1.45996E-01
    8987.544     -7.186   0.120  1.51583E-01  3.04059E-01 -1.52476E-01
    8987.586     -7.143   0.160  1.55353E-01  3.12840E-01 -1.57488E-01
    8987.641     -7.089   0.200  1.60186E-01  3.24052E-01 -1.63866E-01
    8987.708     -7.021   0.240  1.66063E-01  3.37561E-01 -1.71498E-01
    8987.787     -6.942   0.280  1.72826E-01  3.53059E-01 -1.80233E-01
    8987.879     -6.851   0.320  1.80269E-01  3.70171E-01 -1.89901E-01
    8987.982     -6.747   0.360  1.88023E-01  3.88388E-01 -2.00365E-01
    8988.098     -6.631   0.400  1.95638E-01  4.07212E-01 -2.11574E-01
    8988.226     -6.503   0.440  2.02531E-01  4.26147E-01 -2.23616E-01
    8988.367     -6.363   0.480  2.08228E-01  4.44807E-01 -2.36579E-01
    8988.519     -6.211   0.520  2.12598E-01  4.63003E-01 -2.50405E-01
    8988.684     -6.046   0.560  2.16020E-01  4.80566E-01 -2.64546E-01
    8988.860     -5.869   0.600  2.19650E-01  4.97511E-01 -2.77860E-01
    8989.049     -5.680   0.640  2.25097E-01  5.13872E-01 -2.88775E-01
    8989.250     -5.479   0.680  2.34023E-01  5.29760E-01 -2.95736E-01
    8989.464     -5.266   0.720  2.47293E-01  5.45234E-01 -2.97941E-01
    8989.689     -5.040   0.760  2.64637E-01  5.60378E-01 -2.95741E-01
    8989.927     -4.803   0.800  2.85162E-01  5.75304E-01 -2.90142E-01
    8990.177     -4.553   0.840  3.08776E-01  5.90051E-01 -2.81276E-01
    8990.439     -4.290   0.880  3.36920E-01  6.04709E-01 -2.67788E-01
    8990.713     -4.016   0.920  3.70839E-01  6.19271E-01 -2.48432E-01
    8991.000     -3.730   0.960  4.10031E-01  6.33801E-01 -2.23769E-01
    8991.299     -3.431   1.000  4.51828E-01  6.48314E-01 -1.96486E-01
    8991.610     -3.120   1.040  4.91310E-01  6.62797E-01 -1.71486E-01
    8991.933     -2.797   1.080  5.24140E-01  6.77266E-01 -1.53126E-01
    8992.268     -2.462   1.120  5.52236E-01  6.91713E-01 -1.39477E-01
    8992.615     -2.114   1.160  5.81950E-01  7.06125E-01 -1.24175E-01
    8992.975     -1.755   1.200  6.18426E-01  7.20484E-01 -1.02058E-01
    8993.347     -1.383   1.240  6.66797E-01  7.34770E-01 -6.79725E-02
    8993.731     -0.999   1.280  7.36480E-01  7.48977E-01 -1.24963E-02
    8994.127     -0.602   1.320  8.36379E-01  7.63037E-01  7.33418E-02
    8994.536     -0.194   1.360  9.58051E-01  7.76965E-01  1.81086E-01
    8994.956      0.227   1.400  1.06967E+00  7.90709E-01  2.78960E-01
    8995.389      0.659   1.440  1.14587E+00  8.04238E-01  3.41636E-01
    8995.834      1.104   1.480  1.19122E+00  8.17541E-01  3.73677E-01
    8996.291      1.562   1.520  1.21306E+00  8.30565E-01  3.82497E-01
    8996.761      2.031   1.560  1.20744E+00  8.43300E-01  3.64138E-01
    8997.242      2.513   1.600  1.18129E+00  8.55691E-01  3.25596E-01
    8997.736      3.006   1.640  1.15234E+00  8.67749E-01  2.84591E-01
    8998.242      3.512   1.680  1.13612E+00  8.79422E-01  2.56701E-01
    8998.760      4.031   1.720  1.14537E+00  8.90700E-01  2.54673E-01
    8999.291      4.561   1.760  1.16759E+00  9.01553E-01  2.66041E-01
    8999.833      5.103   1.800  1.17356E+00  9.11952E-01  2.61610E-01
    9000.388      5.658   1.840  1.17167E+00  9.21912E-01  2.49758E-01
    9000.955      6.225   1.880  1.18592E+00  9.31406E-01  2.54512E-01
    9001.534      6.804   1.920  1.22444E+00  9.40408E-01  2.84027E-01
    9002.125      7.395   1.960  1.28184E+00  9.48914E-01  3.32927E-01
    9002.729      7.999   2.000  1.33784E+00  9.56922E-01  3.80921E-01
    9003.344      8.615   2.040  1.37060E+00  9.64432E-01  4.06169E-01
    9003.972      9.243   2.080  1.36587E+00  9.71442E-01  3.94429E-01
    9004.612      9.883   2.120  1.31873E+00  9.77955E-01  3.40779E-01
    9005.265     10.535   2.160  1.23764E+00  9.83972E-01  2.53672E-01
    9005.929     11.199   2.200  1.13795E+00  9.89497E-01  1.48452E-01
    9006.606     11.876   2.240  1.03850E+00  9.94534E-01  4.39675E-02
    9007.295     12.565   2.280  9.57865E-01  9.99108E-01 -4.12422E-02
    9007.996     13.266   2.320  9.05628E-01  1.00321E+00 -9.75775E-02
    9008.709     13.979   2.360  8.76830E-01  1.00687E+00 -1.30045E-01
    9009.434     14.705   2.400  8.60231E-01  1.01010E+00 -1.49871E-01
    9010.172     15.442   2.440  8.53260E-01  1.01292E+00 -1.59657E-01
    9010.922     16.192   2.480  8.57017E-01  1.01533E+00 -1.58311E-01
    9011.684     16.954   2.520  8.65499E-01  1.01736E+00 -1.51863E-01
    9012.458     17.728   2.560  8.69147E-01  1.01905E+00 -1.49907E-01
    9013.244     18.515   2.600  8.60653E-01  1.02037E+00 -1.59717E-01
    9014.043     19.313   2.640  8.42510E-01  1.02140E+00 -1.78891E-01
    9014.854     20.124   2.680  8.28764E-01  1.02210E+00 -1.93334E-01
    9015.677     20.947   2.720  8.30371E-01  1.02253E+00 -1.92159E-01
    9016.512     21.782   2.760  8.34894E-01  1.02271E+00 -1.87814E-01
    9017.359     22.629   2.800  8.40373E-01  1.02262E+00 -1.82250E-01
    9018.219     23.489   2.840  8.47896E-01  1.02234E+00 -1.74449E-01
    9019.090     24.361   2.880  8.57743E-01  1.02184E+00 -1.64099E-01
    9019.974     25.244   2.920  8.69313E-01  1.02117E+00 -1.51854E-01
    9020.870     26.141   2.960  8.81999E-01  1.02033E+00 -1.38330E-01
    9021.779     27.049   3.000  8.94917E-01  1.01936E+00 -1.24440E-01
    9022.699     27.969   3.040  9.07379E-01  1.01824E+00 -1.10857E-01
    9023.632     28.902   3.080  9.19558E-01  1.01702E+00 -9.74612E-02
    9024.577     29.847   3.120  9.31981E-01  1.01572E+00 -8.37351E-02
    9025.534     30.804   3.160  9.45114E-01  1.01431E+00 -6.91974E-02
    9026.503     31.773   3.200  9.59458E-01  1.01287E+00 -5.34163E-02
    9027.484     32.755   3.240  9.75093E-01  1.01137E+00 -3.62789E-02
    9028.478     33.748   3.280  9.91843E-01  1.00983E+00 -1.79860E-02
    9029.484     34.754   3.320  1.00967E+00  1.00828E+00  1.39296E-03
    9030.502     35.772   3.360  1.02814E+00  1.00672E+00  2.14225E-02
    9031.532     36.802   3.400  1.04647E+00  1.00516E+00  4.13123E-02
    9032.575     37.845   3.440  1.06379E+00  1.00360E+00  6.01919E-02
    9033.629     38.899   3.480  1.07937E+00  1.00205E+00  7.73157E-02
    9034.696     39.966   3.520  1.09260E+00  1.00056E+00  9.20334E-02
    9035.775     41.045   3.560  1.10312E+00  9.99089E-01  1.04029E-01
    9036.866     42.136   3.600  1.11101E+00  9.97678E-01  1.13329E-01
    9037.969     43.240   3.640  1.11617E+00  9.96313E-01  1.19858E-01
    9039.085     44.355   3.680  1.11852E+00  9.94996E-01  1.23527E-01
    9040.213     45.483   3.720  1.11825E+00  9.93751E-01  1.24496E-01
    9041.353     46.623   3.760  1.11548E+00  9.92581E-01  1.22894E-01
    9042.505     47.775   3.800  1.11031E+00  9.91488E-01  1.18822E-01
    9043.669     48.940   3.840  1.10285E+00  9.90452E-01  1.12396E-01
    9044.846     50.116   3.880  1.09329E+00  9.89518E-01  1.03770E-01
    9046.034     51.305   3.920  1.08167E+00  9.88666E-01  9.30044E-02
    9047.235     52.506   3.960  1.06808E+00  9.87896E-01  8.01818E-02
    9048.448     53.719   4.000  1.05285E+00  9.87207E-01  6.56440E-02
    9049.674     54.944   4.040  1.03666E+00  9.86601E-01  5.00599E-02
    9050.911     56.182   4.080  1.02057E+00  9.86079E-01  3.44948E-02
    9052.161     57.431   4.120  1.00581E+00  9.85662E-01  2.01469E-02
    9053.423     58.693   4.160  9.93253E-01  9.85329E-01  7.92392E-03
    9054.697     59.967   4.200  9.83239E-01  9.85078E-01 -1.83936E-03
    9055.983     61.253   4.240  9.75442E-01  9.84909E-01 -9.46709E-03
    9057.282     62.552   4.280  9.69012E-01  9.84819E-01 -1.58067E-02
    9058.592     63.862   4.320  9.62918E-01  9.84810E-01 -2.18918E-02
    9059.915     65.185   4.360  9.56299E-01  9.84877E-01 -2.85782E-02
    9061.250     66.520   4.400  9.48775E-01  9.85001E-01 -3.62260E-02
    9062.597     67.868   4.440  9.40684E-01  9.85222E-01 -4.45379E-02
    9063.957     69.227   4.480  9.32808E-01  9.85498E-01 -5.26903E-02
    9065.328     70.599   4.520  9.26177E-01  9.85848E-01 -5.96713E-02
    9066.712     71.982   4.560  9.21467E-01  9.86268E-01 -6.48017E-02
    9068.108     73.378   4.600  9.18896E-01  9.86737E-01 -6.78412E-02
    9069.516     74.786   4.640  9.18444E-01  9.87249E-01 -6.88048E-02
    9070.937     76.207   4.680  9.19996E-01  9.87804E-01 -6.78080E-02
    9072.369     77.639   4.720  9.23439E-01  9.88421E-01 -6.49822E-02
    9073.814     79.084   4.760  9.28574E-01  9.89054E-01 -6.04807E-02
    9075.271     80.541   4.800  9.35115E-01  9.89721E-01 -5.46064E-02
    9076.740     82.010   4.840  9.42622E-01  9.90401E-01 -4.77788E-02
    9078.221     83.492   4.880  9.50710E-01  9.91133E-01 -4.04227E-02
    9079.715     84.985   4.920  9.58921E-01  9.91850E-01 -3.29295E-02
    9081.220     86.491   4.960  9.67017E-01  9.92592E-01 -2.55750E-02
    9082.738     88.009   5.000  9.74847E-01  9.93337E-01 -1.84899E-02
    9084.268     89.539   5.040  9.82385E-01  9.94080E-01 -1.16950E-02
    9085.811     91.081   5.080  9.89687E-01  9.94797E-01 -5.10970E-03
    9087.365     92.635   5.120  9.96777E-01  9.95529E-01  1.24788E-03
    9088.932     94.202   5.160  1.00333E+00  9.96232E-01  7.09285E-03
    9090.511     95.781   5.200  1.00877E+00  9.96902E-01  1.18678E-02
    9092.102     97.372   5.240  1.01259E+00  9.97558E-01  1.50343E-02
    9093.705     98.975   5.280  1.01455E+00  9.98178E-01  1.63760E-02
    9095.320    100.591   5.320  1.01492E+00  9.98759E-01  1.61616E-02
    9096.948    102.218   5.360  1.01438E+00  9.99299E-01  1.50823E-02
    9098.588    103.858   5.400  1.01378E+00  9.99794E-01  1.39855E-02
    9100.240    105.510   5.440  1.01371E+00  1.00022E+00  1.34847E-02
    9101.904    107.174   5.480  1.01427E+00  1.00063E+00  1.36440E-02
    9103.580    108.851   5.520  1.01490E+00  1.00096E+00  1.39325E-02
    9105.269    110.539   5.560  1.01486E+00  1.00123E+00  1.36253E-02
    9106.970    112.240   5.600  1.01387E+00  1.00147E+00  1.23954E-02
    9108.683    113.953   5.640  1.01239E+00  1.00162E+00  1.07714E-02
    9110.408    115.678   5.680  1.01164E+00  1.00171E+00  9.93175E-03
    9112.145    117.416   5.720  1.01281E+00  1.00176E+00  1.10517E-02
    9113.895    119.165   5.760  1.01632E+00  1.00173E+00  1.45904E-02
    9115.657    120.927   5.800  1.02167E+00  1.00163E+00  2.00443E-02
    9117.431    122.701   5.840  1.02767E+00  1.00148E+00  2.61899E-02
    9119.217    124.487   5.880  1.03295E+00  1.00126E+00  3.16880E-02
    9121.015    126.285   5.920  1.03662E+00  1.00100E+00  3.56200E-02
    9122.825    128.096   5.960  1.03827E+00  1.00065E+00  3.76202E-02
    9124.648    129.918   6.000  1.03791E+00  1.00023E+00  3.76892E-02
