# # comment:                                                     FEFF 9.9.1  
# # Source:
# # Structure
# # Reduced
# # space
# # abc:
# # angles:
# # sites:
# # POT  SCF 100  7.0000   0, screened core-hole, AFOLP (folp(0)= 1.150)
# # Abs   Z=29 Rmt= 1.251 Rnm= 1.343 K  shell
# # Pot 1 Z=38 Rmt= 1.809 Rnm= 1.903
# # Pot 2 Z=29 Rmt= 1.251 Rnm= 1.343
# # Pot 3 Z= 8 Rmt= 1.057 Rnm= 1.128
# # Gam_ch=1.729E+00 H-L exch Vi= 0.000E+00 Vr= 0.000E+00
# # Mu=-8.176E+00eV kf=1.888E+00 Vint=-1.533E+01eV Rs_int= 1.921
# FMS rfms= 9.0000
# # PATH  Rmax=-1.000,  Keep_limit= 0.00, Heap_limit 0.00  Pwcrit= 2.50%
#  S02=0.950  Temp=   0.00  Debye_temp=   0.00  Global_sig2= 0.00000
#  Energy zero shift, vr, vi    0.00000E+00   0.00000E+00
#  Curved wave amplitude ratio filter   4.000%
#     file         sig2 tot  cw amp ratio   deg  nlegs   reff  inp sig2
#     0/   0 paths used
#  xsedge+ 50, used to normalize mu           2.4355E-04
#  -----------------------------------------------------------------------
#  omega    e    k    mu    mu0     chi     @#
    8984.266    -11.986  -1.000  4.06011E-02  5.78017E-02 -1.72006E-02
    8984.565    -11.688  -0.960  4.28263E-02  6.20493E-02 -1.92230E-02
    8984.852    -11.401  -0.920  4.52354E-02  6.67684E-02 -2.15330E-02
    8985.126    -11.127  -0.880  4.78505E-02  7.20279E-02 -2.41773E-02
    8985.388    -10.865  -0.840  5.06969E-02  7.79076E-02 -2.72107E-02
    8985.638    -10.615  -0.800  5.38035E-02  8.45003E-02 -3.06968E-02
    8985.876    -10.377  -0.760  5.72029E-02  9.19119E-02 -3.47090E-02
    8986.101    -10.152  -0.720  6.09311E-02  1.00262E-01 -3.93309E-02
    8986.315     -9.938  -0.680  6.50274E-02  1.09682E-01 -4.46550E-02
    8986.516     -9.737  -0.640  6.95318E-02  1.20312E-01 -5.07799E-02
    8986.705     -9.548  -0.600  7.44825E-02  1.32286E-01 -5.78033E-02
    8986.882     -9.371  -0.560  7.99099E-02  1.45721E-01 -6.58106E-02
    8987.046     -9.207  -0.520  8.58279E-02  1.60684E-01 -7.48562E-02
    8987.199     -9.054  -0.480  9.22226E-02  1.77160E-01 -8.49375E-02
    8987.339     -8.914  -0.440  9.90385E-02  1.95005E-01 -9.59661E-02
    8987.467     -8.786  -0.400  1.06167E-01  2.13909E-01 -1.07742E-01
    8987.583     -8.670  -0.360  1.13445E-01  2.33390E-01 -1.19945E-01
    8987.686     -8.567  -0.320  1.20660E-01  2.52817E-01 -1.32157E-01
    8987.778     -8.475  -0.280  1.27578E-01  2.71491E-01 -1.43913E-01
    8987.857     -8.396  -0.240  1.33972E-01  2.88739E-01 -1.54767E-01
    8987.924     -8.329  -0.200  1.39644E-01  3.03991E-01 -1.64348E-01
    8987.979     -8.274  -0.160  1.44443E-01  3.16832E-01 -1.72389E-01
    8988.022     -8.231  -0.120  1.48265E-01  3.26991E-01 -1.78726E-01
    8988.052     -8.201  -0.080  1.51040E-01  3.34314E-01 -1.83275E-01
    8988.076     -8.176   0.000  1.53296E-01  3.40202E-01 -1.86906E-01
    8988.131     -8.122   0.120  1.58457E-01  3.53483E-01 -1.95025E-01
    8988.174     -8.079   0.160  1.62472E-01  3.63826E-01 -2.01354E-01
    8988.229     -8.024   0.200  1.67630E-01  3.77032E-01 -2.09402E-01
    8988.296     -7.957   0.240  1.73931E-01  3.92958E-01 -2.19026E-01
    8988.375     -7.878   0.280  1.81346E-01  4.11291E-01 -2.29945E-01
    8988.467     -7.786   0.320  1.89854E-01  4.31598E-01 -2.41744E-01
    8988.570     -7.683   0.360  1.99391E-01  4.53314E-01 -2.53923E-01
    8988.686     -7.567   0.400  2.09963E-01  4.75854E-01 -2.65891E-01
    8988.814     -7.439   0.440  2.21622E-01  4.98645E-01 -2.77023E-01
    8988.954     -7.299   0.480  2.34492E-01  5.21290E-01 -2.86798E-01
    8989.107     -7.146   0.520  2.48762E-01  5.43481E-01 -2.94719E-01
    8989.271     -6.982   0.560  2.64642E-01  5.65070E-01 -3.00428E-01
    8989.448     -6.805   0.600  2.82308E-01  5.86038E-01 -3.03729E-01
    8989.637     -6.616   0.640  3.01588E-01  6.06371E-01 -3.04783E-01
    8989.838     -6.415   0.680  3.21584E-01  6.26155E-01 -3.04571E-01
    8990.052     -6.201   0.720  3.39988E-01  6.45468E-01 -3.05480E-01
    8990.277     -5.976   0.760  3.53229E-01  6.64342E-01 -3.11114E-01
    8990.515     -5.738   0.800  3.58600E-01  6.82843E-01 -3.24243E-01
    8990.765     -5.488   0.840  3.57231E-01  7.01020E-01 -3.43789E-01
    8991.027     -5.226   0.880  3.53984E-01  7.18888E-01 -3.64904E-01
    8991.301     -4.952   0.920  3.54290E-01  7.36428E-01 -3.82138E-01
    8991.588     -4.665   0.960  3.61807E-01  7.53670E-01 -3.91863E-01
    8991.886     -4.366   1.000  3.78409E-01  7.70593E-01 -3.92184E-01
    8992.197     -4.056   1.040  4.05067E-01  7.87167E-01 -3.82100E-01
    8992.520     -3.732   1.080  4.42026E-01  8.03355E-01 -3.61329E-01
    8992.856     -3.397   1.120  4.87909E-01  8.19115E-01 -3.31206E-01
    8993.203     -3.050   1.160  5.38054E-01  8.34422E-01 -2.96369E-01
    8993.563     -2.690   1.200  5.84431E-01  8.49250E-01 -2.64820E-01
    8993.935     -2.318   1.240  6.20367E-01  8.63548E-01 -2.43182E-01
    8994.319     -1.934   1.280  6.46035E-01  8.77288E-01 -2.31253E-01
    8994.715     -1.538   1.320  6.65622E-01  8.90440E-01 -2.24818E-01
    8995.123     -1.129   1.360  6.82155E-01  9.02955E-01 -2.20800E-01
    8995.544     -0.709   1.400  6.99021E-01  9.14849E-01 -2.15828E-01
    8995.977     -0.276   1.440  7.21819E-01  9.26072E-01 -2.04253E-01
    8996.422      0.169   1.480  7.56157E-01  9.36602E-01 -1.80445E-01
    8996.879      0.626   1.520  8.06420E-01  9.46481E-01 -1.40061E-01
    8997.348      1.096   1.560  8.75095E-01  9.55648E-01 -8.05535E-02
    8997.830      1.577   1.600  9.61518E-01  9.64146E-01 -2.62782E-03
    8998.324      2.071   1.640  1.06068E+00  9.71959E-01  8.87227E-02
    8998.830      2.577   1.680  1.16293E+00  9.79093E-01  1.83834E-01
    8999.348      3.095   1.720  1.25633E+00  9.85579E-01  2.70754E-01
    8999.878      3.625   1.760  1.33365E+00  9.91428E-01  3.42222E-01
    9000.421      4.168   1.800  1.39518E+00  9.96651E-01  3.98529E-01
    9000.976      4.723   1.840  1.44524E+00  1.00130E+00  4.43935E-01
    9001.542      5.290   1.880  1.48784E+00  1.00537E+00  4.82470E-01
    9002.122      5.869   1.920  1.51589E+00  1.00890E+00  5.06983E-01
    9002.713      6.460   1.960  1.51324E+00  1.01195E+00  5.01290E-01
    9003.316      7.064   2.000  1.47445E+00  1.01450E+00  4.59957E-01
    9003.932      7.679   2.040  1.41229E+00  1.01659E+00  3.95694E-01
    9004.560      8.307   2.080  1.34433E+00  1.01829E+00  3.26038E-01
    9005.200      8.947   2.120  1.27948E+00  1.01958E+00  2.59898E-01
    9005.852      9.599   2.160  1.21864E+00  1.02053E+00  1.98107E-01
    9006.517     10.264   2.200  1.16087E+00  1.02115E+00  1.39723E-01
    9007.193     10.941   2.240  1.10738E+00  1.02147E+00  8.59046E-02
    9007.882     11.629   2.280  1.06077E+00  1.02154E+00  3.92338E-02
    9008.583     12.330   2.320  1.03265E+00  1.02136E+00  1.12966E-02
    9009.297     13.044   2.360  1.02248E+00  1.02099E+00  1.49055E-03
    9010.022     13.769   2.400  1.02044E+00  1.02040E+00  4.35558E-05
    9010.760     14.507   2.440  1.02140E+00  1.01969E+00  1.70776E-03
    9011.509     15.257   2.480  1.02181E+00  1.01882E+00  2.98996E-03
    9012.271     16.019   2.520  1.01969E+00  1.01784E+00  1.84972E-03
    9013.046     16.793   2.560  1.01406E+00  1.01676E+00 -2.69945E-03
    9013.832     17.579   2.600  1.00515E+00  1.01560E+00 -1.04539E-02
    9014.631     18.378   2.640  9.93607E-01  1.01439E+00 -2.07825E-02
    9015.441     19.188   2.680  9.80377E-01  1.01314E+00 -3.27584E-02
    9016.264     20.011   2.720  9.66259E-01  1.01185E+00 -4.55867E-02
    9017.099     20.847   2.760  9.51745E-01  1.01055E+00 -5.88065E-02
    9017.947     21.694   2.800  9.37045E-01  1.00928E+00 -7.22302E-02
    9018.806     22.553   2.840  9.22357E-01  1.00798E+00 -8.56269E-02
    9019.678     23.425   2.880  9.08150E-01  1.00674E+00 -9.85937E-02
    9020.562     24.309   2.920  8.95136E-01  1.00552E+00 -1.10384E-01
    9021.458     25.205   2.960  8.84088E-01  1.00434E+00 -1.20248E-01
    9022.366     26.113   3.000  8.75443E-01  1.00322E+00 -1.27773E-01
    9023.287     27.034   3.040  8.69386E-01  1.00214E+00 -1.32759E-01
    9024.220     27.967   3.080  8.66133E-01  1.00112E+00 -1.34989E-01
    9025.164     28.912   3.120  8.65685E-01  1.00017E+00 -1.34490E-01
    9026.121     29.869   3.160  8.67771E-01  9.99303E-01 -1.31532E-01
    9027.091     30.838   3.200  8.72352E-01  9.98510E-01 -1.26158E-01
    9028.072     31.819   3.240  8.79498E-01  9.97798E-01 -1.18300E-01
    9029.066     32.813   3.280  8.89085E-01  9.97167E-01 -1.08082E-01
    9030.072     33.819   3.320  9.00840E-01  9.96617E-01 -9.57769E-02
    9031.090     34.837   3.360  9.14457E-01  9.96151E-01 -8.16946E-02
    9032.120     35.867   3.400  9.29314E-01  9.95788E-01 -6.64737E-02
    9033.162     36.909   3.440  9.44476E-01  9.95486E-01 -5.10098E-02
    9034.217     37.964   3.480  9.59191E-01  9.95266E-01 -3.60751E-02
    9035.284     39.031   3.520  9.72763E-01  9.95150E-01 -2.23865E-02
    9036.363     40.110   3.560  9.84544E-01  9.95094E-01 -1.05497E-02
    9037.454     41.201   3.600  9.94268E-01  9.95141E-01 -8.73074E-04
    9038.557     42.304   3.640  1.00189E+00  9.95268E-01  6.62615E-03
    9039.673     43.420   3.680  1.00774E+00  9.95450E-01  1.22924E-02
    9040.801     44.548   3.720  1.01244E+00  9.95710E-01  1.67294E-02
    9041.941     45.688   3.760  1.01674E+00  9.96046E-01  2.06962E-02
    9043.093     46.840   3.800  1.02127E+00  9.96456E-01  2.48106E-02
    9044.257     48.004   3.840  1.02635E+00  9.96915E-01  2.94323E-02
    9045.434     49.181   3.880  1.03212E+00  9.97424E-01  3.46935E-02
    9046.622     50.369   3.920  1.03849E+00  9.98003E-01  4.04842E-02
    9047.823     51.570   3.960  1.04517E+00  9.98648E-01  4.65248E-02
    9049.036     52.783   4.000  1.05182E+00  9.99314E-01  5.25066E-02
    9050.262     54.009   4.040  1.05810E+00  1.00004E+00  5.80620E-02
    9051.499     55.246   4.080  1.06360E+00  1.00079E+00  6.28098E-02
    9052.749     56.496   4.120  1.06795E+00  1.00157E+00  6.63820E-02
    9054.011     57.758   4.160  1.07106E+00  1.00238E+00  6.86740E-02
    9055.285     59.032   4.200  1.07288E+00  1.00321E+00  6.96757E-02
    9056.571     60.318   4.240  1.07362E+00  1.00406E+00  6.95588E-02
    9057.869     61.616   4.280  1.07354E+00  1.00492E+00  6.86186E-02
    9059.180     62.927   4.320  1.07296E+00  1.00580E+00  6.71612E-02
    9060.503     64.250   4.360  1.07206E+00  1.00667E+00  6.53964E-02
    9061.838     65.585   4.400  1.07089E+00  1.00755E+00  6.33455E-02
    9063.185     66.932   4.440  1.06921E+00  1.00840E+00  6.08082E-02
    9064.544     68.291   4.480  1.06668E+00  1.00925E+00  5.74290E-02
    9065.916     69.663   4.520  1.06306E+00  1.01007E+00  5.29887E-02
    9067.300     71.047   4.560  1.05838E+00  1.01088E+00  4.75003E-02
    9068.696     72.443   4.600  1.05266E+00  1.01167E+00  4.09891E-02
    9070.104     73.851   4.640  1.04571E+00  1.01241E+00  3.33001E-02
    9071.524     75.271   4.680  1.03726E+00  1.01313E+00  2.41357E-02
    9072.957     76.704   4.720  1.02724E+00  1.01381E+00  1.34328E-02
    9074.402     78.149   4.760  1.01609E+00  1.01444E+00  1.64903E-03
    9075.859     79.606   4.800  1.00474E+00  1.01504E+00 -1.03059E-02
    9077.328     81.075   4.840  9.94144E-01  1.01560E+00 -2.14513E-02
    9078.809     82.556   4.880  9.85099E-01  1.01610E+00 -3.10035E-02
    9080.302     84.050   4.920  9.78060E-01  1.01654E+00 -3.84833E-02
    9081.808     85.555   4.960  9.73253E-01  1.01696E+00 -4.37059E-02
    9083.326     87.073   5.000  9.70469E-01  1.01730E+00 -4.68341E-02
    9084.856     88.603   5.040  9.69112E-01  1.01758E+00 -4.84627E-02
    9086.398     90.146   5.080  9.68340E-01  1.01780E+00 -4.94573E-02
    9087.953     91.700   5.120  9.67335E-01  1.01797E+00 -5.06366E-02
    9089.520     93.267   5.160  9.65603E-01  1.01807E+00 -5.24715E-02
    9091.098     94.846   5.200  9.63285E-01  1.01813E+00 -5.48442E-02
    9092.689     96.437   5.240  9.61040E-01  1.01814E+00 -5.70950E-02
    9094.293     98.040   5.280  9.59800E-01  1.01807E+00 -5.82699E-02
    9095.908     99.655   5.320  9.60451E-01  1.01796E+00 -5.75060E-02
    9097.536    101.283   5.360  9.63502E-01  1.01780E+00 -5.42950E-02
    9099.176    102.923   5.400  9.68969E-01  1.01757E+00 -4.85974E-02
    9100.828    104.575   5.440  9.76523E-01  1.01729E+00 -4.07657E-02
    9102.492    106.239   5.480  9.85539E-01  1.01697E+00 -3.14260E-02
    9104.168    107.915   5.520  9.95269E-01  1.01657E+00 -2.13046E-02
    9105.857    109.604   5.560  1.00513E+00  1.01616E+00 -1.10372E-02
    9107.558    111.305   5.600  1.01473E+00  1.01569E+00 -9.51970E-04
    9109.271    113.018   5.640  1.02408E+00  1.01517E+00  8.90835E-03
    9110.996    114.743   5.680  1.03316E+00  1.01464E+00  1.85215E-02
    9112.733    116.480   5.720  1.04159E+00  1.01407E+00  2.75178E-02
    9114.483    118.230   5.760  1.04853E+00  1.01346E+00  3.50699E-02
    9116.244    119.991   5.800  1.05288E+00  1.01282E+00  4.00614E-02
    9118.018    121.765   5.840  1.05366E+00  1.01215E+00  4.15076E-02
    9119.804    123.552   5.880  1.05042E+00  1.01148E+00  3.89450E-02
    9121.603    125.350   5.920  1.04351E+00  1.01080E+00  3.27059E-02
    9123.413    127.160   5.960  1.03414E+00  1.01011E+00  2.40285E-02
    9125.236    128.983   6.000  1.02392E+00  1.00941E+00  1.45142E-02
