# # comment:                                                     FEFF 9.9.1  
# # Source:
# # Structure
# # Reduced
# # space
# # abc:
# # angles:
# # sites:
# # POT  SCF 100  7.0000   0, screened core-hole, AFOLP (folp(0)= 1.150)
# # Abs   Z=29 Rmt= 1.242 Rnm= 1.329 K  shell
# # Pot 1 Z=57 Rmt= 1.745 Rnm= 1.827
# # Pot 2 Z=29 Rmt= 1.219 Rnm= 1.310
# # Pot 3 Z= 8 Rmt= 1.058 Rnm= 1.119
# # Gam_ch=1.729E+00 H-L exch Vi= 0.000E+00 Vr= 0.000E+00
# # Mu=-7.960E+00eV kf=2.019E+00 Vint=-1.691E+01eV Rs_int= 1.796
# FMS rfms= 9.0000
# # PATH  Rmax=-1.000,  Keep_limit= 0.00, Heap_limit 0.00  Pwcrit= 2.50%
#  S02=0.950  Temp=   0.00  Debye_temp=   0.00  Global_sig2= 0.00000
#  Energy zero shift, vr, vi    0.00000E+00   0.00000E+00
#  Curved wave amplitude ratio filter   4.000%
#     file         sig2 tot  cw amp ratio   deg  nlegs   reff  inp sig2
#     0/   0 paths used
#  xsedge+ 50, used to normalize mu           2.4589E-04
#  -----------------------------------------------------------------------
#  omega    e    k    mu    mu0     chi     @#
    8984.329    -11.770  -1.000  4.24247E-02  5.47583E-02 -1.23336E-02
    8984.628    -11.471  -0.960  4.50314E-02  5.87649E-02 -1.37335E-02
    8984.914    -11.185  -0.920  4.78997E-02  6.32194E-02 -1.53197E-02
    8985.189    -10.910  -0.880  5.10686E-02  6.81878E-02 -1.71192E-02
    8985.451    -10.648  -0.840  5.45841E-02  7.37471E-02 -1.91630E-02
    8985.701    -10.398  -0.800  5.85001E-02  7.99866E-02 -2.14864E-02
    8985.938    -10.160  -0.760  6.28793E-02  8.70085E-02 -2.41291E-02
    8986.164     -9.935  -0.720  6.77935E-02  9.49285E-02 -2.71350E-02
    8986.377     -9.722  -0.680  7.33228E-02  1.03874E-01 -3.05512E-02
    8986.579     -9.520  -0.640  7.95529E-02  1.13980E-01 -3.44267E-02
    8986.767     -9.331  -0.600  8.65691E-02  1.25377E-01 -3.88083E-02
    8986.944     -9.155  -0.560  9.44454E-02  1.38180E-01 -4.37348E-02
    8987.109     -8.990  -0.520  1.03227E-01  1.52455E-01 -4.92285E-02
    8987.261     -8.838  -0.480  1.12905E-01  1.68188E-01 -5.52830E-02
    8987.401     -8.697  -0.440  1.23390E-01  1.85240E-01 -6.18500E-02
    8987.529     -8.569  -0.400  1.34486E-01  2.03314E-01 -6.88275E-02
    8987.645     -8.454  -0.360  1.45886E-01  2.21943E-01 -7.60562E-02
    8987.749     -8.350  -0.320  1.57192E-01  2.40519E-01 -8.33272E-02
    8987.840     -8.258  -0.280  1.67968E-01  2.58370E-01 -9.04024E-02
    8987.920     -8.179  -0.240  1.77806E-01  2.74846E-01 -9.70406E-02
    8987.987     -8.112  -0.200  1.86386E-01  2.89406E-01 -1.03020E-01
    8988.042     -8.057  -0.160  1.93501E-01  3.01652E-01 -1.08150E-01
    8988.084     -8.015  -0.120  1.99051E-01  3.11331E-01 -1.12280E-01
    8988.115     -7.984  -0.080  2.03006E-01  3.18302E-01 -1.15296E-01
    8988.139     -7.960   0.000  2.06157E-01  3.23902E-01 -1.17745E-01
    8988.194     -7.905   0.120  2.12875E-01  3.36541E-01 -1.23666E-01
    8988.237     -7.862   0.160  2.17998E-01  3.46348E-01 -1.28350E-01
    8988.291     -7.807   0.200  2.24385E-01  3.58876E-01 -1.34491E-01
    8988.359     -7.740   0.240  2.31786E-01  3.73953E-01 -1.42167E-01
    8988.438     -7.661   0.280  2.39848E-01  3.91235E-01 -1.51388E-01
    8988.529     -7.570   0.320  2.48223E-01  4.10320E-01 -1.62096E-01
    8988.633     -7.466   0.360  2.56514E-01  4.30618E-01 -1.74104E-01
    8988.749     -7.350   0.400  2.64556E-01  4.51563E-01 -1.87008E-01
    8988.877     -7.222   0.440  2.72411E-01  4.72581E-01 -2.00170E-01
    8989.017     -7.082   0.480  2.80521E-01  4.93278E-01 -2.12756E-01
    8989.169     -6.930   0.520  2.89482E-01  5.13371E-01 -2.23888E-01
    8989.334     -6.765   0.560  2.99694E-01  5.32717E-01 -2.33023E-01
    8989.511     -6.588   0.600  3.11171E-01  5.51284E-01 -2.40113E-01
    8989.700     -6.399   0.640  3.23408E-01  5.69129E-01 -2.45721E-01
    8989.901     -6.198   0.680  3.35528E-01  5.86327E-01 -2.50800E-01
    8990.114     -5.985   0.720  3.46412E-01  6.02968E-01 -2.56556E-01
    8990.340     -5.759   0.760  3.55038E-01  6.19160E-01 -2.64122E-01
    8990.577     -5.521   0.800  3.61168E-01  6.34960E-01 -2.73792E-01
    8990.827     -5.271   0.840  3.66118E-01  6.50453E-01 -2.84335E-01
    8991.090     -5.009   0.880  3.72275E-01  6.65672E-01 -2.93397E-01
    8991.364     -4.735   0.920  3.81870E-01  6.80652E-01 -2.98783E-01
    8991.650     -4.448   0.960  3.96277E-01  6.95439E-01 -2.99162E-01
    8991.949     -4.150   1.000  4.15755E-01  7.10027E-01 -2.94272E-01
    8992.260     -3.839   1.040  4.39596E-01  7.24421E-01 -2.84825E-01
    8992.583     -3.516   1.080  4.67110E-01  7.38618E-01 -2.71508E-01
    8992.918     -3.181   1.120  4.97262E-01  7.52611E-01 -2.55349E-01
    8993.266     -2.833   1.160  5.26665E-01  7.66363E-01 -2.39699E-01
    8993.625     -2.473   1.200  5.51543E-01  7.79900E-01 -2.28357E-01
    8993.997     -2.102   1.240  5.71168E-01  7.93160E-01 -2.21992E-01
    8994.381     -1.717   1.280  5.86230E-01  8.06139E-01 -2.19909E-01
    8994.778     -1.321   1.320  5.97698E-01  8.18813E-01 -2.21115E-01
    8995.186     -0.913   1.360  6.11454E-01  8.31155E-01 -2.19701E-01
    8995.607     -0.492   1.400  6.38521E-01  8.43141E-01 -2.04620E-01
    8996.039     -0.059   1.440  6.83820E-01  8.54742E-01 -1.70923E-01
    8996.484      0.386   1.480  7.36007E-01  8.65953E-01 -1.29946E-01
    8996.942      0.843   1.520  7.80555E-01  8.76748E-01 -9.61932E-02
    8997.411      1.312   1.560  8.21910E-01  8.87101E-01 -6.51915E-02
    8997.893      1.794   1.600  8.76314E-01  8.97009E-01 -2.06943E-02
    8998.386      2.288   1.640  9.55304E-01  9.06467E-01  4.88378E-02
    8998.892      2.794   1.680  1.05682E+00  9.15473E-01  1.41343E-01
    8999.411      3.312   1.720  1.16337E+00  9.23986E-01  2.39388E-01
    8999.941      3.842   1.760  1.25399E+00  9.32046E-01  3.21943E-01
    9000.483      4.385   1.800  1.32573E+00  9.39614E-01  3.86115E-01
    9001.038      4.939   1.840  1.38756E+00  9.46710E-01  4.40846E-01
    9001.605      5.506   1.880  1.43279E+00  9.53338E-01  4.79451E-01
    9002.184      6.085   1.920  1.44415E+00  9.59504E-01  4.84650E-01
    9002.776      6.677   1.960  1.42113E+00  9.65211E-01  4.55924E-01
    9003.379      7.280   2.000  1.38138E+00  9.70484E-01  4.10901E-01
    9003.995      7.896   2.040  1.33975E+00  9.75312E-01  3.64442E-01
    9004.623      8.524   2.080  1.29739E+00  9.79742E-01  3.17647E-01
    9005.263      9.164   2.120  1.24702E+00  9.83740E-01  2.63281E-01
    9005.915      9.816   2.160  1.18638E+00  9.87376E-01  1.99000E-01
    9006.579     10.481   2.200  1.12502E+00  9.90617E-01  1.34403E-01
    9007.256     11.157   2.240  1.07341E+00  9.93513E-01  7.98945E-02
    9007.945     11.846   2.280  1.03491E+00  9.96052E-01  3.88583E-02
    9008.646     12.547   2.320  1.01264E+00  9.98287E-01  1.43508E-02
    9009.359     13.260   2.360  1.00987E+00  1.00022E+00  9.64258E-03
    9010.085     13.986   2.400  1.02339E+00  1.00187E+00  2.15197E-02
    9010.822     14.723   2.440  1.04294E+00  1.00325E+00  3.96920E-02
    9011.572     15.473   2.480  1.05473E+00  1.00439E+00  5.03345E-02
    9012.334     16.235   2.520  1.05637E+00  1.00530E+00  5.10671E-02
    9013.108     17.009   2.560  1.04989E+00  1.00600E+00  4.38942E-02
    9013.895     17.796   2.600  1.03760E+00  1.00649E+00  3.11090E-02
    9014.693     18.594   2.640  1.02187E+00  1.00682E+00  1.50538E-02
    9015.504     19.405   2.680  1.00391E+00  1.00700E+00 -3.09235E-03
    9016.327     20.228   2.720  9.84928E-01  1.00703E+00 -2.20991E-02
    9017.162     21.063   2.760  9.65987E-01  1.00691E+00 -4.09197E-02
    9018.009     21.911   2.800  9.47820E-01  1.00671E+00 -5.88869E-02
    9018.869     22.770   2.840  9.31124E-01  1.00637E+00 -7.52495E-02
    9019.741     23.642   2.880  9.16096E-01  1.00598E+00 -8.98791E-02
    9020.625     24.526   2.920  9.02585E-01  1.00550E+00 -1.02912E-01
    9021.521     25.422   2.960  8.90884E-01  1.00495E+00 -1.14061E-01
    9022.429     26.330   3.000  8.81200E-01  1.00435E+00 -1.23146E-01
    9023.349     27.251   3.040  8.73886E-01  1.00372E+00 -1.29839E-01
    9024.282     28.183   3.080  8.69328E-01  1.00305E+00 -1.33718E-01
    9025.227     29.128   3.120  8.67579E-01  1.00235E+00 -1.34776E-01
    9026.184     30.085   3.160  8.68090E-01  1.00166E+00 -1.33566E-01
    9027.153     31.054   3.200  8.70353E-01  1.00095E+00 -1.30599E-01
    9028.135     32.036   3.240  8.73992E-01  1.00023E+00 -1.26234E-01
    9029.128     33.030   3.280  8.78745E-01  9.99524E-01 -1.20778E-01
    9030.134     34.035   3.320  8.84563E-01  9.98849E-01 -1.14287E-01
    9031.152     35.053   3.360  8.91511E-01  9.98184E-01 -1.06673E-01
    9032.182     36.084   3.400  8.99711E-01  9.97528E-01 -9.78172E-02
    9033.225     37.126   3.440  9.09156E-01  9.96906E-01 -8.77508E-02
    9034.280     38.181   3.480  9.19925E-01  9.96343E-01 -7.64179E-02
    9035.346     39.247   3.520  9.31944E-01  9.95795E-01 -6.38509E-02
    9036.425     40.326   3.560  9.45085E-01  9.95285E-01 -5.01991E-02
    9037.516     41.418   3.600  9.59148E-01  9.94814E-01 -3.56659E-02
    9038.620     42.521   3.640  9.73870E-01  9.94386E-01 -2.05159E-02
    9039.735     43.637   3.680  9.88920E-01  9.94021E-01 -5.10064E-03
    9040.863     44.764   3.720  1.00394E+00  9.93677E-01  1.02620E-02
    9042.003     45.904   3.760  1.01871E+00  9.93397E-01  2.53081E-02
    9043.155     47.056   3.800  1.03278E+00  9.93161E-01  3.96236E-02
    9044.320     48.221   3.840  1.04554E+00  9.92968E-01  5.25705E-02
    9045.496     49.397   3.880  1.05634E+00  9.92839E-01  6.35004E-02
    9046.685     50.586   3.920  1.06461E+00  9.92733E-01  7.18804E-02
    9047.886     51.787   3.960  1.07015E+00  9.92689E-01  7.74647E-02
    9049.099     53.000   4.000  1.07315E+00  9.92689E-01  8.04605E-02
    9050.324     54.225   4.040  1.07413E+00  9.92730E-01  8.14041E-02
    9051.562     55.463   4.080  1.07375E+00  9.92812E-01  8.09403E-02
    9052.811     56.712   4.120  1.07246E+00  9.92933E-01  7.95270E-02
    9054.073     57.974   4.160  1.07051E+00  9.93096E-01  7.74130E-02
    9055.347     59.248   4.200  1.06783E+00  9.93320E-01  7.45089E-02
    9056.633     60.535   4.240  1.06416E+00  9.93558E-01  7.06067E-02
    9057.932     61.833   4.280  1.05945E+00  9.93809E-01  6.56384E-02
    9059.243     63.144   4.320  1.05386E+00  9.94116E-01  5.97467E-02
    9060.565     64.467   4.360  1.04763E+00  9.94438E-01  5.31867E-02
    9061.900     65.802   4.400  1.04098E+00  9.94793E-01  4.61859E-02
    9063.248     67.149   4.440  1.03411E+00  9.95179E-01  3.89316E-02
    9064.607     68.508   4.480  1.02713E+00  9.95574E-01  3.15566E-02
    9065.979     69.880   4.520  1.02023E+00  9.95975E-01  2.42563E-02
    9067.362     71.264   4.560  1.01369E+00  9.96402E-01  1.72924E-02
    9068.758     72.659   4.600  1.00776E+00  9.96834E-01  1.09216E-02
    9070.167     74.068   4.640  1.00261E+00  9.97271E-01  5.34038E-03
    9071.587     75.488   4.680  9.98369E-01  9.97729E-01  6.40119E-04
    9073.019     76.921   4.720  9.94937E-01  9.98166E-01 -3.22868E-03
    9074.464     78.365   4.760  9.92185E-01  9.98601E-01 -6.41629E-03
    9075.921     79.822   4.800  9.89935E-01  9.99057E-01 -9.12209E-03
    9077.390     81.291   4.840  9.87906E-01  9.99487E-01 -1.15812E-02
    9078.872     82.773   4.880  9.85883E-01  9.99912E-01 -1.40289E-02
    9080.365     84.266   4.920  9.83662E-01  1.00033E+00 -1.66692E-02
    9081.871     85.772   4.960  9.81133E-01  1.00072E+00 -1.95868E-02
    9083.389     87.290   5.000  9.78459E-01  1.00110E+00 -2.26393E-02
    9084.919     88.820   5.040  9.75973E-01  1.00144E+00 -2.54715E-02
    9086.461     90.362   5.080  9.74133E-01  1.00178E+00 -2.76492E-02
    9088.016     91.917   5.120  9.73230E-01  1.00209E+00 -2.88555E-02
    9089.582     93.483   5.160  9.73312E-01  1.00238E+00 -2.90654E-02
    9091.161     95.062   5.200  9.74096E-01  1.00263E+00 -2.85372E-02
    9092.752     96.653   5.240  9.75133E-01  1.00285E+00 -2.77183E-02
    9094.355     98.256   5.280  9.75982E-01  1.00303E+00 -2.70510E-02
    9095.971     99.872   5.320  9.76337E-01  1.00320E+00 -2.68638E-02
    9097.598    101.500   5.360  9.76100E-01  1.00333E+00 -2.72310E-02
    9099.238    103.139   5.400  9.75452E-01  1.00342E+00 -2.79718E-02
    9100.890    104.791   5.440  9.74760E-01  1.00348E+00 -2.87186E-02
    9102.554    106.456   5.480  9.74502E-01  1.00352E+00 -2.90152E-02
    9104.231    108.132   5.520  9.75077E-01  1.00349E+00 -2.84178E-02
    9105.919    109.821   5.560  9.76819E-01  1.00345E+00 -2.66347E-02
    9107.620    111.521   5.600  9.79784E-01  1.00335E+00 -2.35684E-02
    9109.333    113.234   5.640  9.83912E-01  1.00324E+00 -1.93234E-02
    9111.058    114.959   5.680  9.88880E-01  1.00308E+00 -1.42014E-02
    9112.796    116.697   5.720  9.94161E-01  1.00289E+00 -8.72994E-03
    9114.545    118.446   5.760  9.99113E-01  1.00269E+00 -3.57309E-03
    9116.307    120.208   5.800  1.00304E+00  1.00242E+00  6.14117E-04
    9118.081    121.982   5.840  1.00550E+00  1.00214E+00  3.35086E-03
    9119.867    123.768   5.880  1.00624E+00  1.00183E+00  4.40676E-03
    9121.665    125.566   5.920  1.00536E+00  1.00149E+00  3.86722E-03
    9123.476    127.377   5.960  1.00335E+00  1.00111E+00  2.23632E-03
    9125.298    129.200   6.000  1.00103E+00  1.00071E+00  3.23905E-04
