# # comment:                                                     FEFF 9.9.1  
# # Source:
# # Structure
# # Reduced
# # space
# # abc:
# # angles:
# # sites:
# # POT  SCF 100  7.0000   0, screened core-hole, AFOLP (folp(0)= 1.150)
# # Abs   Z=29 Rmt= 1.333 Rnm= 1.386 K  shell
# # Pot 1 Z=27 Rmt= 1.383 Rnm= 1.459
# # Pot 2 Z=29 Rmt= 1.331 Rnm= 1.384
# # Pot 3 Z=42 Rmt= 1.165 Rnm= 1.364
# # Pot 4 Z= 8 Rmt= 0.969 Rnm= 1.079
# # Gam_ch=1.729E+00 H-L exch Vi= 0.000E+00 Vr= 0.000E+00
# # Mu=-6.404E+00eV kf=2.285E+00 Vint=-1.618E+01eV Rs_int= 1.587
# FMS rfms= 9.0000
# # PATH  Rmax=-1.000,  Keep_limit= 0.00, Heap_limit 0.00  Pwcrit= 2.50%
#  S02=0.950  Temp=   0.00  Debye_temp=   0.00  Global_sig2= 0.00000
#  Energy zero shift, vr, vi    0.00000E+00   0.00000E+00
#  Curved wave amplitude ratio filter   4.000%
#     file         sig2 tot  cw amp ratio   deg  nlegs   reff  inp sig2
#     0/   0 paths used
#  xsedge+ 50, used to normalize mu           2.4632E-04
#  -----------------------------------------------------------------------
#  omega    e    k    mu    mu0     chi     @#
    8983.556    -10.214  -1.000  4.38654E-02  5.58181E-02 -1.19527E-02
    8983.855     -9.916  -0.960  4.63012E-02  5.99347E-02 -1.36335E-02
    8984.141     -9.629  -0.920  4.89346E-02  6.45149E-02 -1.55803E-02
    8984.416     -9.355  -0.880  5.17893E-02  6.96273E-02 -1.78380E-02
    8984.678     -9.093  -0.840  5.48930E-02  7.53522E-02 -2.04592E-02
    8984.928     -8.843  -0.800  5.82771E-02  8.17824E-02 -2.35053E-02
    8985.166     -8.605  -0.760  6.19777E-02  8.90247E-02 -2.70469E-02
    8985.391     -8.380  -0.720  6.60354E-02  9.71996E-02 -3.11642E-02
    8985.605     -8.166  -0.680  7.04944E-02  1.06440E-01 -3.59458E-02
    8985.806     -7.965  -0.640  7.54009E-02  1.16887E-01 -4.14859E-02
    8985.995     -7.776  -0.600  8.07996E-02  1.28678E-01 -4.78780E-02
    8986.171     -7.599  -0.560  8.67274E-02  1.41931E-01 -5.52034E-02
    8986.336     -7.435  -0.520  9.32035E-02  1.56717E-01 -6.35135E-02
    8986.488     -7.282  -0.480  1.00216E-01  1.73021E-01 -7.28053E-02
    8986.629     -7.142  -0.440  1.07707E-01  1.90701E-01 -8.29934E-02
    8986.757     -7.014  -0.400  1.15559E-01  2.09445E-01 -9.38864E-02
    8986.872     -6.898  -0.360  1.23588E-01  2.28769E-01 -1.05180E-01
    8986.976     -6.795  -0.320  1.31559E-01  2.48039E-01 -1.16480E-01
    8987.068     -6.703  -0.280  1.39204E-01  2.66554E-01 -1.27350E-01
    8987.147     -6.624  -0.240  1.46264E-01  2.83641E-01 -1.37377E-01
    8987.214     -6.557  -0.200  1.52516E-01  2.98736E-01 -1.46220E-01
    8987.269     -6.502  -0.160  1.57790E-01  3.11429E-01 -1.53638E-01
    8987.311     -6.459  -0.120  1.61975E-01  3.21458E-01 -1.59483E-01
    8987.342     -6.429  -0.080  1.65004E-01  3.28680E-01 -1.63676E-01
    8987.366     -6.404   0.000  1.67454E-01  3.34480E-01 -1.67026E-01
    8987.421     -6.350   0.120  1.72850E-01  3.47557E-01 -1.74707E-01
    8987.464     -6.307   0.160  1.77047E-01  3.57716E-01 -1.80669E-01
    8987.519     -6.252   0.200  1.82429E-01  3.70683E-01 -1.88254E-01
    8987.586     -6.185   0.240  1.88893E-01  3.86251E-01 -1.97358E-01
    8987.665     -6.106   0.280  1.96316E-01  4.04099E-01 -2.07783E-01
    8987.756     -6.014   0.320  2.04526E-01  4.23756E-01 -2.19230E-01
    8987.860     -5.911   0.360  2.13314E-01  4.44640E-01 -2.31326E-01
    8987.976     -5.795   0.400  2.22481E-01  4.66134E-01 -2.43653E-01
    8988.104     -5.667   0.440  2.31936E-01  4.87631E-01 -2.55695E-01
    8988.244     -5.527   0.480  2.41811E-01  5.08716E-01 -2.66906E-01
    8988.396     -5.374   0.520  2.52422E-01  5.29094E-01 -2.76671E-01
    8988.561     -5.210   0.560  2.64165E-01  5.48613E-01 -2.84449E-01
    8988.738     -5.033   0.600  2.77277E-01  5.67264E-01 -2.89987E-01
    8988.927     -4.844   0.640  2.91526E-01  5.85108E-01 -2.93582E-01
    8989.128     -4.643   0.680  3.06047E-01  6.02187E-01 -2.96141E-01
    8989.341     -4.429   0.720  3.19866E-01  6.18661E-01 -2.98795E-01
    8989.567     -4.204   0.760  3.32243E-01  6.34603E-01 -3.02359E-01
    8989.805     -3.966   0.800  3.43070E-01  6.50080E-01 -3.07010E-01
    8990.055     -3.716   0.840  3.53213E-01  6.65208E-01 -3.11995E-01
    8990.317     -3.454   0.880  3.64737E-01  6.80043E-01 -3.15305E-01
    8990.591     -3.180   0.920  3.80404E-01  6.94587E-01 -3.14183E-01
    8990.878     -2.893   0.960  4.02479E-01  7.08915E-01 -3.06436E-01
    8991.176     -2.594   1.000  4.31846E-01  7.23044E-01 -2.91198E-01
    8991.487     -2.284   1.040  4.67953E-01  7.36965E-01 -2.69013E-01
    8991.810     -1.961   1.080  5.09350E-01  7.50682E-01 -2.41332E-01
    8992.146     -1.625   1.120  5.54314E-01  7.64209E-01 -2.09895E-01
    8992.493     -1.278   1.160  6.01712E-01  7.77515E-01 -1.75803E-01
    8992.853     -0.918   1.200  6.53575E-01  7.90605E-01 -1.37031E-01
    8993.224     -0.546   1.240  7.18207E-01  8.03443E-01 -8.52369E-02
    8993.609     -0.162   1.280  8.07223E-01  8.16028E-01 -8.80565E-03
    8994.005      0.234   1.320  9.20534E-01  8.28317E-01  9.22167E-02
    8994.413      0.642   1.360  1.03453E+00  8.40306E-01  1.94224E-01
    8994.834      1.063   1.400  1.12275E+00  8.51968E-01  2.70782E-01
    8995.267      1.496   1.440  1.18838E+00  8.63281E-01  3.25097E-01
    8995.712      1.941   1.480  1.25590E+00  8.74238E-01  3.81665E-01
    8996.169      2.398   1.520  1.33861E+00  8.84812E-01  4.53794E-01
    8996.638      2.868   1.560  1.42435E+00  8.94980E-01  5.29374E-01
    8997.120      3.349   1.600  1.48216E+00  9.04735E-01  5.77420E-01
    8997.614      3.843   1.640  1.49175E+00  9.14054E-01  5.77699E-01
    8998.120      4.349   1.680  1.46925E+00  9.22934E-01  5.46313E-01
    8998.638      4.867   1.720  1.44260E+00  9.31392E-01  5.11210E-01
    8999.168      5.397   1.760  1.41965E+00  9.39368E-01  4.80278E-01
    8999.711      5.940   1.800  1.38917E+00  9.46901E-01  4.42270E-01
    9000.265      6.495   1.840  1.33559E+00  9.53993E-01  3.81597E-01
    9000.832      7.062   1.880  1.26124E+00  9.60624E-01  3.00612E-01
    9001.411      7.641   1.920  1.18691E+00  9.66795E-01  2.20115E-01
    9002.003      8.232   1.960  1.13135E+00  9.72514E-01  1.58840E-01
    9002.606      8.835   2.000  1.10242E+00  9.77801E-01  1.24615E-01
    9003.222      9.451   2.040  1.09583E+00  9.82664E-01  1.13167E-01
    9003.850     10.079   2.080  1.09903E+00  9.87108E-01  1.11925E-01
    9004.490     10.719   2.120  1.10262E+00  9.91140E-01  1.11476E-01
    9005.142     11.371   2.160  1.10675E+00  9.94788E-01  1.11958E-01
    9005.807     12.036   2.200  1.11240E+00  9.98039E-01  1.14360E-01
    9006.483     12.713   2.240  1.11219E+00  1.00094E+00  1.11245E-01
    9007.172     13.401   2.280  1.09946E+00  1.00350E+00  9.59610E-02
    9007.873     14.102   2.320  1.07684E+00  1.00571E+00  7.11265E-02
    9008.586     14.816   2.360  1.04989E+00  1.00762E+00  4.22789E-02
    9009.312     15.541   2.400  1.02174E+00  1.00923E+00  1.25132E-02
    9010.049     16.279   2.440  9.90042E-01  1.01056E+00 -2.05131E-02
    9010.799     17.028   2.480  9.54708E-01  1.01163E+00 -5.69202E-02
    9011.561     17.790   2.520  9.24908E-01  1.01245E+00 -8.75464E-02
    9012.335     18.565   2.560  9.00567E-01  1.01304E+00 -1.12477E-01
    9013.122     19.351   2.600  8.69597E-01  1.01345E+00 -1.43848E-01
    9013.920     20.150   2.640  8.31350E-01  1.01365E+00 -1.82298E-01
    9014.731     20.960   2.680  7.96418E-01  1.01368E+00 -2.17262E-01
    9015.554     21.783   2.720  7.78085E-01  1.01355E+00 -2.35464E-01
    9016.389     22.618   2.760  7.73539E-01  1.01326E+00 -2.39724E-01
    9017.237     23.466   2.800  7.76934E-01  1.01287E+00 -2.35938E-01
    9018.096     24.325   2.840  7.84902E-01  1.01236E+00 -2.27460E-01
    9018.968     25.197   2.880  7.95935E-01  1.01174E+00 -2.15805E-01
    9019.852     26.081   2.920  8.09688E-01  1.01105E+00 -2.01365E-01
    9020.748     26.977   2.960  8.26022E-01  1.01027E+00 -1.84245E-01
    9021.656     27.885   3.000  8.43910E-01  1.00945E+00 -1.65540E-01
    9022.577     28.806   3.040  8.63084E-01  1.00857E+00 -1.45482E-01
    9023.509     29.739   3.080  8.83824E-01  1.00764E+00 -1.23818E-01
    9024.454     30.683   3.120  9.06029E-01  1.00670E+00 -1.00675E-01
    9025.411     31.641   3.160  9.28977E-01  1.00576E+00 -7.67783E-02
    9026.381     32.610   3.200  9.51295E-01  1.00478E+00 -5.34839E-02
    9027.362     33.591   3.240  9.71624E-01  1.00380E+00 -3.21771E-02
    9028.356     34.585   3.280  9.89859E-01  1.00283E+00 -1.29664E-02
    9029.361     35.591   3.320  1.00719E+00  1.00188E+00  5.31790E-03
    9030.379     36.609   3.360  1.02476E+00  1.00096E+00  2.37990E-02
    9031.410     37.639   3.400  1.04301E+00  1.00005E+00  4.29605E-02
    9032.452     38.681   3.440  1.06167E+00  9.99176E-01  6.24915E-02
    9033.507     39.736   3.480  1.07954E+00  9.98319E-01  8.12191E-02
    9034.573     40.803   3.520  1.09465E+00  9.97521E-01  9.71319E-02
    9035.652     41.882   3.560  1.10496E+00  9.96766E-01  1.08194E-01
    9036.744     42.973   3.600  1.10901E+00  9.96055E-01  1.12960E-01
    9037.847     44.076   3.640  1.10655E+00  9.95410E-01  1.11137E-01
    9038.963     45.192   3.680  1.09873E+00  9.94810E-01  1.03924E-01
    9040.090     46.320   3.720  1.08791E+00  9.94255E-01  9.36579E-02
    9041.230     47.460   3.760  1.07659E+00  9.93747E-01  8.28448E-02
    9042.382     48.612   3.800  1.06672E+00  9.93329E-01  7.33865E-02
    9043.547     49.776   3.840  1.05926E+00  9.92939E-01  6.63183E-02
    9044.723     50.953   3.880  1.05441E+00  9.92616E-01  6.17903E-02
    9045.912     52.141   3.920  1.05175E+00  9.92341E-01  5.94069E-02
    9047.113     53.342   3.960  1.05064E+00  9.92136E-01  5.84998E-02
    9048.326     54.555   4.000  1.05039E+00  9.91978E-01  5.84096E-02
    9049.551     55.781   4.040  1.05037E+00  9.91889E-01  5.84785E-02
    9050.789     57.018   4.080  1.04996E+00  9.91846E-01  5.81177E-02
    9052.038     58.268   4.120  1.04859E+00  9.91850E-01  5.67402E-02
    9053.300     59.530   4.160  1.04556E+00  9.91920E-01  5.36372E-02
    9054.574     60.804   4.200  1.04018E+00  9.92033E-01  4.81423E-02
    9055.861     62.090   4.240  1.03225E+00  9.92188E-01  4.00637E-02
    9057.159     63.388   4.280  1.02223E+00  9.92385E-01  2.98447E-02
    9058.470     64.699   4.320  1.01096E+00  9.92621E-01  1.83378E-02
    9059.793     66.022   4.360  9.99446E-01  9.92897E-01  6.54832E-03
    9061.128     67.357   4.400  9.88540E-01  9.93211E-01 -4.67062E-03
    9062.475     68.704   4.440  9.78681E-01  9.93560E-01 -1.48787E-02
    9063.834     70.063   4.480  9.69847E-01  9.93922E-01 -2.40753E-02
    9065.206     71.435   4.520  9.61806E-01  9.94340E-01 -3.25338E-02
    9066.590     72.819   4.560  9.54055E-01  9.94745E-01 -4.06902E-02
    9067.986     74.215   4.600  9.46492E-01  9.95202E-01 -4.87104E-02
    9069.394     75.623   4.640  9.39276E-01  9.95644E-01 -5.63679E-02
    9070.814     77.043   4.680  9.32923E-01  9.96113E-01 -6.31904E-02
    9072.247     78.476   4.720  9.27939E-01  9.96608E-01 -6.86689E-02
    9073.691     79.921   4.760  9.24771E-01  9.97081E-01 -7.23102E-02
    9075.148     81.378   4.800  9.23952E-01  9.97552E-01 -7.36004E-02
    9076.617     82.847   4.840  9.26160E-01  9.98021E-01 -7.18615E-02
    9078.099     84.328   4.880  9.32014E-01  9.98487E-01 -6.64730E-02
    9079.592     85.822   4.920  9.41647E-01  9.98951E-01 -5.73039E-02
    9081.098     87.327   4.960  9.54407E-01  9.99408E-01 -4.50005E-02
    9082.616     88.845   5.000  9.68794E-01  9.99835E-01 -3.10416E-02
    9084.146     90.375   5.040  9.82785E-01  1.00025E+00 -1.74681E-02
    9085.688     91.918   5.080  9.94426E-01  1.00064E+00 -6.21208E-03
    9087.243     93.472   5.120  1.00253E+00  1.00101E+00  1.51597E-03
    9088.809     95.039   5.160  1.00692E+00  1.00135E+00  5.57112E-03
    9090.388     96.617   5.200  1.00822E+00  1.00165E+00  6.57135E-03
    9091.979     98.209   5.240  1.00726E+00  1.00191E+00  5.34563E-03
    9093.583     99.812   5.280  1.00463E+00  1.00216E+00  2.47433E-03
    9095.198    101.427   5.320  1.00076E+00  1.00237E+00 -1.61004E-03
    9096.826    103.055   5.360  9.96175E-01  1.00252E+00 -6.34080E-03
    9098.465    104.695   5.400  9.91723E-01  1.00264E+00 -1.09211E-02
    9100.117    106.347   5.440  9.88257E-01  1.00273E+00 -1.44768E-02
    9101.782    108.011   5.480  9.86541E-01  1.00278E+00 -1.62400E-02
    9103.458    109.687   5.520  9.87099E-01  1.00279E+00 -1.56870E-02
    9105.147    111.376   5.560  9.90103E-01  1.00273E+00 -1.26249E-02
    9106.847    113.077   5.600  9.95430E-01  1.00265E+00 -7.22049E-03
    9108.560    114.790   5.640  1.00253E+00  1.00253E+00 -3.13956E-06
    9110.285    116.515   5.680  1.01053E+00  1.00235E+00  8.18113E-03
    9112.023    118.252   5.720  1.01850E+00  1.00215E+00  1.63562E-02
    9113.772    120.002   5.760  1.02565E+00  1.00189E+00  2.37624E-02
    9115.534    121.763   5.800  1.03183E+00  1.00161E+00  3.02246E-02
    9117.308    123.537   5.840  1.03739E+00  1.00129E+00  3.61030E-02
    9119.094    125.323   5.880  1.04277E+00  1.00091E+00  4.18537E-02
    9120.892    127.122   5.920  1.04801E+00  1.00053E+00  4.74838E-02
    9122.703    128.932   5.960  1.05235E+00  1.00011E+00  5.22413E-02
    9124.526    130.755   6.000  1.05439E+00  9.99630E-01  5.47574E-02
