# # comment:                                                     FEFF 9.9.1  
# # Source:
# # Structure
# # Reduced
# # space
# # abc:
# # angles:
# # sites:
# # POT  SCF 100  7.0000   0, screened core-hole, AFOLP (folp(0)= 1.150)
# # Abs   Z=29 Rmt= 1.204 Rnm= 1.310 K  shell
# # Pot 1 Z=39 Rmt= 1.581 Rnm= 1.660
# # Pot 2 Z=29 Rmt= 1.204 Rnm= 1.310
# # Pot 3 Z=17 Rmt= 1.680 Rnm= 1.680
# # Pot 4 Z= 8 Rmt= 1.028 Rnm= 1.106
# # Gam_ch=1.729E+00 H-L exch Vi= 0.000E+00 Vr= 0.000E+00
# # Mu=-7.345E+00eV kf=2.146E+00 Vint=-1.504E+01eV Rs_int= 1.690
# FMS rfms= 9.0000
# # PATH  Rmax=-1.000,  Keep_limit= 0.00, Heap_limit 0.00  Pwcrit= 2.50%
#  S02=0.950  Temp=   0.00  Debye_temp=   0.00  Global_sig2= 0.00000
#  Energy zero shift, vr, vi    0.00000E+00   0.00000E+00
#  Curved wave amplitude ratio filter   4.000%
#     file         sig2 tot  cw amp ratio   deg  nlegs   reff  inp sig2
#     0/   0 paths used
#  xsedge+ 50, used to normalize mu           2.4397E-04
#  -----------------------------------------------------------------------
#  omega    e    k    mu    mu0     chi     @#
    8983.671    -11.155  -1.000  3.77034E-02  5.60852E-02 -1.83818E-02
    8983.969    -10.856  -0.960  3.96088E-02  6.01656E-02 -2.05568E-02
    8984.256    -10.569  -0.920  4.16467E-02  6.46970E-02 -2.30503E-02
    8984.530    -10.295  -0.880  4.38297E-02  6.97453E-02 -2.59156E-02
    8984.792    -10.033  -0.840  4.61715E-02  7.53868E-02 -2.92153E-02
    8985.042     -9.783  -0.800  4.86877E-02  8.17104E-02 -3.30226E-02
    8985.280     -9.545  -0.760  5.13956E-02  8.88174E-02 -3.74218E-02
    8985.505     -9.320  -0.720  5.43137E-02  9.68226E-02 -4.25089E-02
    8985.719     -9.106  -0.680  5.74618E-02  1.05852E-01 -4.83901E-02
    8985.920     -8.905  -0.640  6.08599E-02  1.16038E-01 -5.51785E-02
    8986.109     -8.716  -0.600  6.45255E-02  1.27512E-01 -6.29868E-02
    8986.286     -8.539  -0.560  6.84710E-02  1.40385E-01 -7.19136E-02
    8986.450     -8.375  -0.520  7.26975E-02  1.54721E-01 -8.20234E-02
    8986.603     -8.222  -0.480  7.71874E-02  1.70505E-01 -9.33180E-02
    8986.743     -8.082  -0.440  8.18965E-02  1.87600E-01 -1.05703E-01
    8986.871     -7.954  -0.400  8.67465E-02  2.05709E-01 -1.18962E-01
    8986.987     -7.838  -0.360  9.16242E-02  2.24368E-01 -1.32744E-01
    8987.090     -7.735  -0.320  9.63895E-02  2.42974E-01 -1.46584E-01
    8987.182     -7.643  -0.280  1.00893E-01  2.60856E-01 -1.59963E-01
    8987.261     -7.564  -0.240  1.04994E-01  2.77368E-01 -1.72374E-01
    8987.328     -7.497  -0.200  1.08584E-01  2.91969E-01 -1.83385E-01
    8987.383     -7.442  -0.160  1.11584E-01  3.04257E-01 -1.92674E-01
    8987.426     -7.399  -0.120  1.13947E-01  3.13977E-01 -2.00030E-01
    8987.456     -7.369  -0.080  1.15649E-01  3.20983E-01 -2.05334E-01
    8987.481     -7.345   0.000  1.17027E-01  3.26614E-01 -2.09587E-01
    8987.535     -7.290   0.120  1.20181E-01  3.39301E-01 -2.19121E-01
    8987.578     -7.247   0.160  1.22576E-01  3.49195E-01 -2.26620E-01
    8987.633     -7.192   0.200  1.25591E-01  3.61820E-01 -2.36230E-01
    8987.700     -7.125   0.240  1.29187E-01  3.77038E-01 -2.47851E-01
    8987.779     -7.046   0.280  1.33296E-01  3.94543E-01 -2.61247E-01
    8987.871     -6.954   0.320  1.37859E-01  4.13912E-01 -2.76053E-01
    8987.974     -6.851   0.360  1.42867E-01  4.34619E-01 -2.91752E-01
    8988.090     -6.735   0.400  1.48365E-01  4.56078E-01 -3.07713E-01
    8988.218     -6.607   0.440  1.54595E-01  4.77775E-01 -3.23180E-01
    8988.358     -6.467   0.480  1.61933E-01  4.99289E-01 -3.37356E-01
    8988.511     -6.314   0.520  1.70985E-01  5.20343E-01 -3.49359E-01
    8988.675     -6.150   0.560  1.82518E-01  5.40818E-01 -3.58300E-01
    8988.852     -5.973   0.600  1.97432E-01  5.60678E-01 -3.63245E-01
    8989.041     -5.784   0.640  2.16593E-01  5.79933E-01 -3.63340E-01
    8989.242     -5.583   0.680  2.40804E-01  5.98692E-01 -3.57888E-01
    8989.456     -5.370   0.720  2.70202E-01  6.16994E-01 -3.46792E-01
    8989.681     -5.144   0.760  3.04006E-01  6.34917E-01 -3.30910E-01
    8989.919     -4.906   0.800  3.41054E-01  6.52547E-01 -3.11493E-01
    8990.169     -4.656   0.840  3.81453E-01  6.69939E-01 -2.88487E-01
    8990.431     -4.394   0.880  4.26859E-01  6.87072E-01 -2.60213E-01
    8990.705     -4.120   0.920  4.78900E-01  7.04034E-01 -2.25134E-01
    8990.992     -3.833   0.960  5.37946E-01  7.20775E-01 -1.82830E-01
    8991.291     -3.535   1.000  6.01552E-01  7.37301E-01 -1.35750E-01
    8991.601     -3.224   1.040  6.59851E-01  7.53606E-01 -9.37554E-02
    8991.925     -2.901   1.080  6.91822E-01  7.69678E-01 -7.78564E-02
    8992.260     -2.565   1.120  6.73445E-01  7.85477E-01 -1.12032E-01
    8992.607     -2.218   1.160  6.10313E-01  8.00961E-01 -1.90648E-01
    8992.967     -1.858   1.200  5.43569E-01  8.16102E-01 -2.72534E-01
    8993.339     -1.486   1.240  5.04886E-01  8.30872E-01 -3.25986E-01
    8993.723     -1.102   1.280  5.00566E-01  8.45242E-01 -3.44675E-01
    8994.119     -0.706   1.320  5.26142E-01  8.59160E-01 -3.33018E-01
    8994.527     -0.298   1.360  5.69039E-01  8.72596E-01 -3.03557E-01
    8994.948      0.123   1.400  6.03913E-01  8.85518E-01 -2.81605E-01
    8995.381      0.556   1.440  6.09715E-01  8.97916E-01 -2.88200E-01
    8995.826      1.001   1.480  5.93104E-01  9.09762E-01 -3.16658E-01
    8996.283      1.458   1.520  5.77899E-01  9.21008E-01 -3.43109E-01
    8996.753      1.927   1.560  5.81361E-01  9.31669E-01 -3.50309E-01
    8997.234      2.409   1.600  6.12467E-01  9.41722E-01 -3.29255E-01
    8997.728      2.903   1.640  6.74110E-01  9.51143E-01 -2.77034E-01
    8998.234      3.409   1.680  7.65270E-01  9.59974E-01 -1.94703E-01
    8998.752      3.927   1.720  8.82294E-01  9.68152E-01 -8.58587E-02
    8999.282      4.457   1.760  1.01770E+00  9.75746E-01  4.19497E-02
    8999.825      5.000   1.800  1.16150E+00  9.82697E-01  1.78808E-01
    9000.380      5.554   1.840  1.30748E+00  9.89073E-01  3.18403E-01
    9000.947      6.121   1.880  1.43194E+00  9.94862E-01  4.37077E-01
    9001.526      6.701   1.920  1.51536E+00  1.00007E+00  5.15286E-01
    9002.117      7.292   1.960  1.56805E+00  1.00476E+00  5.63296E-01
    9002.720      7.895   2.000  1.59035E+00  1.00888E+00  5.81467E-01
    9003.336      8.511   2.040  1.56204E+00  1.01252E+00  5.49517E-01
    9003.964      9.139   2.080  1.46227E+00  1.01567E+00  4.46602E-01
    9004.604      9.779   2.120  1.33665E+00  1.01836E+00  3.18288E-01
    9005.256     10.431   2.160  1.23808E+00  1.02062E+00  2.17461E-01
    9005.921     11.096   2.200  1.17350E+00  1.02247E+00  1.51028E-01
    9006.598     11.772   2.240  1.13835E+00  1.02395E+00  1.14406E-01
    9007.286     12.461   2.280  1.13030E+00  1.02508E+00  1.05222E-01
    9007.987     13.162   2.320  1.13686E+00  1.02585E+00  1.11006E-01
    9008.701     13.875   2.360  1.14444E+00  1.02635E+00  1.18088E-01
    9009.426     14.601   2.400  1.15002E+00  1.02657E+00  1.23452E-01
    9010.164     15.339   2.440  1.15689E+00  1.02651E+00  1.30375E-01
    9010.913     16.088   2.480  1.16619E+00  1.02626E+00  1.39929E-01
    9011.675     16.850   2.520  1.17932E+00  1.02577E+00  1.53547E-01
    9012.450     17.625   2.560  1.18727E+00  1.02514E+00  1.62130E-01
    9013.236     18.411   2.600  1.17413E+00  1.02432E+00  1.49812E-01
    9014.035     19.209   2.640  1.14096E+00  1.02336E+00  1.17597E-01
    9014.845     20.020   2.680  1.09598E+00  1.02228E+00  7.36994E-02
    9015.668     20.843   2.720  1.04968E+00  1.02111E+00  2.85678E-02
    9016.503     21.678   2.760  1.01031E+00  1.01985E+00 -9.54038E-03
    9017.351     22.526   2.800  9.80274E-01  1.01852E+00 -3.82438E-02
    9018.210     23.385   2.840  9.58469E-01  1.01714E+00 -5.86670E-02
    9019.082     24.257   2.880  9.42371E-01  1.01571E+00 -7.33423E-02
    9019.966     25.141   2.920  9.29686E-01  1.01428E+00 -8.45905E-02
    9020.862     26.037   2.960  9.19092E-01  1.01281E+00 -9.37208E-02
    9021.770     26.945   3.000  9.09890E-01  1.01137E+00 -1.01479E-01
    9022.691     27.866   3.040  9.01715E-01  1.00993E+00 -1.08214E-01
    9023.624     28.798   3.080  8.94588E-01  1.00850E+00 -1.13909E-01
    9024.568     29.743   3.120  8.88556E-01  1.00710E+00 -1.18542E-01
    9025.526     30.700   3.160  8.83083E-01  1.00574E+00 -1.22654E-01
    9026.495     31.670   3.200  8.77595E-01  1.00442E+00 -1.26823E-01
    9027.476     32.651   3.240  8.72187E-01  1.00317E+00 -1.30979E-01
    9028.470     33.645   3.280  8.67436E-01  1.00196E+00 -1.34525E-01
    9029.476     34.651   3.320  8.64245E-01  1.00081E+00 -1.36561E-01
    9030.494     35.669   3.360  8.63585E-01  9.99723E-01 -1.36138E-01
    9031.524     36.699   3.400  8.66202E-01  9.98716E-01 -1.32514E-01
    9032.566     37.741   3.440  8.72234E-01  9.97787E-01 -1.25553E-01
    9033.621     38.796   3.480  8.81729E-01  9.96916E-01 -1.15187E-01
    9034.688     39.863   3.520  8.94547E-01  9.96145E-01 -1.01598E-01
    9035.767     40.942   3.560  9.09957E-01  9.95454E-01 -8.54964E-02
    9036.858     42.033   3.600  9.26590E-01  9.94823E-01 -6.82328E-02
    9037.961     43.136   3.640  9.42599E-01  9.94294E-01 -5.16945E-02
    9039.077     44.252   3.680  9.56152E-01  9.93825E-01 -3.76730E-02
    9040.205     45.379   3.720  9.66446E-01  9.93459E-01 -2.70130E-02
    9041.345     46.519   3.760  9.73976E-01  9.93175E-01 -1.91997E-02
    9042.497     47.672   3.800  9.79738E-01  9.92971E-01 -1.32334E-02
    9043.661     48.836   3.840  9.84374E-01  9.92826E-01 -8.45187E-03
    9044.838     50.012   3.880  9.88214E-01  9.92782E-01 -4.56774E-03
    9046.026     51.201   3.920  9.91507E-01  9.92817E-01 -1.30981E-03
    9047.227     52.402   3.960  9.94680E-01  9.92906E-01  1.77332E-03
    9048.440     53.615   4.000  9.98306E-01  9.93072E-01  5.23336E-03
    9049.666     54.840   4.040  1.00282E+00  9.93313E-01  9.50904E-03
    9050.903     56.078   4.080  1.00850E+00  9.93605E-01  1.48902E-02
    9052.153     57.328   4.120  1.01558E+00  9.93972E-01  2.16073E-02
    9053.415     58.589   4.160  1.02434E+00  9.94409E-01  2.99284E-02
    9054.689     59.864   4.200  1.03457E+00  9.94893E-01  3.96758E-02
    9055.975     61.150   4.240  1.04543E+00  9.95421E-01  5.00118E-02
    9057.273     62.448   4.280  1.05575E+00  9.95990E-01  5.97564E-02
    9058.584     63.759   4.320  1.06460E+00  9.96604E-01  6.79990E-02
    9059.907     65.082   4.360  1.07165E+00  9.97278E-01  7.43725E-02
    9061.242     66.417   4.400  1.07697E+00  9.97967E-01  7.90000E-02
    9062.589     67.764   4.440  1.08103E+00  9.98690E-01  8.23412E-02
    9063.948     69.123   4.480  1.08397E+00  9.99425E-01  8.45472E-02
    9065.320     70.495   4.520  1.08580E+00  1.00019E+00  8.56075E-02
    9066.704     71.879   4.560  1.08671E+00  1.00099E+00  8.57214E-02
    9068.100     73.275   4.600  1.08712E+00  1.00179E+00  8.53248E-02
    9069.508     74.683   4.640  1.08743E+00  1.00260E+00  8.48321E-02
    9070.928     76.103   4.680  1.08763E+00  1.00340E+00  8.42280E-02
    9072.361     77.536   4.720  1.08696E+00  1.00420E+00  8.27557E-02
    9073.806     78.980   4.760  1.08401E+00  1.00500E+00  7.90085E-02
    9075.263     80.437   4.800  1.07734E+00  1.00577E+00  7.15703E-02
    9076.732     81.907   4.840  1.06638E+00  1.00655E+00  5.98299E-02
    9078.213     83.388   4.880  1.05170E+00  1.00729E+00  4.44174E-02
    9079.707     84.881   4.920  1.03504E+00  1.00803E+00  2.70068E-02
    9081.212     86.387   4.960  1.01839E+00  1.00871E+00  9.67985E-03
    9082.730     87.905   5.000  1.00355E+00  1.00938E+00 -5.83832E-03
    9084.260     89.435   5.040  9.91283E-01  1.01002E+00 -1.87341E-02
    9085.803     90.977   5.080  9.81350E-01  1.01061E+00 -2.92622E-02
    9087.357     92.532   5.120  9.72907E-01  1.01119E+00 -3.82817E-02
    9088.924     94.099   5.160  9.65187E-01  1.01170E+00 -4.65133E-02
    9090.503     95.677   5.200  9.58290E-01  1.01217E+00 -5.38753E-02
    9092.094     97.268   5.240  9.53072E-01  1.01259E+00 -5.95144E-02
    9093.697     98.872   5.280  9.50636E-01  1.01294E+00 -6.23047E-02
    9095.312    100.487   5.320  9.51780E-01  1.01327E+00 -6.14905E-02
    9096.940    102.115   5.360  9.56370E-01  1.01353E+00 -5.71640E-02
    9098.580    103.755   5.400  9.63328E-01  1.01375E+00 -5.04213E-02
    9100.232    105.407   5.440  9.70828E-01  1.01392E+00 -4.30897E-02
    9101.896    107.071   5.480  9.76922E-01  1.01402E+00 -3.70936E-02
    9103.572    108.747   5.520  9.80367E-01  1.01406E+00 -3.36973E-02
    9105.261    110.436   5.560  9.80931E-01  1.01404E+00 -3.31112E-02
    9106.962    112.137   5.600  9.79321E-01  1.01397E+00 -3.46514E-02
    9108.675    113.849   5.640  9.76639E-01  1.01386E+00 -3.72197E-02
    9110.400    115.575   5.680  9.74081E-01  1.01370E+00 -3.96182E-02
    9112.137    117.312   5.720  9.72527E-01  1.01347E+00 -4.09445E-02
    9113.887    119.062   5.760  9.72370E-01  1.01320E+00 -4.08284E-02
    9115.648    120.823   5.800  9.73688E-01  1.01288E+00 -3.91952E-02
    9117.422    122.597   5.840  9.76906E-01  1.01253E+00 -3.56189E-02
    9119.208    124.383   5.880  9.82862E-01  1.01210E+00 -2.92419E-02
    9121.007    126.182   5.920  9.92140E-01  1.01167E+00 -1.95305E-02
    9122.817    127.992   5.960  1.00411E+00  1.01117E+00 -7.05730E-03
    9124.640    129.815   6.000  1.01713E+00  1.01060E+00  6.52775E-03
