# # comment:                                                     FEFF 9.9.1  
# # Source:
# # Structure
# # Reduced
# # space
# # abc:
# # angles:
# # sites:
# # POT  SCF 100  7.0000   0, screened core-hole, AFOLP (folp(0)= 1.150)
# # Abs   Z=29 Rmt= 1.354 Rnm= 1.414 K  shell
# # Pot 1 Z= 3 Rmt= 1.272 Rnm= 1.333
# # Pot 2 Z=29 Rmt= 1.358 Rnm= 1.418
# # Pot 3 Z=15 Rmt= 0.947 Rnm= 1.157
# # Pot 4 Z= 8 Rmt= 0.937 Rnm= 1.035
# # Gam_ch=1.729E+00 H-L exch Vi= 0.000E+00 Vr= 0.000E+00
# # Mu=-5.860E+00eV kf=2.385E+00 Vint=-1.696E+01eV Rs_int= 1.520
# FMS rfms= 9.0000
# # PATH  Rmax=-1.000,  Keep_limit= 0.00, Heap_limit 0.00  Pwcrit= 2.50%
#  S02=0.950  Temp=   0.00  Debye_temp=   0.00  Global_sig2= 0.00000
#  Energy zero shift, vr, vi    0.00000E+00   0.00000E+00
#  Curved wave amplitude ratio filter   4.000%
#     file         sig2 tot  cw amp ratio   deg  nlegs   reff  inp sig2
#     0/   0 paths used
#  xsedge+ 50, used to normalize mu           2.4668E-04
#  -----------------------------------------------------------------------
#  omega    e    k    mu    mu0     chi     @#
    8983.475     -9.670  -1.000  5.14717E-02  5.56145E-02 -4.14281E-03
    8983.773     -9.371  -0.960  5.48668E-02  5.97099E-02 -4.84310E-03
    8984.060     -9.085  -0.920  5.86006E-02  6.42670E-02 -5.66649E-03
    8984.334     -8.810  -0.880  6.27193E-02  6.93546E-02 -6.63535E-03
    8984.596     -8.548  -0.840  6.72766E-02  7.50527E-02 -7.77611E-03
    8984.846     -8.298  -0.800  7.23344E-02  8.14543E-02 -9.11988E-03
    8985.084     -8.060  -0.760  7.79630E-02  8.86659E-02 -1.07029E-02
    8985.310     -7.835  -0.720  8.42417E-02  9.68085E-02 -1.25668E-02
    8985.523     -7.622  -0.680  9.12569E-02  1.06015E-01 -1.47581E-02
    8985.724     -7.420  -0.640  9.90994E-02  1.16426E-01 -1.73268E-02
    8985.913     -7.231  -0.600  1.07857E-01  1.28180E-01 -2.03231E-02
    8986.090     -7.055  -0.560  1.17605E-01  1.41396E-01 -2.37914E-02
    8986.254     -6.890  -0.520  1.28384E-01  1.56145E-01 -2.77606E-02
    8986.407     -6.738  -0.480  1.40180E-01  1.72411E-01 -3.22307E-02
    8986.547     -6.597  -0.440  1.52895E-01  1.90052E-01 -3.71576E-02
    8986.675     -6.469  -0.400  1.66319E-01  2.08759E-01 -4.24401E-02
    8986.791     -6.354  -0.360  1.80127E-01  2.28044E-01 -4.79169E-02
    8986.894     -6.250  -0.320  1.93896E-01  2.47275E-01 -5.33797E-02
    8986.986     -6.159  -0.280  2.07149E-01  2.65751E-01 -5.86021E-02
    8987.065     -6.079  -0.240  2.19423E-01  2.82799E-01 -6.33754E-02
    8987.132     -6.012  -0.200  2.30318E-01  2.97855E-01 -6.75375E-02
    8987.187     -5.957  -0.160  2.39529E-01  3.10513E-01 -7.09839E-02
    8987.230     -5.915  -0.120  2.46848E-01  3.20512E-01 -7.36635E-02
    8987.260     -5.884  -0.080  2.52146E-01  3.27711E-01 -7.55645E-02
    8987.285     -5.860   0.000  2.56419E-01  3.33491E-01 -7.70719E-02
    8987.339     -5.805   0.120  2.65958E-01  3.46521E-01 -8.05628E-02
    8987.382     -5.762   0.160  2.73432E-01  3.56626E-01 -8.31940E-02
    8987.437     -5.707   0.200  2.83082E-01  3.69531E-01 -8.64492E-02
    8987.504     -5.640   0.240  2.94827E-01  3.85026E-01 -9.01985E-02
    8987.583     -5.561   0.280  3.08513E-01  4.02760E-01 -9.42462E-02
    8987.675     -5.470   0.320  3.23959E-01  4.22296E-01 -9.83368E-02
    8987.778     -5.366   0.360  3.40829E-01  4.43006E-01 -1.02177E-01
    8987.894     -5.250   0.400  3.58764E-01  4.64262E-01 -1.05498E-01
    8988.022     -5.122   0.440  3.77391E-01  4.85493E-01 -1.08102E-01
    8988.162     -4.982   0.480  3.96284E-01  5.06262E-01 -1.09978E-01
    8988.315     -4.830   0.520  4.14936E-01  5.26269E-01 -1.11333E-01
    8988.479     -4.665   0.560  4.32734E-01  5.45366E-01 -1.12632E-01
    8988.656     -4.488   0.600  4.49137E-01  5.63584E-01 -1.14447E-01
    8988.845     -4.299   0.640  4.63741E-01  5.80929E-01 -1.17188E-01
    8989.046     -4.098   0.680  4.76628E-01  5.97508E-01 -1.20880E-01
    8989.260     -3.885   0.720  4.88443E-01  6.13462E-01 -1.25020E-01
    8989.485     -3.659   0.760  5.00296E-01  6.28854E-01 -1.28558E-01
    8989.723     -3.421   0.800  5.14141E-01  6.43814E-01 -1.29673E-01
    8989.973     -3.172   0.840  5.32376E-01  6.58423E-01 -1.26047E-01
    8990.235     -2.909   0.880  5.56444E-01  6.72742E-01 -1.16299E-01
    8990.509     -2.635   0.920  5.84918E-01  6.86844E-01 -1.01926E-01
    8990.796     -2.349   0.960  6.12882E-01  7.00741E-01 -8.78589E-02
    8991.095     -2.050   1.000  6.34609E-01  7.14478E-01 -7.98698E-02
    8991.406     -1.739   1.040  6.48527E-01  7.28093E-01 -7.95658E-02
    8991.729     -1.416   1.080  6.59601E-01  7.41549E-01 -8.19480E-02
    8992.064     -1.081   1.120  6.75461E-01  7.54865E-01 -7.94041E-02
    8992.411     -0.733   1.160  7.00974E-01  7.68056E-01 -6.70819E-02
    8992.771     -0.373   1.200  7.36923E-01  7.81108E-01 -4.41850E-02
    8993.143     -0.002   1.240  7.81574E-01  7.93988E-01 -1.24137E-02
    8993.527      0.382   1.280  8.32833E-01  8.06695E-01  2.61376E-02
    8993.923      0.779   1.320  8.88408E-01  8.19207E-01  6.92005E-02
    8994.332      1.187   1.360  9.44472E-01  8.31481E-01  1.12991E-01
    8994.752      1.608   1.400  9.97666E-01  8.43533E-01  1.54133E-01
    8995.185      2.041   1.440  1.04959E+00  8.55335E-01  1.94256E-01
    8995.630      2.486   1.480  1.10302E+00  8.66820E-01  2.36204E-01
    8996.087      2.943   1.520  1.15652E+00  8.78021E-01  2.78499E-01
    8996.557      3.412   1.560  1.20982E+00  8.88890E-01  3.20928E-01
    8997.038      3.894   1.600  1.26480E+00  8.99419E-01  3.65381E-01
    8997.532      4.387   1.640  1.32016E+00  9.09562E-01  4.10593E-01
    8998.038      4.893   1.680  1.36773E+00  9.19332E-01  4.48399E-01
    8998.556      5.412   1.720  1.38889E+00  9.28681E-01  4.60209E-01
    8999.086      5.942   1.760  1.36602E+00  9.37625E-01  4.28398E-01
    8999.629      6.485   1.800  1.29824E+00  9.46139E-01  3.52103E-01
    9000.184      7.039   1.840  1.20597E+00  9.54221E-01  2.51744E-01
    9000.751      7.606   1.880  1.11826E+00  9.61866E-01  1.56399E-01
    9001.330      8.185   1.920  1.05751E+00  9.69052E-01  8.84545E-02
    9001.921      8.777   1.960  1.03034E+00  9.75780E-01  5.45628E-02
    9002.525      9.380   2.000  1.02960E+00  9.82049E-01  4.75506E-02
    9003.140      9.996   2.040  1.04023E+00  9.87860E-01  5.23695E-02
    9003.768     10.624   2.080  1.04855E+00  9.93236E-01  5.53191E-02
    9004.408     11.264   2.120  1.04845E+00  9.98159E-01  5.02899E-02
    9005.060     11.916   2.160  1.04053E+00  1.00264E+00  3.78917E-02
    9005.725     12.580   2.200  1.02936E+00  1.00669E+00  2.26731E-02
    9006.402     13.257   2.240  1.02086E+00  1.01032E+00  1.05403E-02
    9007.090     13.946   2.280  1.01580E+00  1.01355E+00  2.25560E-03
    9007.791     14.647   2.320  1.01240E+00  1.01639E+00 -3.99238E-03
    9008.505     15.360   2.360  1.01110E+00  1.01883E+00 -7.73369E-03
    9009.230     16.086   2.400  1.01137E+00  1.02093E+00 -9.55821E-03
    9009.968     16.823   2.440  1.01076E+00  1.02267E+00 -1.19018E-02
    9010.718     17.573   2.480  1.00708E+00  1.02407E+00 -1.69919E-02
    9011.480     18.335   2.520  9.98812E-01  1.02515E+00 -2.63402E-02
    9012.254     19.109   2.560  9.84880E-01  1.02596E+00 -4.10819E-02
    9013.040     19.896   2.600  9.66018E-01  1.02647E+00 -6.04492E-02
    9013.839     20.694   2.640  9.44281E-01  1.02674E+00 -8.24586E-02
    9014.649     21.505   2.680  9.21504E-01  1.02675E+00 -1.05244E-01
    9015.472     22.328   2.720  9.00149E-01  1.02654E+00 -1.26392E-01
    9016.308     23.163   2.760  8.82771E-01  1.02615E+00 -1.43378E-01
    9017.155     24.010   2.800  8.77930E-01  1.02554E+00 -1.47609E-01
    9018.014     24.870   2.840  8.82989E-01  1.02478E+00 -1.41794E-01
    9018.886     25.742   2.880  8.93716E-01  1.02387E+00 -1.30154E-01
    9019.770     26.626   2.920  9.06618E-01  1.02283E+00 -1.16208E-01
    9020.666     27.522   2.960  9.19146E-01  1.02166E+00 -1.02514E-01
    9021.574     28.430   3.000  9.30644E-01  1.02038E+00 -8.97384E-02
    9022.495     29.351   3.040  9.41268E-01  1.01904E+00 -7.77725E-02
    9023.428     30.283   3.080  9.51288E-01  1.01762E+00 -6.63308E-02
    9024.373     31.228   3.120  9.60930E-01  1.01613E+00 -5.51981E-02
    9025.330     32.185   3.160  9.70066E-01  1.01461E+00 -4.45483E-02
    9026.299     33.154   3.200  9.78193E-01  1.01306E+00 -3.48690E-02
    9027.280     34.136   3.240  9.84852E-01  1.01148E+00 -2.66276E-02
    9028.274     35.129   3.280  9.89563E-01  1.00989E+00 -2.03278E-02
    9029.280     36.135   3.320  9.92152E-01  1.00832E+00 -1.61704E-02
    9030.298     37.153   3.360  9.93057E-01  1.00674E+00 -1.36821E-02
    9031.328     38.184   3.400  9.93267E-01  1.00519E+00 -1.19180E-02
    9032.370     39.226   3.440  9.93857E-01  1.00369E+00 -9.83109E-03
    9033.425     40.281   3.480  9.95706E-01  1.00221E+00 -6.50157E-03
    9034.492     41.347   3.520  9.99430E-01  1.00077E+00 -1.33730E-03
    9035.571     42.426   3.560  1.00528E+00  9.99373E-01  5.91117E-03
    9036.662     43.518   3.600  1.01327E+00  9.98047E-01  1.52243E-02
    9037.765     44.621   3.640  1.02319E+00  9.96795E-01  2.63924E-02
    9038.881     45.736   3.680  1.03463E+00  9.95597E-01  3.90299E-02
    9040.009     46.864   3.720  1.04693E+00  9.94494E-01  5.24405E-02
    9041.149     48.004   3.760  1.05913E+00  9.93449E-01  6.56823E-02
    9042.301     49.156   3.800  1.07016E+00  9.92482E-01  7.76795E-02
    9043.465     50.321   3.840  1.07904E+00  9.91595E-01  8.74471E-02
    9044.642     51.497   3.880  1.08521E+00  9.90788E-01  9.44188E-02
    9045.830     52.686   3.920  1.08849E+00  9.90063E-01  9.84278E-02
    9047.031     53.887   3.960  1.08895E+00  9.89443E-01  9.95110E-02
    9048.244     55.100   4.000  1.08662E+00  9.88885E-01  9.77323E-02
    9049.470     56.325   4.040  1.08172E+00  9.88431E-01  9.32896E-02
    9050.707     57.563   4.080  1.07441E+00  9.88059E-01  8.63524E-02
    9051.957     58.812   4.120  1.06484E+00  9.87770E-01  7.70712E-02
    9053.219     60.074   4.160  1.05317E+00  9.87562E-01  6.56051E-02
    9054.493     61.348   4.200  1.03968E+00  9.87434E-01  5.22451E-02
    9055.779     62.635   4.240  1.02475E+00  9.87387E-01  3.73653E-02
    9057.077     63.933   4.280  1.00894E+00  9.87419E-01  2.15241E-02
    9058.388     65.244   4.320  9.92968E-01  9.87529E-01  5.43844E-03
    9059.711     66.566   4.360  9.77591E-01  9.87717E-01 -1.01266E-02
    9061.046     67.901   4.400  9.63580E-01  9.87980E-01 -2.43993E-02
    9062.393     69.249   4.440  9.51584E-01  9.88291E-01 -3.67074E-02
    9063.753     70.608   4.480  9.42034E-01  9.88653E-01 -4.66188E-02
    9065.124     71.980   4.520  9.35190E-01  9.89084E-01 -5.38942E-02
    9066.508     73.363   4.560  9.31164E-01  9.89582E-01 -5.84184E-02
    9067.904     74.759   4.600  9.29881E-01  9.90102E-01 -6.02212E-02
    9069.312     76.168   4.640  9.31206E-01  9.90683E-01 -5.94766E-02
    9070.732     77.588   4.680  9.34883E-01  9.91281E-01 -5.63976E-02
    9072.165     79.021   4.720  9.40570E-01  9.91917E-01 -5.13476E-02
    9073.610     80.465   4.760  9.47848E-01  9.92609E-01 -4.47616E-02
    9075.067     81.922   4.800  9.56055E-01  9.93289E-01 -3.72334E-02
    9076.536     83.391   4.840  9.64450E-01  9.93996E-01 -2.95459E-02
    9078.017     84.873   4.880  9.72154E-01  9.94709E-01 -2.25554E-02
    9079.511     86.366   4.920  9.78472E-01  9.95448E-01 -1.69753E-02
    9081.016     87.872   4.960  9.83003E-01  9.96165E-01 -1.31620E-02
    9082.534     89.390   5.000  9.85975E-01  9.96900E-01 -1.09256E-02
    9084.064     90.920   5.040  9.87887E-01  9.97610E-01 -9.72320E-03
    9085.607     92.462   5.080  9.89367E-01  9.98311E-01 -8.94339E-03
    9087.161     94.017   5.120  9.90805E-01  9.98981E-01 -8.17561E-03
    9088.728     95.583   5.160  9.92308E-01  9.99639E-01 -7.33103E-03
    9090.307     97.162   5.200  9.93646E-01  1.00026E+00 -6.61402E-03
    9091.898     98.753   5.240  9.94435E-01  1.00084E+00 -6.40835E-03
    9093.501    100.356   5.280  9.94266E-01  1.00139E+00 -7.11996E-03
    9095.116    101.972   5.320  9.92963E-01  1.00189E+00 -8.92307E-03
    9096.744    103.599   5.360  9.90733E-01  1.00234E+00 -1.16119E-02
    9098.384    105.239   5.400  9.88119E-01  1.00276E+00 -1.46385E-02
    9100.036    106.891   5.440  9.85811E-01  1.00310E+00 -1.72920E-02
    9101.700    108.556   5.480  9.84557E-01  1.00342E+00 -1.88667E-02
    9103.376    110.232   5.520  9.84878E-01  1.00365E+00 -1.87716E-02
    9105.065    111.920   5.560  9.87174E-01  1.00383E+00 -1.66524E-02
    9106.766    113.621   5.600  9.91443E-01  1.00395E+00 -1.25113E-02
    9108.479    115.334   5.640  9.97185E-01  1.00401E+00 -6.82557E-03
    9110.204    117.059   5.680  1.00356E+00  1.00402E+00 -4.60623E-04
    9111.941    118.797   5.720  1.00958E+00  1.00395E+00  5.63159E-03
    9113.691    120.546   5.760  1.01463E+00  1.00384E+00  1.07888E-02
    9115.452    122.308   5.800  1.01850E+00  1.00362E+00  1.48797E-02
    9117.226    124.082   5.840  1.02165E+00  1.00339E+00  1.82601E-02
    9119.013    125.868   5.880  1.02457E+00  1.00308E+00  2.14835E-02
    9120.811    127.666   5.920  1.02773E+00  1.00271E+00  2.50217E-02
    9122.621    129.477   5.960  1.03137E+00  1.00228E+00  2.90901E-02
    9124.444    131.300   6.000  1.03545E+00  1.00175E+00  3.37010E-02
