# # comment:                                                     FEFF 9.9.1  
# # Source:
# # Structure
# # Reduced
# # space
# # abc:
# # angles:
# # sites:
# # POT  SCF 100  7.0000   0, screened core-hole, AFOLP (folp(0)= 1.150)
# # Abs   Z=29 Rmt= 1.255 Rnm= 1.333 K  shell
# # Pot 1 Z=23 Rmt= 1.095 Rnm= 1.309
# # Pot 2 Z=29 Rmt= 1.244 Rnm= 1.332
# # Pot 3 Z= 1 Rmt= 0.651 Rnm= 0.793
# # Pot 4 Z= 8 Rmt= 0.958 Rnm= 1.093
# # Gam_ch=1.729E+00 H-L exch Vi= 0.000E+00 Vr= 0.000E+00
# # Mu=-7.968E+00eV kf=2.242E+00 Vint=-1.624E+01eV Rs_int= 1.618
# FMS rfms= 9.0000
# # PATH  Rmax=-1.000,  Keep_limit= 0.00, Heap_limit 0.00  Pwcrit= 2.50%
#  S02=0.950  Temp=   0.00  Debye_temp=   0.00  Global_sig2= 0.00000
#  Energy zero shift, vr, vi    0.00000E+00   0.00000E+00
#  Curved wave amplitude ratio filter   4.000%
#     file         sig2 tot  cw amp ratio   deg  nlegs   reff  inp sig2
#     0/   0 paths used
#  xsedge+ 50, used to normalize mu           2.4658E-04
#  -----------------------------------------------------------------------
#  omega    e    k    mu    mu0     chi     @#
    8983.777    -11.778  -1.000  3.44385E-02  5.09561E-02 -1.65175E-02
    8984.075    -11.479  -0.960  3.60770E-02  5.45752E-02 -1.84982E-02
    8984.362    -11.193  -0.920  3.78271E-02  5.85899E-02 -2.07628E-02
    8984.636    -10.918  -0.880  3.97004E-02  6.30580E-02 -2.33576E-02
    8984.898    -10.656  -0.840  4.17102E-02  6.80466E-02 -2.63364E-02
    8985.148    -10.406  -0.800  4.38712E-02  7.36332E-02 -2.97620E-02
    8985.386    -10.168  -0.760  4.62000E-02  7.99069E-02 -3.37069E-02
    8985.612     -9.943  -0.720  4.87148E-02  8.69682E-02 -3.82534E-02
    8985.825     -9.730  -0.680  5.14350E-02  9.49277E-02 -4.34927E-02
    8986.026     -9.528  -0.640  5.43800E-02  1.03902E-01 -4.95220E-02
    8986.215     -9.339  -0.600  5.75679E-02  1.14005E-01 -5.64375E-02
    8986.392     -9.163  -0.560  6.10122E-02  1.25335E-01 -6.43230E-02
    8986.556     -8.998  -0.520  6.47180E-02  1.37949E-01 -7.32308E-02
    8986.709     -8.846  -0.480  6.86758E-02  1.51832E-01 -8.31566E-02
    8986.849     -8.705  -0.440  7.28554E-02  1.66864E-01 -9.40089E-02
    8986.977     -8.577  -0.400  7.71997E-02  1.82784E-01 -1.05585E-01
    8987.093     -8.462  -0.360  8.16232E-02  1.99185E-01 -1.17562E-01
    8987.197     -8.358  -0.320  8.60144E-02  2.15535E-01 -1.29521E-01
    8987.288     -8.267  -0.280  9.02467E-02  2.31246E-01 -1.41000E-01
    8987.367     -8.187  -0.240  9.41910E-02  2.45752E-01 -1.51561E-01
    8987.434     -8.120  -0.200  9.77286E-02  2.58574E-01 -1.60846E-01
    8987.489     -8.065  -0.160  1.00759E-01  2.69365E-01 -1.68607E-01
    8987.532     -8.023  -0.120  1.03201E-01  2.77899E-01 -1.74698E-01
    8987.562     -7.992  -0.080  1.04996E-01  2.84049E-01 -1.79053E-01
    8987.587     -7.968   0.000  1.06480E-01  2.88992E-01 -1.82512E-01
    8987.642     -7.913   0.120  1.09858E-01  3.00150E-01 -1.90292E-01
    8987.684     -7.870   0.160  1.12485E-01  3.08811E-01 -1.96326E-01
    8987.739     -7.815   0.200  1.15909E-01  3.19886E-01 -2.03977E-01
    8987.806     -7.748   0.240  1.20191E-01  3.33231E-01 -2.13039E-01
    8987.885     -7.669   0.280  1.25340E-01  3.48591E-01 -2.23251E-01
    8987.977     -7.578   0.320  1.31387E-01  3.65573E-01 -2.34186E-01
    8988.080     -7.474   0.360  1.38322E-01  3.83710E-01 -2.45388E-01
    8988.196     -7.358   0.400  1.46133E-01  4.02501E-01 -2.56368E-01
    8988.324     -7.230   0.440  1.54662E-01  4.21474E-01 -2.66812E-01
    8988.464     -7.090   0.480  1.63736E-01  4.40275E-01 -2.76539E-01
    8988.617     -6.938   0.520  1.73062E-01  4.58682E-01 -2.85621E-01
    8988.781     -6.773   0.560  1.82344E-01  4.76571E-01 -2.94227E-01
    8988.958     -6.596   0.600  1.91439E-01  4.93931E-01 -3.02492E-01
    8989.147     -6.407   0.640  2.00203E-01  5.10794E-01 -3.10591E-01
    8989.348     -6.206   0.680  2.08488E-01  5.27221E-01 -3.18733E-01
    8989.562     -5.993   0.720  2.16125E-01  5.43308E-01 -3.27183E-01
    8989.787     -5.767   0.760  2.22999E-01  5.59126E-01 -3.36127E-01
    8990.025     -5.529   0.800  2.29106E-01  5.74739E-01 -3.45633E-01
    8990.275     -5.280   0.840  2.34655E-01  5.90218E-01 -3.55563E-01
    8990.537     -5.017   0.880  2.40112E-01  6.05582E-01 -3.65471E-01
    8990.811     -4.743   0.920  2.46622E-01  6.20861E-01 -3.74239E-01
    8991.098     -4.457   0.960  2.56030E-01  6.36070E-01 -3.80040E-01
    8991.397     -4.158   1.000  2.69767E-01  6.51234E-01 -3.81467E-01
    8991.708     -3.847   1.040  2.87952E-01  6.66355E-01 -3.78403E-01
    8992.031     -3.524   1.080  3.09731E-01  6.81382E-01 -3.71651E-01
    8992.366     -3.189   1.120  3.34983E-01  6.96343E-01 -3.61360E-01
    8992.713     -2.841   1.160  3.65722E-01  7.11177E-01 -3.45455E-01
    8993.073     -2.481   1.200  4.05800E-01  7.25903E-01 -3.20103E-01
    8993.445     -2.110   1.240  4.57116E-01  7.40456E-01 -2.83340E-01
    8993.829     -1.726   1.280  5.17098E-01  7.54807E-01 -2.37709E-01
    8994.225     -1.329   1.320  5.82703E-01  7.68967E-01 -1.86265E-01
    8994.634     -0.921   1.360  6.53493E-01  7.82867E-01 -1.29373E-01
    8995.054     -0.500   1.400  7.30280E-01  7.96474E-01 -6.61943E-02
    8995.487     -0.067   1.440  8.13088E-01  8.09798E-01  3.29062E-03
    8995.932      0.378   1.480  8.92319E-01  8.22766E-01  6.95531E-02
    8996.389      0.835   1.520  9.48957E-01  8.35369E-01  1.13587E-01
    8996.859      1.304   1.560  9.75970E-01  8.47577E-01  1.28393E-01
    8997.340      1.786   1.600  9.85193E-01  8.59378E-01  1.25816E-01
    8997.834      2.280   1.640  9.92080E-01  8.70745E-01  1.21335E-01
    8998.340      2.785   1.680  1.00840E+00  8.81672E-01  1.26725E-01
    8998.858      3.304   1.720  1.04086E+00  8.92132E-01  1.48732E-01
    8999.388      3.834   1.760  1.09124E+00  9.02098E-01  1.89145E-01
    8999.931      4.377   1.800  1.16185E+00  9.11587E-01  2.50266E-01
    9000.486      4.931   1.840  1.25219E+00  9.20579E-01  3.31615E-01
    9001.053      5.498   1.880  1.35311E+00  9.29069E-01  4.24041E-01
    9001.632      6.077   1.920  1.45157E+00  9.37060E-01  5.14510E-01
    9002.223      6.669   1.960  1.52455E+00  9.44552E-01  5.79993E-01
    9002.827      7.272   2.000  1.54283E+00  9.51550E-01  5.91279E-01
    9003.442      7.888   2.040  1.49595E+00  9.58075E-01  5.37871E-01
    9004.070      8.516   2.080  1.40050E+00  9.64113E-01  4.36385E-01
    9004.710      9.156   2.120  1.28929E+00  9.69669E-01  3.19625E-01
    9005.363      9.808   2.160  1.18834E+00  9.74791E-01  2.13547E-01
    9006.027     10.472   2.200  1.10194E+00  9.79465E-01  1.22477E-01
    9006.704     11.149   2.240  1.02719E+00  9.83698E-01  4.34960E-02
    9007.392     11.838   2.280  9.69250E-01  9.87540E-01 -1.82907E-02
    9008.094     12.539   2.320  9.34217E-01  9.90979E-01 -5.67615E-02
    9008.807     13.252   2.360  9.18100E-01  9.94042E-01 -7.59422E-02
    9009.532     13.978   2.400  9.12752E-01  9.96741E-01 -8.39889E-02
    9010.270     14.715   2.440  9.15577E-01  9.99084E-01 -8.35073E-02
    9011.020     15.465   2.480  9.30535E-01  1.00112E+00 -7.05875E-02
    9011.782     16.227   2.520  9.61232E-01  1.00287E+00 -4.16331E-02
    9012.556     17.001   2.560  9.99400E-01  1.00432E+00 -4.92297E-03
    9013.342     17.788   2.600  1.03260E+00  1.00550E+00  2.70975E-02
    9014.141     18.586   2.640  1.04952E+00  1.00644E+00  4.30833E-02
    9014.952     19.397   2.680  1.04514E+00  1.00715E+00  3.79870E-02
    9015.774     20.220   2.720  1.03101E+00  1.00766E+00  2.33449E-02
    9016.610     21.055   2.760  1.01484E+00  1.00797E+00  6.87034E-03
    9017.457     21.902   2.800  9.99262E-01  1.00811E+00 -8.85157E-03
    9018.316     22.762   2.840  9.84167E-01  1.00809E+00 -2.39229E-02
    9019.188     23.634   2.880  9.68942E-01  1.00791E+00 -3.89702E-02
    9020.072     24.518   2.920  9.53204E-01  1.00763E+00 -5.44265E-02
    9020.968     25.414   2.960  9.37431E-01  1.00721E+00 -6.97777E-02
    9021.877     26.322   3.000  9.22645E-01  1.00672E+00 -8.40699E-02
    9022.797     27.243   3.040  9.10002E-01  1.00612E+00 -9.61150E-02
    9023.730     28.175   3.080  9.00603E-01  1.00546E+00 -1.04859E-01
    9024.675     29.120   3.120  8.94194E-01  1.00474E+00 -1.10541E-01
    9025.632     30.077   3.160  8.89925E-01  1.00396E+00 -1.14036E-01
    9026.601     31.046   3.200  8.87013E-01  1.00315E+00 -1.16132E-01
    9027.582     32.028   3.240  8.85141E-01  1.00229E+00 -1.17154E-01
    9028.576     33.022   3.280  8.84585E-01  1.00143E+00 -1.16847E-01
    9029.582     34.027   3.320  8.86049E-01  1.00056E+00 -1.14516E-01
    9030.600     35.045   3.360  8.90253E-01  9.99695E-01 -1.09442E-01
    9031.630     36.076   3.400  8.97486E-01  9.98826E-01 -1.01340E-01
    9032.673     37.118   3.440  9.07672E-01  9.97962E-01 -9.02899E-02
    9033.727     38.173   3.480  9.20567E-01  9.97125E-01 -7.65584E-02
    9034.794     39.239   3.520  9.35632E-01  9.96298E-01 -6.06653E-02
    9035.873     40.318   3.560  9.52133E-01  9.95503E-01 -4.33702E-02
    9036.964     41.410   3.600  9.69036E-01  9.94744E-01 -2.57075E-02
    9038.067     42.513   3.640  9.85112E-01  9.94001E-01 -8.88884E-03
    9039.183     43.629   3.680  9.99264E-01  9.93319E-01  5.94448E-03
    9040.311     44.756   3.720  1.01078E+00  9.92679E-01  1.81044E-02
    9041.451     45.896   3.760  1.01950E+00  9.92081E-01  2.74196E-02
    9042.603     47.048   3.800  1.02563E+00  9.91528E-01  3.40981E-02
    9043.767     48.213   3.840  1.02963E+00  9.91040E-01  3.85914E-02
    9044.944     49.389   3.880  1.03202E+00  9.90597E-01  4.14212E-02
    9046.132     50.578   3.920  1.03325E+00  9.90199E-01  4.30472E-02
    9047.333     51.779   3.960  1.03372E+00  9.89867E-01  4.38545E-02
    9048.546     52.992   4.000  1.03378E+00  9.89561E-01  4.42198E-02
    9049.772     54.217   4.040  1.03384E+00  9.89341E-01  4.44950E-02
    9051.009     55.455   4.080  1.03409E+00  9.89147E-01  4.49439E-02
    9052.259     56.704   4.120  1.03470E+00  9.89019E-01  4.56793E-02
    9053.521     57.966   4.160  1.03557E+00  9.88938E-01  4.66282E-02
    9054.795     59.240   4.200  1.03639E+00  9.88921E-01  4.74692E-02
    9056.081     60.527   4.240  1.03662E+00  9.88927E-01  4.76893E-02
    9057.379     61.825   4.280  1.03576E+00  9.88997E-01  4.67675E-02
    9058.690     63.136   4.320  1.03347E+00  9.89109E-01  4.43583E-02
    9060.013     64.458   4.360  1.02972E+00  9.89263E-01  4.04582E-02
    9061.348     65.793   4.400  1.02489E+00  9.89456E-01  3.54377E-02
    9062.695     67.141   4.440  1.01965E+00  9.89689E-01  2.99648E-02
    9064.055     68.500   4.480  1.01475E+00  9.89961E-01  2.47941E-02
    9065.426     69.872   4.520  1.01090E+00  9.90270E-01  2.06295E-02
    9066.810     71.255   4.560  1.00862E+00  9.90615E-01  1.80074E-02
    9068.206     72.651   4.600  1.00815E+00  9.90971E-01  1.71755E-02
    9069.614     74.060   4.640  1.00945E+00  9.91360E-01  1.80861E-02
    9071.034     75.480   4.680  1.01225E+00  9.91781E-01  2.04644E-02
    9072.467     76.913   4.720  1.01605E+00  9.92210E-01  2.38425E-02
    9073.912     78.357   4.760  1.02023E+00  9.92646E-01  2.75882E-02
    9075.369     79.814   4.800  1.02400E+00  9.93109E-01  3.08911E-02
    9076.838     81.283   4.840  1.02634E+00  9.93578E-01  3.27597E-02
    9078.319     82.765   4.880  1.02630E+00  9.94069E-01  3.22326E-02
    9079.813     84.258   4.920  1.02332E+00  9.94539E-01  2.87784E-02
    9081.318     85.764   4.960  1.01756E+00  9.95006E-01  2.25534E-02
    9082.836     87.282   5.000  1.00981E+00  9.95472E-01  1.43358E-02
    9084.366     88.812   5.040  1.00113E+00  9.95935E-01  5.19535E-03
    9085.909     90.354   5.080  9.92562E-01  9.96394E-01 -3.83148E-03
    9087.463     91.909   5.120  9.84885E-01  9.96847E-01 -1.19625E-02
    9089.030     93.475   5.160  9.78413E-01  9.97271E-01 -1.88575E-02
    9090.609     95.054   5.200  9.73088E-01  9.97685E-01 -2.45967E-02
    9092.200     96.645   5.240  9.68571E-01  9.98065E-01 -2.94936E-02
    9093.803     98.248   5.280  9.64593E-01  9.98411E-01 -3.38174E-02
    9095.418     99.864   5.320  9.60985E-01  9.98747E-01 -3.77612E-02
    9097.046    101.491   5.360  9.57561E-01  9.99070E-01 -4.15094E-02
    9098.686    103.131   5.400  9.54031E-01  9.99335E-01 -4.53043E-02
    9100.338    104.783   5.440  9.50275E-01  9.99585E-01 -4.93100E-02
    9102.002    106.448   5.480  9.46364E-01  9.99798E-01 -5.34336E-02
    9103.678    108.124   5.520  9.42778E-01  9.99974E-01 -5.71963E-02
    9105.367    109.812   5.560  9.40246E-01  1.00013E+00 -5.98864E-02
    9107.068    111.513   5.600  9.39333E-01  1.00023E+00 -6.08972E-02
    9108.781    113.226   5.640  9.40277E-01  1.00029E+00 -6.00095E-02
    9110.506    114.951   5.680  9.42945E-01  1.00033E+00 -5.73812E-02
    9112.243    116.689   5.720  9.46996E-01  1.00030E+00 -5.33080E-02
    9113.993    118.438   5.760  9.52307E-01  1.00026E+00 -4.79564E-02
    9115.755    120.200   5.800  9.58881E-01  1.00016E+00 -4.12808E-02
    9117.528    121.974   5.840  9.66981E-01  1.00004E+00 -3.30614E-02
    9119.315    123.760   5.880  9.76813E-01  9.99863E-01 -2.30502E-02
    9121.113    125.558   5.920  9.88335E-01  9.99669E-01 -1.13340E-02
    9122.923    127.369   5.960  1.00068E+00  9.99411E-01  1.26456E-03
    9124.746    129.192   6.000  1.01257E+00  9.99115E-01  1.34581E-02
