# # comment:                                                     FEFF 9.9.1  
# # Source:
# # Structure
# # Reduced
# # space
# # abc:
# # angles:109.471221
# # sites:
# # POT  SCF 100  7.0000   0, screened core-hole, AFOLP (folp(0)= 1.150)
# # Abs   Z=29 Rmt= 1.257 Rnm= 1.347 K  shell
# # Pot 1 Z=29 Rmt= 1.257 Rnm= 1.347
# # Pot 2 Z=50 Rmt= 1.398 Rnm= 1.514
# # Pot 3 Z=82 Rmt= 1.761 Rnm= 1.776
# # Pot 4 Z= 8 Rmt= 1.024 Rnm= 1.104
# # Gam_ch=1.729E+00 H-L exch Vi= 0.000E+00 Vr= 0.000E+00
# # Mu=-6.003E+00eV kf=2.152E+00 Vint=-1.523E+01eV Rs_int= 1.685
# FMS rfms= 9.0000
# # PATH  Rmax=-1.000,  Keep_limit= 0.00, Heap_limit 0.00  Pwcrit= 2.50%
#  S02=0.950  Temp=   0.00  Debye_temp=   0.00  Global_sig2= 0.00000
#  Energy zero shift, vr, vi    0.00000E+00   0.00000E+00
#  Curved wave amplitude ratio filter   4.000%
#     file         sig2 tot  cw amp ratio   deg  nlegs   reff  inp sig2
#     0/   0 paths used
#  xsedge+ 50, used to normalize mu           2.4543E-04
#  -----------------------------------------------------------------------
#  omega    e    k    mu    mu0     chi     @#
    8983.428     -9.813  -1.000  4.45417E-02  5.49144E-02 -1.03726E-02
    8983.727     -9.514  -0.960  4.72229E-02  5.89476E-02 -1.17247E-02
    8984.014     -9.227  -0.920  5.01320E-02  6.34334E-02 -1.33014E-02
    8984.288     -8.953  -0.880  5.32926E-02  6.84388E-02 -1.51462E-02
    8984.550     -8.691  -0.840  5.67306E-02  7.40418E-02 -1.73111E-02
    8984.800     -8.441  -0.800  6.04742E-02  8.03328E-02 -1.98585E-02
    8985.038     -8.203  -0.760  6.45534E-02  8.74156E-02 -2.28623E-02
    8985.263     -7.978  -0.720  6.89994E-02  9.54078E-02 -2.64083E-02
    8985.477     -7.764  -0.680  7.38439E-02  1.04438E-01 -3.05945E-02
    8985.678     -7.563  -0.640  7.91166E-02  1.14644E-01 -3.55276E-02
    8985.867     -7.374  -0.600  8.48428E-02  1.26159E-01 -4.13165E-02
    8986.044     -7.197  -0.560  9.10381E-02  1.39098E-01 -4.80602E-02
    8986.208     -7.033  -0.520  9.77024E-02  1.53530E-01 -5.58275E-02
    8986.361     -6.880  -0.480  1.04811E-01  1.69439E-01 -6.46286E-02
    8986.501     -6.740  -0.440  1.12304E-01  1.86687E-01 -7.43826E-02
    8986.629     -6.612  -0.400  1.20082E-01  2.04971E-01 -8.48895E-02
    8986.745     -6.496  -0.360  1.27996E-01  2.23819E-01 -9.58229E-02
    8986.848     -6.393  -0.320  1.35858E-01  2.42614E-01 -1.06756E-01
    8986.940     -6.301  -0.280  1.43454E-01  2.60674E-01 -1.17220E-01
    8987.019     -6.222  -0.240  1.50560E-01  2.77342E-01 -1.26782E-01
    8987.086     -6.155  -0.200  1.56963E-01  2.92070E-01 -1.35107E-01
    8987.141     -6.100  -0.160  1.62476E-01  3.04456E-01 -1.41981E-01
    8987.184     -6.057  -0.120  1.66941E-01  3.14245E-01 -1.47304E-01
    8987.214     -6.027  -0.080  1.70238E-01  3.21296E-01 -1.51058E-01
    8987.238     -6.003   0.000  1.72981E-01  3.26961E-01 -1.53980E-01
    8987.293     -5.948   0.120  1.79177E-01  3.39732E-01 -1.60555E-01
    8987.336     -5.905   0.160  1.84049E-01  3.49644E-01 -1.65595E-01
    8987.391     -5.850   0.200  1.90493E-01  3.62292E-01 -1.71799E-01
    8987.458     -5.783   0.240  1.98646E-01  3.77521E-01 -1.78875E-01
    8987.537     -5.704   0.280  2.08667E-01  3.94979E-01 -1.86313E-01
    8987.629     -5.612   0.320  2.20755E-01  4.14213E-01 -1.93457E-01
    8987.732     -5.509   0.360  2.35259E-01  4.34682E-01 -1.99423E-01
    8987.848     -5.393   0.400  2.52498E-01  4.55748E-01 -2.03249E-01
    8987.976     -5.265   0.440  2.72993E-01  4.76886E-01 -2.03893E-01
    8988.116     -5.125   0.480  2.97308E-01  4.97632E-01 -2.00325E-01
    8988.269     -4.972   0.520  3.26156E-01  5.17719E-01 -1.91563E-01
    8988.433     -4.808   0.560  3.60194E-01  5.37043E-01 -1.76849E-01
    8988.610     -4.631   0.600  3.99553E-01  5.55532E-01 -1.55979E-01
    8988.799     -4.442   0.640  4.43118E-01  5.73242E-01 -1.30125E-01
    8989.000     -4.241   0.680  4.87801E-01  5.90273E-01 -1.02472E-01
    8989.213     -4.028   0.720  5.29484E-01  6.06716E-01 -7.72324E-02
    8989.439     -3.802   0.760  5.66246E-01  6.22663E-01 -5.64169E-02
    8989.677     -3.564   0.800  6.00563E-01  6.38195E-01 -3.76315E-02
    8989.927     -3.314   0.840  6.35789E-01  6.53379E-01 -1.75894E-02
    8990.189     -3.052   0.880  6.68593E-01  6.68269E-01  3.24938E-04
    8990.463     -2.778   0.920  6.86479E-01  6.82903E-01  3.57543E-03
    8990.750     -2.491   0.960  6.79386E-01  6.97311E-01 -1.79254E-02
    8991.048     -2.193   1.000  6.52354E-01  7.11509E-01 -5.91555E-02
    8991.359     -1.882   1.040  6.16639E-01  7.25525E-01 -1.08885E-01
    8991.682     -1.559   1.080  5.77179E-01  7.39316E-01 -1.62137E-01
    8992.018     -1.223   1.120  5.37566E-01  7.52896E-01 -2.15330E-01
    8992.365     -0.876   1.160  5.04609E-01  7.66254E-01 -2.61645E-01
    8992.725     -0.516   1.200  4.83542E-01  7.79374E-01 -2.95833E-01
    8993.097     -0.144   1.240  4.75211E-01  7.92237E-01 -3.17026E-01
    8993.481      0.240   1.280  4.78367E-01  8.04820E-01 -3.26453E-01
    8993.877      0.636   1.320  4.91958E-01  8.17101E-01 -3.25143E-01
    8994.285      1.044   1.360  5.17987E-01  8.29075E-01 -3.11088E-01
    8994.706      1.465   1.400  5.64119E-01  8.40677E-01 -2.76558E-01
    8995.139      1.898   1.440  6.41103E-01  8.51942E-01 -2.10838E-01
    8995.584      2.343   1.480  7.56406E-01  8.62825E-01 -1.06419E-01
    8996.041      2.800   1.520  9.01843E-01  8.73299E-01  2.85447E-02
    8996.510      3.269   1.560  1.03393E+00  8.83360E-01  1.50573E-01
    8996.992      3.751   1.600  1.09183E+00  8.93007E-01  1.98819E-01
    8997.486      4.245   1.640  1.07200E+00  9.02213E-01  1.69789E-01
    8997.992      4.751   1.680  1.02600E+00  9.10978E-01  1.15022E-01
    8998.510      5.269   1.720  9.91360E-01  9.19303E-01  7.20572E-02
    8999.040      5.799   1.760  9.86184E-01  9.27185E-01  5.89988E-02
    8999.583      6.342   1.800  1.01801E+00  9.34585E-01  8.34254E-02
    9000.137      6.896   1.840  1.08225E+00  9.41565E-01  1.40680E-01
    9000.704      7.463   1.880  1.15050E+00  9.48089E-01  2.02411E-01
    9001.283      8.043   1.920  1.18677E+00  9.54159E-01  2.32607E-01
    9001.875      8.634   1.960  1.19022E+00  9.59801E-01  2.30415E-01
    9002.478      9.237   2.000  1.19081E+00  9.65021E-01  2.25787E-01
    9003.094      9.853   2.040  1.21141E+00  9.69845E-01  2.41566E-01
    9003.722     10.481   2.080  1.24983E+00  9.74260E-01  2.75566E-01
    9004.362     11.121   2.120  1.28630E+00  9.78270E-01  3.08035E-01
    9005.014     11.773   2.160  1.31384E+00  9.81926E-01  3.31910E-01
    9005.679     12.438   2.200  1.34056E+00  9.85217E-01  3.55345E-01
    9006.355     13.114   2.240  1.36644E+00  9.88169E-01  3.78271E-01
    9007.044     13.803   2.280  1.37646E+00  9.90791E-01  3.85673E-01
    9007.745     14.504   2.320  1.35352E+00  9.93115E-01  3.60408E-01
    9008.458     15.217   2.360  1.28955E+00  9.95148E-01  2.94404E-01
    9009.184     15.943   2.400  1.18598E+00  9.96898E-01  1.89078E-01
    9009.921     16.681   2.440  1.06012E+00  9.98418E-01  6.16988E-02
    9010.671     17.430   2.480  9.51650E-01  9.99672E-01 -4.80217E-02
    9011.433     18.192   2.520  8.89619E-01  1.00073E+00 -1.11112E-01
    9012.207     18.966   2.560  8.74570E-01  1.00157E+00 -1.26995E-01
    9012.994     19.753   2.600  8.85713E-01  1.00222E+00 -1.16509E-01
    9013.792     20.551   2.640  9.05883E-01  1.00271E+00 -9.68261E-02
    9014.603     21.362   2.680  9.31131E-01  1.00303E+00 -7.19027E-02
    9015.426     22.185   2.720  9.56350E-01  1.00323E+00 -4.68778E-02
    9016.261     23.020   2.760  9.76133E-01  1.00330E+00 -2.71626E-02
    9017.109     23.868   2.800  9.85570E-01  1.00324E+00 -1.76731E-02
    9017.968     24.727   2.840  9.80852E-01  1.00310E+00 -2.22480E-02
    9018.840     25.599   2.880  9.63839E-01  1.00287E+00 -3.90325E-02
    9019.724     26.483   2.920  9.40762E-01  1.00256E+00 -6.18028E-02
    9020.620     27.379   2.960  9.17534E-01  1.00220E+00 -8.46708E-02
    9021.528     28.287   3.000  8.96971E-01  1.00178E+00 -1.04805E-01
    9022.449     29.208   3.040  8.80193E-01  1.00132E+00 -1.21132E-01
    9023.381     30.140   3.080  8.68476E-01  1.00084E+00 -1.32362E-01
    9024.326     31.085   3.120  8.62814E-01  1.00032E+00 -1.37502E-01
    9025.283     32.042   3.160  8.62773E-01  9.99786E-01 -1.37013E-01
    9026.253     33.012   3.200  8.67058E-01  9.99250E-01 -1.32192E-01
    9027.234     33.993   3.240  8.74040E-01  9.98711E-01 -1.24672E-01
    9028.228     34.987   3.280  8.82126E-01  9.98175E-01 -1.16049E-01
    9029.234     35.993   3.320  8.90016E-01  9.97643E-01 -1.07626E-01
    9030.252     37.011   3.360  8.96366E-01  9.97139E-01 -1.00773E-01
    9031.282     38.041   3.400  9.00226E-01  9.96645E-01 -9.64193E-02
    9032.324     39.083   3.440  9.01939E-01  9.96205E-01 -9.42659E-02
    9033.379     40.138   3.480  9.02763E-01  9.95779E-01 -9.30156E-02
    9034.446     41.205   3.520  9.04106E-01  9.95366E-01 -9.12604E-02
    9035.525     42.284   3.560  9.06736E-01  9.95012E-01 -8.82762E-02
    9036.616     43.375   3.600  9.10886E-01  9.94696E-01 -8.38103E-02
    9037.719     44.478   3.640  9.16853E-01  9.94399E-01 -7.75465E-02
    9038.835     45.594   3.680  9.25509E-01  9.94164E-01 -6.86552E-02
    9039.962     46.721   3.720  9.38027E-01  9.93970E-01 -5.59424E-02
    9041.102     47.861   3.760  9.55661E-01  9.93817E-01 -3.81554E-02
    9042.255     49.014   3.800  9.79015E-01  9.93705E-01 -1.46900E-02
    9043.419     50.178   3.840  1.00764E+00  9.93634E-01  1.40067E-02
    9044.595     51.354   3.880  1.03996E+00  9.93604E-01  4.63535E-02
    9045.784     52.543   3.920  1.07335E+00  9.93638E-01  7.97086E-02
    9046.985     53.744   3.960  1.10422E+00  9.93692E-01  1.10528E-01
    9048.198     54.957   4.000  1.12891E+00  9.93806E-01  1.35102E-01
    9049.423     56.182   4.040  1.14454E+00  9.93940E-01  1.50599E-01
    9050.661     57.420   4.080  1.14980E+00  9.94134E-01  1.55662E-01
    9051.911     58.670   4.120  1.14500E+00  9.94344E-01  1.50657E-01
    9053.172     59.931   4.160  1.13235E+00  9.94593E-01  1.37758E-01
    9054.446     61.206   4.200  1.11475E+00  9.94900E-01  1.19855E-01
    9055.733     62.492   4.240  1.09519E+00  9.95220E-01  9.99652E-02
    9057.031     63.790   4.280  1.07624E+00  9.95554E-01  8.06874E-02
    9058.342     65.101   4.320  1.05973E+00  9.95942E-01  6.37851E-02
    9059.665     66.424   4.360  1.04622E+00  9.96340E-01  4.98828E-02
    9061.000     67.759   4.400  1.03535E+00  9.96746E-01  3.86015E-02
    9062.347     69.106   4.440  1.02621E+00  9.97183E-01  2.90317E-02
    9063.706     70.465   4.480  1.01797E+00  9.97648E-01  2.03205E-02
    9065.078     71.837   4.520  1.01025E+00  9.98096E-01  1.21502E-02
    9066.462     73.221   4.560  1.00331E+00  9.98569E-01  4.73965E-03
    9067.858     74.617   4.600  9.97635E-01  9.99046E-01 -1.41172E-03
    9069.266     76.025   4.640  9.93699E-01  9.99546E-01 -5.84761E-03
    9070.686     77.445   4.680  9.91636E-01  1.00002E+00 -8.38793E-03
    9072.119     78.878   4.720  9.91286E-01  1.00050E+00 -9.21250E-03
    9073.563     80.322   4.760  9.92163E-01  1.00097E+00 -8.80750E-03
    9075.020     81.779   4.800  9.93648E-01  1.00144E+00 -7.79040E-03
    9076.490     83.249   4.840  9.95079E-01  1.00190E+00 -6.82214E-03
    9077.971     84.730   4.880  9.95751E-01  1.00233E+00 -6.58413E-03
    9079.464     86.223   4.920  9.95024E-01  1.00276E+00 -7.73665E-03
    9080.970     87.729   4.960  9.92502E-01  1.00318E+00 -1.06757E-02
    9082.488     89.247   5.000  9.88146E-01  1.00356E+00 -1.54163E-02
    9084.018     90.777   5.040  9.82298E-01  1.00391E+00 -2.16153E-02
    9085.560     92.319   5.080  9.75573E-01  1.00425E+00 -2.86780E-02
    9087.115     93.874   5.120  9.68825E-01  1.00456E+00 -3.57307E-02
    9088.681     95.440   5.160  9.63149E-01  1.00485E+00 -4.16988E-02
    9090.260     97.019   5.200  9.59508E-01  1.00510E+00 -4.55944E-02
    9091.851     98.610   5.240  9.58538E-01  1.00532E+00 -4.67814E-02
    9093.455    100.214   5.280  9.60610E-01  1.00550E+00 -4.48885E-02
    9095.070    101.829   5.320  9.65806E-01  1.00564E+00 -3.98324E-02
    9096.698    103.457   5.360  9.73672E-01  1.00576E+00 -3.20882E-02
    9098.338    105.097   5.400  9.82949E-01  1.00582E+00 -2.28737E-02
    9099.990    106.749   5.440  9.92192E-01  1.00587E+00 -1.36772E-02
    9101.654    108.413   5.480  1.00025E+00  1.00588E+00 -5.62182E-03
    9103.330    110.089   5.520  1.00648E+00  1.00584E+00  6.34172E-04
    9105.019    111.778   5.560  1.01008E+00  1.00577E+00  4.30914E-03
    9106.719    113.478   5.600  1.00970E+00  1.00566E+00  4.03811E-03
    9108.432    115.191   5.640  1.00396E+00  1.00551E+00 -1.55127E-03
    9110.158    116.917   5.680  9.92901E-01  1.00535E+00 -1.24472E-02
    9111.895    118.654   5.720  9.78625E-01  1.00512E+00 -2.64979E-02
    9113.644    120.404   5.760  9.64792E-01  1.00488E+00 -4.00912E-02
    9115.406    122.165   5.800  9.54837E-01  1.00461E+00 -4.97712E-02
    9117.180    123.939   5.840  9.50749E-01  1.00429E+00 -5.35457E-02
    9118.966    125.725   5.880  9.52629E-01  1.00395E+00 -5.13177E-02
    9120.765    127.524   5.920  9.58995E-01  1.00357E+00 -4.45726E-02
    9122.575    129.334   5.960  9.67724E-01  1.00318E+00 -3.54585E-02
    9124.398    131.157   6.000  9.77064E-01  1.00274E+00 -2.56811E-02
