# # comment:                                                     FEFF 9.9.1  
# # Source:
# # Structure
# # Reduced
# # space
# # abc:
# # angles:
# # sites:
# # POT  SCF 100  7.0000   0, screened core-hole, AFOLP (folp(0)= 1.150)
# # Abs   Z=29 Rmt= 1.244 Rnm= 1.363 K  shell
# # Pot 1 Z=29 Rmt= 1.210 Rnm= 1.339
# # Pot 2 Z= 1 Rmt= 0.876 Rnm= 1.005
# # Pot 3 Z=16 Rmt= 0.844 Rnm= 1.109
# # Pot 4 Z= 8 Rmt= 1.007 Rnm= 1.152
# # Gam_ch=1.729E+00 H-L exch Vi= 0.000E+00 Vr= 0.000E+00
# # Mu=-6.749E+00eV kf=2.031E+00 Vint=-1.241E+01eV Rs_int= 1.786
# FMS rfms= 9.0000
# # PATH  Rmax=-1.000,  Keep_limit= 0.00, Heap_limit 0.00  Pwcrit= 2.50%
#  S02=0.950  Temp=   0.00  Debye_temp=   0.00  Global_sig2= 0.00000
#  Energy zero shift, vr, vi    0.00000E+00   0.00000E+00
#  Curved wave amplitude ratio filter   4.000%
#     file         sig2 tot  cw amp ratio   deg  nlegs   reff  inp sig2
#     0/   0 paths used
#  xsedge+ 50, used to normalize mu           2.4126E-04
#  -----------------------------------------------------------------------
#  omega    e    k    mu    mu0     chi     @#
    8983.355    -10.559  -1.000  3.55273E-02  5.63382E-02 -2.08109E-02
    8983.654    -10.260  -0.960  3.71103E-02  6.03845E-02 -2.32742E-02
    8983.940     -9.973  -0.920  3.87766E-02  6.48679E-02 -2.60912E-02
    8984.214     -9.699  -0.880  4.05312E-02  6.98506E-02 -2.93194E-02
    8984.477     -9.437  -0.840  4.23792E-02  7.54049E-02 -3.30256E-02
    8984.727     -9.187  -0.800  4.43262E-02  8.16140E-02 -3.72878E-02
    8984.964     -8.949  -0.760  4.63779E-02  8.85732E-02 -4.21953E-02
    8985.190     -8.724  -0.720  4.85404E-02  9.63896E-02 -4.78492E-02
    8985.403     -8.510  -0.680  5.08196E-02  1.05181E-01 -5.43609E-02
    8985.604     -8.309  -0.640  5.32207E-02  1.15069E-01 -6.18486E-02
    8985.793     -8.120  -0.600  5.57473E-02  1.26176E-01 -7.04291E-02
    8985.970     -7.944  -0.560  5.83998E-02  1.38603E-01 -8.02037E-02
    8986.135     -7.779  -0.520  6.11726E-02  1.52409E-01 -9.12368E-02
    8986.287     -7.627  -0.480  6.40509E-02  1.67577E-01 -1.03526E-01
    8986.427     -7.486  -0.440  6.70071E-02  1.83975E-01 -1.16968E-01
    8986.555     -7.358  -0.400  6.99976E-02  2.01324E-01 -1.31327E-01
    8986.671     -7.242  -0.360  7.29628E-02  2.19189E-01 -1.46226E-01
    8986.775     -7.139  -0.320  7.58315E-02  2.37002E-01 -1.61170E-01
    8986.866     -7.047  -0.280  7.85287E-02  2.54131E-01 -1.75602E-01
    8986.945     -6.968  -0.240  8.09853E-02  2.69965E-01 -1.88980E-01
    8987.013     -6.901  -0.200  8.31447E-02  2.83985E-01 -2.00841E-01
    8987.067     -6.846  -0.160  8.49648E-02  2.95805E-01 -2.10840E-01
    8987.110     -6.804  -0.120  8.64165E-02  3.05169E-01 -2.18753E-01
    8987.141     -6.773  -0.080  8.74793E-02  3.11929E-01 -2.24450E-01
    8987.165     -6.749   0.000  8.83681E-02  3.17371E-01 -2.29003E-01
    8987.220     -6.694   0.120  9.03708E-02  3.29655E-01 -2.39285E-01
    8987.262     -6.651   0.160  9.18811E-02  3.39247E-01 -2.47366E-01
    8987.317     -6.596   0.200  9.37833E-02  3.51520E-01 -2.57737E-01
    8987.384     -6.529   0.240  9.61179E-02  3.66375E-01 -2.70257E-01
    8987.464     -6.450   0.280  9.88765E-02  3.83576E-01 -2.84700E-01
    8987.555     -6.359   0.320  1.02061E-01  4.02727E-01 -3.00666E-01
    8987.659     -6.255   0.360  1.05719E-01  4.23395E-01 -3.17676E-01
    8987.774     -6.139   0.400  1.09946E-01  4.45072E-01 -3.35126E-01
    8987.903     -6.011   0.440  1.14835E-01  4.67286E-01 -3.52452E-01
    8988.043     -5.871   0.480  1.20558E-01  4.89684E-01 -3.69126E-01
    8988.195     -5.718   0.520  1.27253E-01  5.11994E-01 -3.84741E-01
    8988.360     -5.554   0.560  1.35157E-01  5.34085E-01 -3.98927E-01
    8988.536     -5.377   0.600  1.44543E-01  5.55912E-01 -4.11368E-01
    8988.725     -5.188   0.640  1.55793E-01  5.77467E-01 -4.21674E-01
    8988.927     -4.987   0.680  1.69439E-01  5.98792E-01 -4.29353E-01
    8989.140     -4.774   0.720  1.86202E-01  6.19914E-01 -4.33712E-01
    8989.366     -4.548   0.760  2.07042E-01  6.40858E-01 -4.33815E-01
    8989.603     -4.310   0.800  2.32928E-01  6.61637E-01 -4.28709E-01
    8989.853     -4.060   0.840  2.64703E-01  6.82252E-01 -4.17549E-01
    8990.115     -3.798   0.880  3.02511E-01  7.02667E-01 -4.00156E-01
    8990.390     -3.524   0.920  3.45601E-01  7.22878E-01 -3.77277E-01
    8990.676     -3.237   0.960  3.92367E-01  7.42785E-01 -3.50418E-01
    8990.975     -2.939   1.000  4.40687E-01  7.62383E-01 -3.21697E-01
    8991.286     -2.628   1.040  4.87330E-01  7.81599E-01 -2.94269E-01
    8991.609     -2.305   1.080  5.28901E-01  8.00333E-01 -2.71432E-01
    8991.944     -1.969   1.120  5.64469E-01  8.18565E-01 -2.54096E-01
    8992.292     -1.622   1.160  5.95728E-01  8.36212E-01 -2.40484E-01
    8992.651     -1.262   1.200  6.24921E-01  8.53210E-01 -2.28289E-01
    8993.023     -0.890   1.240  6.53464E-01  8.69497E-01 -2.16033E-01
    8993.407     -0.506   1.280  6.83467E-01  8.85033E-01 -2.01566E-01
    8993.803     -0.110   1.320  7.16656E-01  8.99760E-01 -1.83104E-01
    8994.212      0.298   1.360  7.49252E-01  9.13663E-01 -1.64411E-01
    8994.632      0.719   1.400  7.69770E-01  9.26693E-01 -1.56922E-01
    8995.065      1.152   1.440  7.71258E-01  9.38819E-01 -1.67561E-01
    8995.510      1.597   1.480  7.62631E-01  9.50063E-01 -1.87432E-01
    8995.967      2.054   1.520  7.59864E-01  9.60404E-01 -2.00541E-01
    8996.437      2.523   1.560  7.73279E-01  9.69847E-01 -1.96568E-01
    8996.918      3.005   1.600  8.02655E-01  9.78399E-01 -1.75744E-01
    8997.412      3.499   1.640  8.47030E-01  9.86115E-01 -1.39085E-01
    8997.918      4.005   1.680  9.14625E-01  9.92967E-01 -7.83420E-02
    8998.436      4.523   1.720  1.01593E+00  9.99034E-01  1.68925E-02
    8998.967      5.053   1.760  1.14752E+00  1.00433E+00  1.43183E-01
    8999.509      5.596   1.800  1.28861E+00  1.00889E+00  2.79722E-01
    9000.064      6.150   1.840  1.41807E+00  1.01276E+00  4.05315E-01
    9000.631      6.717   1.880  1.52208E+00  1.01596E+00  5.06115E-01
    9001.210      7.296   1.920  1.57546E+00  1.01859E+00  5.56862E-01
    9001.801      7.888   1.960  1.56309E+00  1.02065E+00  5.42443E-01
    9002.405      8.491   2.000  1.52282E+00  1.02219E+00  5.00630E-01
    9003.021      9.107   2.040  1.48565E+00  1.02325E+00  4.62398E-01
    9003.648      9.735   2.080  1.42474E+00  1.02391E+00  4.00835E-01
    9004.288     10.375   2.120  1.33102E+00  1.02418E+00  3.06844E-01
    9004.941     11.027   2.160  1.23409E+00  1.02409E+00  2.09994E-01
    9005.605     11.692   2.200  1.15686E+00  1.02373E+00  1.33131E-01
    9006.282     12.368   2.240  1.10767E+00  1.02309E+00  8.45883E-02
    9006.971     13.057   2.280  1.08252E+00  1.02222E+00  6.02984E-02
    9007.672     13.758   2.320  1.06981E+00  1.02118E+00  4.86269E-02
    9008.385     14.471   2.360  1.05486E+00  1.01995E+00  3.49120E-02
    9009.110     15.197   2.400  1.03401E+00  1.01860E+00  1.54049E-02
    9009.848     15.934   2.440  1.01962E+00  1.01715E+00  2.47805E-03
    9010.598     16.684   2.480  1.01850E+00  1.01561E+00  2.89725E-03
    9011.360     17.446   2.520  1.02128E+00  1.01401E+00  7.26918E-03
    9012.134     18.220   2.560  1.02272E+00  1.01238E+00  1.03346E-02
    9012.920     19.007   2.600  1.02145E+00  1.01074E+00  1.07076E-02
    9013.719     19.805   2.640  1.01781E+00  1.00911E+00  8.70601E-03
    9014.530     20.616   2.680  1.01307E+00  1.00750E+00  5.57343E-03
    9015.353     21.439   2.720  1.00801E+00  1.00593E+00  2.08011E-03
    9016.188     22.274   2.760  1.00254E+00  1.00440E+00 -1.86432E-03
    9017.035     23.122   2.800  9.96003E-01  1.00293E+00 -6.92262E-03
    9017.895     23.981   2.840  9.87487E-01  1.00153E+00 -1.40387E-02
    9018.766     24.853   2.880  9.76482E-01  1.00023E+00 -2.37456E-02
    9019.650     25.737   2.920  9.63142E-01  9.98994E-01 -3.58523E-02
    9020.546     26.633   2.960  9.48476E-01  9.97869E-01 -4.93936E-02
    9021.455     27.541   3.000  9.33660E-01  9.96835E-01 -6.31752E-02
    9022.375     28.462   3.040  9.19903E-01  9.95916E-01 -7.60131E-02
    9023.308     29.394   3.080  9.07896E-01  9.95113E-01 -8.72171E-02
    9024.253     30.339   3.120  8.97635E-01  9.94408E-01 -9.67727E-02
    9025.210     31.296   3.160  8.88839E-01  9.93821E-01 -1.04982E-01
    9026.179     32.266   3.200  8.81427E-01  9.93355E-01 -1.11929E-01
    9027.161     33.247   3.240  8.75250E-01  9.93010E-01 -1.17760E-01
    9028.154     34.241   3.280  8.70314E-01  9.92786E-01 -1.22472E-01
    9029.160     35.246   3.320  8.66906E-01  9.92682E-01 -1.25776E-01
    9030.178     36.264   3.360  8.65555E-01  9.92698E-01 -1.27143E-01
    9031.208     37.295   3.400  8.66750E-01  9.92811E-01 -1.26060E-01
    9032.251     38.337   3.440  8.70993E-01  9.93041E-01 -1.22048E-01
    9033.305     39.392   3.480  8.78528E-01  9.93387E-01 -1.14858E-01
    9034.372     40.459   3.520  8.89123E-01  9.93826E-01 -1.04703E-01
    9035.451     41.537   3.560  9.02205E-01  9.94380E-01 -9.21749E-02
    9036.542     42.629   3.600  9.17095E-01  9.95024E-01 -7.79291E-02
    9037.646     43.732   3.640  9.33160E-01  9.95777E-01 -6.26169E-02
    9038.761     44.848   3.680  9.49854E-01  9.96615E-01 -4.67613E-02
    9039.889     45.975   3.720  9.66921E-01  9.97535E-01 -3.06140E-02
    9041.029     47.115   3.760  9.84335E-01  9.98513E-01 -1.41782E-02
    9042.181     48.267   3.800  1.00216E+00  9.99589E-01  2.56674E-03
    9043.345     49.432   3.840  1.02022E+00  1.00072E+00  1.95069E-02
    9044.522     50.608   3.880  1.03830E+00  1.00189E+00  3.64053E-02
    9045.711     51.797   3.920  1.05587E+00  1.00314E+00  5.27288E-02
    9046.912     52.998   3.960  1.07206E+00  1.00443E+00  6.76294E-02
    9048.125     54.211   4.000  1.08601E+00  1.00579E+00  8.02220E-02
    9049.350     55.436   4.040  1.09684E+00  1.00713E+00  8.97096E-02
    9050.587     56.674   4.080  1.10409E+00  1.00854E+00  9.55561E-02
    9051.837     57.923   4.120  1.10763E+00  1.00994E+00  9.76905E-02
    9053.099     59.185   4.160  1.10781E+00  1.01136E+00  9.64522E-02
    9054.373     60.459   4.200  1.10526E+00  1.01277E+00  9.24832E-02
    9055.659     61.746   4.240  1.10082E+00  1.01421E+00  8.66124E-02
    9056.958     63.044   4.280  1.09555E+00  1.01562E+00  7.99369E-02
    9058.268     64.355   4.320  1.09048E+00  1.01702E+00  7.34640E-02
    9059.591     65.678   4.360  1.08629E+00  1.01838E+00  6.79041E-02
    9060.926     67.013   4.400  1.08317E+00  1.01971E+00  6.34555E-02
    9062.273     68.360   4.440  1.08078E+00  1.02102E+00  5.97609E-02
    9063.633     69.719   4.480  1.07843E+00  1.02229E+00  5.61385E-02
    9065.004     71.091   4.520  1.07543E+00  1.02349E+00  5.19435E-02
    9066.388     72.475   4.560  1.07145E+00  1.02464E+00  4.68061E-02
    9067.784     73.871   4.600  1.06638E+00  1.02575E+00  4.06328E-02
    9069.192     75.279   4.640  1.06037E+00  1.02678E+00  3.35896E-02
    9070.613     76.699   4.680  1.05373E+00  1.02775E+00  2.59831E-02
    9072.045     78.132   4.720  1.04674E+00  1.02865E+00  1.80936E-02
    9073.490     79.576   4.760  1.03965E+00  1.02947E+00  1.01882E-02
    9074.947     81.033   4.800  1.03272E+00  1.03022E+00  2.49368E-03
    9076.416     82.502   4.840  1.02608E+00  1.03088E+00 -4.79930E-03
    9077.897     83.984   4.880  1.01988E+00  1.03144E+00 -1.15609E-02
    9079.391     85.477   4.920  1.01419E+00  1.03195E+00 -1.77610E-02
    9080.897     86.983   4.960  1.00892E+00  1.03235E+00 -2.34326E-02
    9082.415     88.501   5.000  1.00408E+00  1.03266E+00 -2.85845E-02
    9083.945     90.031   5.040  9.99678E-01  1.03289E+00 -3.32082E-02
    9085.487     91.573   5.080  9.95771E-01  1.03303E+00 -3.72574E-02
    9087.041     93.128   5.120  9.92366E-01  1.03309E+00 -4.07190E-02
    9088.608     94.694   5.160  9.89451E-01  1.03306E+00 -4.36056E-02
    9090.187     96.273   5.200  9.87046E-01  1.03294E+00 -4.58977E-02
    9091.778     97.864   5.240  9.85185E-01  1.03272E+00 -4.75386E-02
    9093.381     99.468   5.280  9.83991E-01  1.03244E+00 -4.84529E-02
    9094.997    101.083   5.320  9.83417E-01  1.03209E+00 -4.86706E-02
    9096.624    102.711   5.360  9.83331E-01  1.03167E+00 -4.83423E-02
    9098.264    104.350   5.400  9.83420E-01  1.03116E+00 -4.77405E-02
    9099.916    106.002   5.440  9.83515E-01  1.03062E+00 -4.71005E-02
    9101.580    107.667   5.480  9.83455E-01  1.02997E+00 -4.65192E-02
    9103.257    109.343   5.520  9.83460E-01  1.02928E+00 -4.58234E-02
    9104.945    111.032   5.560  9.83915E-01  1.02855E+00 -4.46319E-02
    9106.646    112.732   5.600  9.85230E-01  1.02777E+00 -4.25358E-02
    9108.359    114.445   5.640  9.87635E-01  1.02694E+00 -3.93068E-02
    9110.084    116.171   5.680  9.91108E-01  1.02605E+00 -3.49460E-02
    9111.821    117.908   5.720  9.95555E-01  1.02515E+00 -2.95974E-02
    9113.571    119.657   5.760  1.00078E+00  1.02422E+00 -2.34385E-02
    9115.333    121.419   5.800  1.00660E+00  1.02328E+00 -1.66705E-02
    9117.107    123.193   5.840  1.01279E+00  1.02231E+00 -9.51492E-03
    9118.893    124.979   5.880  1.01913E+00  1.02134E+00 -2.20648E-03
    9120.691    126.778   5.920  1.02540E+00  1.02035E+00  5.05227E-03
    9122.502    128.588   5.960  1.03147E+00  1.01938E+00  1.20928E-02
    9124.324    130.411   6.000  1.03729E+00  1.01844E+00  1.88554E-02
