# # comment:                                                     FEFF 9.9.1  
# # Source:
# # Structure
# # Reduced
# # space
# # abc:
# # angles:158.089080
# # sites:
# # POT  SCF 100  7.0000   0, screened core-hole, AFOLP (folp(0)= 1.150)
# # Abs   Z=29 Rmt= 1.152 Rnm= 1.276 K  shell
# # Pot 1 Z=38 Rmt= 1.752 Rnm= 1.826
# # Pot 2 Z=29 Rmt= 1.152 Rnm= 1.276
# # Pot 3 Z=50 Rmt= 1.315 Rnm= 1.497
# # Pot 4 Z= 8 Rmt= 1.048 Rnm= 1.118
# # Gam_ch=1.729E+00 H-L exch Vi= 0.000E+00 Vr= 0.000E+00
# # Mu=-8.319E+00eV kf=2.046E+00 Vint=-1.604E+01eV Rs_int= 1.772
# FMS rfms= 9.0000
# # PATH  Rmax=-1.000,  Keep_limit= 0.00, Heap_limit 0.00  Pwcrit= 2.50%
#  S02=0.950  Temp=   0.00  Debye_temp=   0.00  Global_sig2= 0.00000
#  Energy zero shift, vr, vi    0.00000E+00   0.00000E+00
#  Curved wave amplitude ratio filter   4.000%
#     file         sig2 tot  cw amp ratio   deg  nlegs   reff  inp sig2
#     0/   0 paths used
#  xsedge+ 50, used to normalize mu           2.4511E-04
#  -----------------------------------------------------------------------
#  omega    e    k    mu    mu0     chi     @#
    8984.054    -12.129  -1.000  3.64234E-02  5.28954E-02 -1.64720E-02
    8984.353    -11.830  -0.960  3.85658E-02  5.66638E-02 -1.80980E-02
    8984.639    -11.544  -0.920  4.09305E-02  6.08431E-02 -1.99126E-02
    8984.914    -11.269  -0.880  4.35524E-02  6.54928E-02 -2.19404E-02
    8985.176    -11.007  -0.840  4.64730E-02  7.06822E-02 -2.42092E-02
    8985.426    -10.757  -0.800  4.97408E-02  7.64914E-02 -2.67506E-02
    8985.664    -10.520  -0.760  5.34124E-02  8.30123E-02 -2.95999E-02
    8985.889    -10.294  -0.720  5.75527E-02  9.03485E-02 -3.27958E-02
    8986.102    -10.081  -0.680  6.22336E-02  9.86138E-02 -3.63802E-02
    8986.304     -9.879  -0.640  6.75326E-02  1.07928E-01 -4.03957E-02
    8986.493     -9.691  -0.600  7.35269E-02  1.18410E-01 -4.48827E-02
    8986.669     -9.514  -0.560  8.02841E-02  1.30158E-01 -4.98735E-02
    8986.834     -9.349  -0.520  8.78481E-02  1.43231E-01 -5.53831E-02
    8986.986     -9.197  -0.480  9.62183E-02  1.57615E-01 -6.13971E-02
    8987.127     -9.057  -0.440  1.05326E-01  1.73185E-01 -6.78581E-02
    8987.255     -8.929  -0.400  1.15016E-01  1.89670E-01 -7.46538E-02
    8987.370     -8.813  -0.360  1.25037E-01  2.06651E-01 -8.16145E-02
    8987.474     -8.709  -0.320  1.35057E-01  2.23580E-01 -8.85230E-02
    8987.566     -8.618  -0.280  1.44709E-01  2.39850E-01 -9.51405E-02
    8987.645     -8.538  -0.240  1.53636E-01  2.54873E-01 -1.01238E-01
    8987.712     -8.471  -0.200  1.61537E-01  2.68158E-01 -1.06621E-01
    8987.767     -8.416  -0.160  1.68196E-01  2.79341E-01 -1.11146E-01
    8987.809     -8.374  -0.120  1.73473E-01  2.88188E-01 -1.14715E-01
    8987.840     -8.343  -0.080  1.77294E-01  2.94566E-01 -1.17272E-01
    8987.864     -8.319   0.000  1.80404E-01  2.99693E-01 -1.19289E-01
    8987.919     -8.264   0.120  1.87115E-01  3.11258E-01 -1.24143E-01
    8987.962     -8.221   0.160  1.92318E-01  3.20256E-01 -1.27938E-01
    8988.017     -8.167   0.200  1.98948E-01  3.31768E-01 -1.32820E-01
    8988.084     -8.099   0.240  2.06886E-01  3.45652E-01 -1.38766E-01
    8988.163     -8.020   0.280  2.15895E-01  3.61610E-01 -1.45715E-01
    8988.254     -7.929   0.320  2.25706E-01  3.79305E-01 -1.53599E-01
    8988.358     -7.825   0.360  2.35844E-01  3.98243E-01 -1.62399E-01
    8988.474     -7.709   0.400  2.45719E-01  4.17897E-01 -1.72178E-01
    8988.602     -7.581   0.440  2.54609E-01  4.37824E-01 -1.83215E-01
    8988.742     -7.441   0.480  2.61716E-01  4.57625E-01 -1.95908E-01
    8988.894     -7.289   0.520  2.66359E-01  4.77070E-01 -2.10711E-01
    8989.059     -7.124   0.560  2.68088E-01  4.96055E-01 -2.27967E-01
    8989.236     -6.947   0.600  2.66672E-01  5.14547E-01 -2.47875E-01
    8989.425     -6.758   0.640  2.62052E-01  5.32596E-01 -2.70545E-01
    8989.626     -6.557   0.680  2.54555E-01  5.50244E-01 -2.95689E-01
    8989.839     -6.344   0.720  2.45248E-01  5.67561E-01 -3.22314E-01
    8990.065     -6.118   0.760  2.35910E-01  5.84640E-01 -3.48730E-01
    8990.303     -5.881   0.800  2.28435E-01  6.01542E-01 -3.73107E-01
    8990.553     -5.631   0.840  2.24282E-01  6.18294E-01 -3.94012E-01
    8990.815     -5.368   0.880  2.24228E-01  6.34954E-01 -4.10726E-01
    8991.089     -5.094   0.920  2.28438E-01  6.51546E-01 -4.23108E-01
    8991.376     -4.808   0.960  2.36689E-01  6.68040E-01 -4.31351E-01
    8991.674     -4.509   1.000  2.48823E-01  6.84459E-01 -4.35636E-01
    8991.985     -4.198   1.040  2.64851E-01  7.00797E-01 -4.35946E-01
    8992.308     -3.875   1.080  2.84613E-01  7.17021E-01 -4.32408E-01
    8992.643     -3.540   1.120  3.07320E-01  7.33090E-01 -4.25770E-01
    8992.991     -3.192   1.160  3.31048E-01  7.49024E-01 -4.17975E-01
    8993.351     -2.833   1.200  3.52488E-01  7.64731E-01 -4.12243E-01
    8993.722     -2.461   1.240  3.70868E-01  7.80204E-01 -4.09336E-01
    8994.107     -2.077   1.280  3.91167E-01  7.95390E-01 -4.04224E-01
    8994.503     -1.680   1.320  4.20030E-01  8.10277E-01 -3.90246E-01
    8994.911     -1.272   1.360  4.62676E-01  8.24810E-01 -3.62134E-01
    8995.332     -0.851   1.400  5.25601E-01  8.38935E-01 -3.13334E-01
    8995.765     -0.419   1.440  6.12877E-01  8.52658E-01 -2.39782E-01
    8996.210      0.026   1.480  7.09076E-01  8.65928E-01 -1.56852E-01
    8996.667      0.484   1.520  7.64322E-01  8.78712E-01 -1.14390E-01
    8997.136      0.953   1.560  7.49760E-01  8.90978E-01 -1.41218E-01
    8997.618      1.435   1.600  7.03995E-01  9.02738E-01 -1.98743E-01
    8998.112      1.928   1.640  6.69739E-01  9.13922E-01 -2.44183E-01
    8998.618      2.434   1.680  6.68026E-01  9.24546E-01 -2.56520E-01
    8999.136      2.953   1.720  7.06873E-01  9.34606E-01 -2.27733E-01
    8999.666      3.483   1.760  7.92440E-01  9.44055E-01 -1.51615E-01
    9000.209      4.025   1.800  9.24280E-01  9.52936E-01 -2.86553E-02
    9000.763      4.580   1.840  1.07256E+00  9.61228E-01  1.11330E-01
    9001.330      5.147   1.880  1.18700E+00  9.68913E-01  2.18088E-01
    9001.909      5.726   1.920  1.24893E+00  9.76037E-01  2.72890E-01
    9002.501      6.318   1.960  1.26465E+00  9.82582E-01  2.82072E-01
    9003.104      6.921   2.000  1.24474E+00  9.88577E-01  2.56161E-01
    9003.720      7.537   2.040  1.20677E+00  9.94008E-01  2.12764E-01
    9004.348      8.165   2.080  1.17313E+00  9.98924E-01  1.74209E-01
    9004.988      8.805   2.120  1.16592E+00  1.00331E+00  1.62605E-01
    9005.640      9.457   2.160  1.19833E+00  1.00723E+00  1.91102E-01
    9006.305     10.121   2.200  1.27649E+00  1.01066E+00  2.65827E-01
    9006.981     10.798   2.240  1.39927E+00  1.01364E+00  3.85633E-01
    9007.670     11.487   2.280  1.53229E+00  1.01619E+00  5.16101E-01
    9008.371     12.188   2.320  1.59904E+00  1.01834E+00  5.80695E-01
    9009.084     12.901   2.360  1.55272E+00  1.02011E+00  5.32608E-01
    9009.810     13.627   2.400  1.43662E+00  1.02152E+00  4.15105E-01
    9010.547     14.364   2.440  1.30559E+00  1.02259E+00  2.83000E-01
    9011.297     15.114   2.480  1.19618E+00  1.02336E+00  1.72815E-01
    9012.059     15.876   2.520  1.12924E+00  1.02384E+00  1.05393E-01
    9012.833     16.650   2.560  1.08688E+00  1.02405E+00  6.28306E-02
    9013.620     17.437   2.600  1.06095E+00  1.02404E+00  3.69118E-02
    9014.418     18.235   2.640  1.04583E+00  1.02381E+00  2.20226E-02
    9015.229     19.046   2.680  1.03735E+00  1.02336E+00  1.39944E-02
    9016.052     19.869   2.720  1.03233E+00  1.02276E+00  9.57933E-03
    9016.887     20.704   2.760  1.02758E+00  1.02197E+00  5.60599E-03
    9017.735     21.551   2.800  1.02029E+00  1.02107E+00 -7.78778E-04
    9018.594     22.411   2.840  1.00906E+00  1.02003E+00 -1.09763E-02
    9019.466     23.283   2.880  9.94083E-01  1.01890E+00 -2.48147E-02
    9020.350     24.167   2.920  9.76941E-01  1.01768E+00 -4.07355E-02
    9021.246     25.063   2.960  9.59852E-01  1.01638E+00 -5.65264E-02
    9022.154     25.971   3.000  9.44474E-01  1.01503E+00 -7.05554E-02
    9023.075     26.891   3.040  9.31735E-01  1.01364E+00 -8.19010E-02
    9024.007     27.824   3.080  9.22271E-01  1.01221E+00 -8.99351E-02
    9024.952     28.769   3.120  9.16365E-01  1.01077E+00 -9.44011E-02
    9025.909     29.726   3.160  9.13760E-01  1.00930E+00 -9.55387E-02
    9026.878     30.695   3.200  9.14138E-01  1.00785E+00 -9.37139E-02
    9027.860     31.677   3.240  9.17007E-01  1.00641E+00 -8.94031E-02
    9028.854     32.670   3.280  9.21551E-01  1.00498E+00 -8.34250E-02
    9029.859     33.676   3.320  9.26681E-01  1.00358E+00 -7.68954E-02
    9030.877     34.694   3.360  9.31124E-01  1.00223E+00 -7.11112E-02
    9031.908     35.725   3.400  9.33539E-01  1.00091E+00 -6.73733E-02
    9032.950     36.767   3.440  9.32715E-01  9.99634E-01 -6.69193E-02
    9034.005     37.822   3.480  9.27866E-01  9.98423E-01 -7.05573E-02
    9035.071     38.888   3.520  9.19381E-01  9.97260E-01 -7.78795E-02
    9036.150     39.967   3.560  9.08616E-01  9.96170E-01 -8.75533E-02
    9037.242     41.058   3.600  8.97537E-01  9.95153E-01 -9.76159E-02
    9038.345     42.162   3.640  8.88074E-01  9.94190E-01 -1.06116E-01
    9039.461     43.277   3.680  8.81820E-01  9.93303E-01 -1.11484E-01
    9040.588     44.405   3.720  8.79460E-01  9.92494E-01 -1.13034E-01
    9041.728     45.545   3.760  8.81141E-01  9.91763E-01 -1.10622E-01
    9042.880     46.697   3.800  8.86540E-01  9.91110E-01 -1.04570E-01
    9044.045     47.862   3.840  8.94901E-01  9.90516E-01 -9.56153E-02
    9045.221     49.038   3.880  9.05279E-01  9.90023E-01 -8.47445E-02
    9046.410     50.227   3.920  9.16757E-01  9.89609E-01 -7.28519E-02
    9047.611     51.428   3.960  9.28566E-01  9.89253E-01 -6.06867E-02
    9048.824     52.641   4.000  9.40199E-01  9.88998E-01 -4.87987E-02
    9050.049     53.866   4.040  9.51484E-01  9.88801E-01 -3.73170E-02
    9051.287     55.104   4.080  9.62799E-01  9.88705E-01 -2.59052E-02
    9052.536     56.353   4.120  9.74672E-01  9.88664E-01 -1.39918E-02
    9053.798     57.615   4.160  9.87731E-01  9.88701E-01 -9.69885E-04
    9055.072     58.889   4.200  1.00235E+00  9.88814E-01  1.35343E-02
    9056.359     60.175   4.240  1.01854E+00  9.89001E-01  2.95347E-02
    9057.657     61.474   4.280  1.03585E+00  9.89240E-01  4.66145E-02
    9058.968     62.785   4.320  1.05336E+00  9.89528E-01  6.38340E-02
    9060.291     64.107   4.360  1.06970E+00  9.89908E-01  7.97901E-02
    9061.626     65.442   4.400  1.08326E+00  9.90316E-01  9.29447E-02
    9062.973     66.790   4.440  1.09316E+00  9.90791E-01  1.02370E-01
    9064.332     68.149   4.480  1.09904E+00  9.91311E-01  1.07729E-01
    9065.704     69.521   4.520  1.10094E+00  9.91896E-01  1.09048E-01
    9067.088     70.904   4.560  1.09896E+00  9.92500E-01  1.06464E-01
    9068.483     72.300   4.600  1.09334E+00  9.93143E-01  1.00198E-01
    9069.892     73.709   4.640  1.08445E+00  9.93846E-01  9.06012E-02
    9071.312     75.129   4.680  1.07303E+00  9.94561E-01  7.84640E-02
    9072.745     76.561   4.720  1.06041E+00  9.95287E-01  6.51217E-02
    9074.189     78.006   4.760  1.04835E+00  9.96044E-01  5.23079E-02
    9075.646     79.463   4.800  1.03854E+00  9.96832E-01  4.17109E-02
    9077.115     80.932   4.840  1.03213E+00  9.97625E-01  3.45073E-02
    9078.597     82.414   4.880  1.02952E+00  9.98420E-01  3.11024E-02
    9080.090     83.907   4.920  1.03035E+00  9.99215E-01  3.11394E-02
    9081.596     85.413   4.960  1.03363E+00  1.00001E+00  3.36239E-02
    9083.114     86.931   5.000  1.03794E+00  1.00080E+00  3.71418E-02
    9084.644     88.461   5.040  1.04175E+00  1.00159E+00  4.01619E-02
    9086.186     90.003   5.080  1.04361E+00  1.00234E+00  4.12635E-02
    9087.741     91.558   5.120  1.04253E+00  1.00309E+00  3.94343E-02
    9089.307     93.124   5.160  1.03811E+00  1.00381E+00  3.43004E-02
    9090.886     94.703   5.200  1.03067E+00  1.00451E+00  2.61597E-02
    9092.477     96.294   5.240  1.02101E+00  1.00518E+00  1.58291E-02
    9094.080     97.897   5.280  1.01007E+00  1.00583E+00  4.23285E-03
    9095.696     99.513   5.320  9.98630E-01  1.00643E+00 -7.79815E-03
    9097.324    101.140   5.360  9.87502E-01  1.00700E+00 -1.95013E-02
    9098.963    102.780   5.400  9.77342E-01  1.00751E+00 -3.01726E-02
    9100.615    104.432   5.440  9.68706E-01  1.00801E+00 -3.92989E-02
    9102.280    106.096   5.480  9.61839E-01  1.00843E+00 -4.65903E-02
    9103.956    107.773   5.520  9.56950E-01  1.00881E+00 -5.18589E-02
    9105.645    109.461   5.560  9.54131E-01  1.00914E+00 -5.50109E-02
    9107.345    111.162   5.600  9.53277E-01  1.00941E+00 -5.61294E-02
    9109.058    112.875   5.640  9.54023E-01  1.00965E+00 -5.56240E-02
    9110.783    114.600   5.680  9.55668E-01  1.00979E+00 -5.41267E-02
    9112.521    116.338   5.720  9.57648E-01  1.00992E+00 -5.22694E-02
    9114.270    118.087   5.760  9.59515E-01  1.00997E+00 -5.04547E-02
    9116.032    119.849   5.800  9.61065E-01  1.00995E+00 -4.88848E-02
    9117.806    121.623   5.840  9.62292E-01  1.00988E+00 -4.75911E-02
    9119.592    123.409   5.880  9.63410E-01  1.00977E+00 -4.63606E-02
    9121.390    125.207   5.920  9.64900E-01  1.00959E+00 -4.46868E-02
    9123.201    127.018   5.960  9.67436E-01  1.00935E+00 -4.19147E-02
    9125.024    128.841   6.000  9.71623E-01  1.00903E+00 -3.74056E-02
