# # comment:                                                     FEFF 9.9.1  
# # Source:
# # Structure
# # Reduced
# # space
# # abc:
# # angles:145.633241
# # sites:
# # POT  SCF 100  7.0000   0, screened core-hole, AFOLP (folp(0)= 1.150)
# # Abs   Z=29 Rmt= 1.202 Rnm= 1.264 K  shell
# # Pot 1 Z=20 Rmt= 1.637 Rnm= 1.704
# # Pot 2 Z=39 Rmt= 1.478 Rnm= 1.630
# # Pot 3 Z=29 Rmt= 1.202 Rnm= 1.264
# # Pot 4 Z= 8 Rmt= 1.061 Rnm= 1.109
# # Gam_ch=1.729E+00 H-L exch Vi= 0.000E+00 Vr= 0.000E+00
# # Mu=-1.117E+01eV kf=2.002E+00 Vint=-1.955E+01eV Rs_int= 1.812
# FMS rfms= 9.0000
# # PATH  Rmax=-1.000,  Keep_limit= 0.00, Heap_limit 0.00  Pwcrit= 2.50%
#  S02=0.950  Temp=   0.00  Debye_temp=   0.00  Global_sig2= 0.00000
#  Energy zero shift, vr, vi    0.00000E+00   0.00000E+00
#  Curved wave amplitude ratio filter   4.000%
#     file         sig2 tot  cw amp ratio   deg  nlegs   reff  inp sig2
#     0/   0 paths used
#  xsedge+ 50, used to normalize mu           2.4493E-04
#  -----------------------------------------------------------------------
#  omega    e    k    mu    mu0     chi     @#
    8986.468    -14.981  -1.000  3.15416E-02  5.42436E-02 -2.27020E-02
    8986.767    -14.682  -0.960  3.29218E-02  5.81796E-02 -2.52577E-02
    8987.053    -14.395  -0.920  3.43965E-02  6.25518E-02 -2.81554E-02
    8987.327    -14.121  -0.880  3.59778E-02  6.74245E-02 -3.14467E-02
    8987.590    -13.859  -0.840  3.76804E-02  7.28719E-02 -3.51915E-02
    8987.839    -13.609  -0.800  3.95218E-02  7.89804E-02 -3.94587E-02
    8988.077    -13.371  -0.760  4.15222E-02  8.58490E-02 -4.43268E-02
    8988.303    -13.146  -0.720  4.37050E-02  9.35893E-02 -4.98843E-02
    8988.516    -12.932  -0.680  4.60965E-02  1.02324E-01 -5.62279E-02
    8988.717    -12.731  -0.640  4.87250E-02  1.12184E-01 -6.34591E-02
    8988.906    -12.542  -0.600  5.16186E-02  1.23296E-01 -7.16770E-02
    8989.083    -12.365  -0.560  5.48020E-02  1.35768E-01 -8.09656E-02
    8989.248    -12.201  -0.520  5.82908E-02  1.49665E-01 -9.13737E-02
    8989.400    -12.048  -0.480  6.20834E-02  1.64971E-01 -1.02888E-01
    8989.540    -11.908  -0.440  6.61522E-02  1.81554E-01 -1.15402E-01
    8989.668    -11.780  -0.400  7.04349E-02  1.99125E-01 -1.28690E-01
    8989.784    -11.664  -0.360  7.48314E-02  2.17231E-01 -1.42400E-01
    8989.888    -11.561  -0.320  7.92086E-02  2.35285E-01 -1.56077E-01
    8989.979    -11.469  -0.280  8.34149E-02  2.52635E-01 -1.69220E-01
    8990.058    -11.390  -0.240  8.73009E-02  2.68651E-01 -1.81350E-01
    8990.125    -11.323  -0.200  9.07386E-02  2.82808E-01 -1.92070E-01
    8990.180    -11.268  -0.160  9.36329E-02  2.94719E-01 -2.01086E-01
    8990.223    -11.225  -0.120  9.59237E-02  3.04137E-01 -2.08213E-01
    8990.254    -11.195  -0.080  9.75792E-02  3.10922E-01 -2.13343E-01
    8990.278    -11.171   0.000  9.89264E-02  3.16375E-01 -2.17448E-01
    8990.333    -11.116   0.120  1.01921E-01  3.28679E-01 -2.26758E-01
    8990.375    -11.073   0.160  1.04174E-01  3.38229E-01 -2.34055E-01
    8990.430    -11.018   0.200  1.07000E-01  3.50459E-01 -2.43459E-01
    8990.497    -10.951   0.240  1.10261E-01  3.65146E-01 -2.54885E-01
    8990.577    -10.872   0.280  1.13821E-01  3.82045E-01 -2.68225E-01
    8990.668    -10.780   0.320  1.17427E-01  4.00716E-01 -2.83289E-01
    8990.772    -10.677   0.360  1.20734E-01  4.20614E-01 -2.99880E-01
    8990.887    -10.561   0.400  1.23498E-01  4.41202E-01 -3.17704E-01
    8991.015    -10.433   0.440  1.25445E-01  4.61928E-01 -3.36483E-01
    8991.156    -10.293   0.480  1.26626E-01  4.82419E-01 -3.55793E-01
    8991.308    -10.140   0.520  1.27208E-01  5.02383E-01 -3.75175E-01
    8991.473     -9.976   0.560  1.27549E-01  5.21701E-01 -3.94152E-01
    8991.649     -9.799   0.600  1.28005E-01  5.40362E-01 -4.12357E-01
    8991.838     -9.610   0.640  1.28785E-01  5.58400E-01 -4.29614E-01
    8992.040     -9.409   0.680  1.29939E-01  5.75863E-01 -4.45925E-01
    8992.253     -9.196   0.720  1.31554E-01  5.92877E-01 -4.61323E-01
    8992.479     -8.970   0.760  1.33853E-01  6.09500E-01 -4.75647E-01
    8992.716     -8.732   0.800  1.37395E-01  6.25783E-01 -4.88388E-01
    8992.966     -8.482   0.840  1.42905E-01  6.41828E-01 -4.98922E-01
    8993.228     -8.220   0.880  1.51011E-01  6.57657E-01 -5.06645E-01
    8993.503     -7.946   0.920  1.62009E-01  6.73282E-01 -5.11273E-01
    8993.789     -7.659   0.960  1.76014E-01  6.88743E-01 -5.12730E-01
    8994.088     -7.361   1.000  1.92902E-01  7.04051E-01 -5.11149E-01
    8994.399     -7.050   1.040  2.12560E-01  7.19185E-01 -5.06625E-01
    8994.722     -6.727   1.080  2.34669E-01  7.34137E-01 -4.99468E-01
    8995.057     -6.391   1.120  2.58045E-01  7.48874E-01 -4.90829E-01
    8995.405     -6.044   1.160  2.81079E-01  7.63419E-01 -4.82340E-01
    8995.764     -5.684   1.200  3.02100E-01  7.77712E-01 -4.75612E-01
    8996.136     -5.312   1.240  3.19536E-01  7.91727E-01 -4.72191E-01
    8996.520     -4.928   1.280  3.34942E-01  8.05458E-01 -4.70516E-01
    8996.916     -4.532   1.320  3.54888E-01  8.18858E-01 -4.63970E-01
    8997.325     -4.124   1.360  3.85954E-01  8.31897E-01 -4.45944E-01
    8997.745     -3.703   1.400  4.31475E-01  8.44547E-01 -4.13073E-01
    8998.178     -3.270   1.440  4.93200E-01  8.56798E-01 -3.63599E-01
    8998.623     -2.825   1.480  5.71762E-01  8.68623E-01 -2.96861E-01
    8999.080     -2.368   1.520  6.64784E-01  8.79994E-01 -2.15210E-01
    8999.550     -1.899   1.560  7.68935E-01  8.90884E-01 -1.21949E-01
    9000.031     -1.417   1.600  8.89905E-01  9.01286E-01 -1.13816E-02
    9000.525     -0.923   1.640  1.04050E+00  9.11177E-01  1.29322E-01
    9001.031     -0.417   1.680  1.21267E+00  9.20574E-01  2.92092E-01
    9001.549      0.101   1.720  1.36569E+00  9.29456E-01  4.36229E-01
    9002.080      0.631   1.760  1.48011E+00  9.37822E-01  5.42285E-01
    9002.622      1.174   1.800  1.58733E+00  9.45650E-01  6.41684E-01
    9003.177      1.728   1.840  1.71259E+00  9.52987E-01  7.59601E-01
    9003.744      2.295   1.880  1.81472E+00  9.59794E-01  8.54931E-01
    9004.323      2.874   1.920  1.79367E+00  9.66094E-01  8.27573E-01
    9004.914      3.466   1.960  1.64605E+00  9.71896E-01  6.74150E-01
    9005.518      4.069   2.000  1.48351E+00  9.77225E-01  5.06284E-01
    9006.134      4.685   2.040  1.36186E+00  9.82089E-01  3.79773E-01
    9006.761      5.313   2.080  1.28151E+00  9.86496E-01  2.95016E-01
    9007.401      5.953   2.120  1.22339E+00  9.90454E-01  2.32939E-01
    9008.054      6.605   2.160  1.17219E+00  9.93994E-01  1.78197E-01
    9008.718      7.270   2.200  1.13114E+00  9.97146E-01  1.33996E-01
    9009.395      7.946   2.240  1.10409E+00  9.99899E-01  1.04187E-01
    9010.084      8.635   2.280  1.08658E+00  1.00230E+00  8.42740E-02
    9010.785      9.336   2.320  1.07225E+00  1.00437E+00  6.78777E-02
    9011.498     10.049   2.360  1.05772E+00  1.00612E+00  5.15996E-02
    9012.223     10.775   2.400  1.04576E+00  1.00756E+00  3.81984E-02
    9012.961     11.512   2.440  1.04874E+00  1.00873E+00  4.00149E-02
    9013.711     12.262   2.480  1.06197E+00  1.00963E+00  5.23398E-02
    9014.473     13.024   2.520  1.07772E+00  1.01030E+00  6.74230E-02
    9015.247     13.798   2.560  1.08990E+00  1.01075E+00  7.91535E-02
    9016.033     14.585   2.600  1.09356E+00  1.01100E+00  8.25662E-02
    9016.832     15.383   2.640  1.08712E+00  1.01107E+00  7.60490E-02
    9017.643     16.194   2.680  1.07129E+00  1.01098E+00  6.03194E-02
    9018.466     17.017   2.720  1.04850E+00  1.01073E+00  3.77690E-02
    9019.301     17.852   2.760  1.02084E+00  1.01037E+00  1.04635E-02
    9020.148     18.700   2.800  9.89483E-01  1.00990E+00 -2.04168E-02
    9021.008     19.559   2.840  9.55859E-01  1.00932E+00 -5.34562E-02
    9021.879     20.431   2.880  9.22000E-01  1.00867E+00 -8.66666E-02
    9022.763     21.315   2.920  8.90040E-01  1.00794E+00 -1.17901E-01
    9023.659     22.211   2.960  8.61739E-01  1.00714E+00 -1.45405E-01
    9024.568     23.119   3.000  8.37932E-01  1.00633E+00 -1.68393E-01
    9025.488     24.040   3.040  8.18723E-01  1.00547E+00 -1.86745E-01
    9026.421     24.972   3.080  8.04119E-01  1.00458E+00 -2.00457E-01
    9027.366     25.917   3.120  7.94353E-01  1.00368E+00 -2.09324E-01
    9028.323     26.874   3.160  7.88901E-01  1.00277E+00 -2.13872E-01
    9029.292     27.844   3.200  7.87359E-01  1.00187E+00 -2.14514E-01
    9030.274     28.825   3.240  7.89306E-01  1.00100E+00 -2.11694E-01
    9031.267     29.819   3.280  7.94163E-01  1.00013E+00 -2.05970E-01
    9032.273     30.825   3.320  8.01509E-01  9.99299E-01 -1.97789E-01
    9033.291     31.843   3.360  8.11276E-01  9.98479E-01 -1.87203E-01
    9034.321     32.873   3.400  8.23820E-01  9.97718E-01 -1.73898E-01
    9035.364     33.915   3.440  8.39310E-01  9.96976E-01 -1.57666E-01
    9036.418     34.970   3.480  8.58288E-01  9.96296E-01 -1.38007E-01
    9037.485     36.037   3.520  8.80993E-01  9.95660E-01 -1.14667E-01
    9038.564     37.116   3.560  9.07184E-01  9.95070E-01 -8.78857E-02
    9039.655     38.207   3.600  9.36049E-01  9.94547E-01 -5.84983E-02
    9040.759     39.310   3.640  9.66124E-01  9.94072E-01 -2.79480E-02
    9041.874     40.426   3.680  9.95379E-01  9.93645E-01  1.73452E-03
    9043.002     41.553   3.720  1.02172E+00  9.93288E-01  2.84350E-02
    9044.142     42.693   3.760  1.04382E+00  9.93001E-01  5.08184E-02
    9045.294     43.846   3.800  1.06153E+00  9.92764E-01  6.87692E-02
    9046.458     45.010   3.840  1.07571E+00  9.92577E-01  8.31340E-02
    9047.635     46.186   3.880  1.08764E+00  9.92460E-01  9.51752E-02
    9048.824     47.375   3.920  1.09829E+00  9.92414E-01  1.05879E-01
    9050.025     48.576   3.960  1.10800E+00  9.92416E-01  1.15586E-01
    9051.238     49.789   4.000  1.11642E+00  9.92464E-01  1.23959E-01
    9052.463     51.014   4.040  1.12277E+00  9.92581E-01  1.30186E-01
    9053.700     52.252   4.080  1.12611E+00  9.92744E-01  1.33361E-01
    9054.950     53.502   4.120  1.12588E+00  9.92953E-01  1.32926E-01
    9056.212     54.763   4.160  1.12231E+00  9.93227E-01  1.29087E-01
    9057.486     56.037   4.200  1.11613E+00  9.93543E-01  1.22584E-01
    9058.772     57.324   4.240  1.10795E+00  9.93879E-01  1.14075E-01
    9060.071     58.622   4.280  1.09796E+00  9.94277E-01  1.03686E-01
    9061.381     59.933   4.320  1.08570E+00  9.94715E-01  9.09824E-02
    9062.704     61.256   4.360  1.07049E+00  9.95190E-01  7.52992E-02
    9064.039     62.591   4.400  1.05208E+00  9.95678E-01  5.64010E-02
    9065.386     63.938   4.440  1.03138E+00  9.96200E-01  3.51755E-02
    9066.746     65.297   4.480  1.01032E+00  9.96756E-01  1.35648E-02
    9068.117     66.669   4.520  9.91521E-01  9.97343E-01 -5.82254E-03
    9069.501     68.053   4.560  9.77303E-01  9.97916E-01 -2.06128E-02
    9070.897     69.449   4.600  9.69047E-01  9.98514E-01 -2.94670E-02
    9072.305     70.857   4.640  9.66805E-01  9.99139E-01 -3.23349E-02
    9073.726     72.277   4.680  9.69587E-01  9.99747E-01 -3.01597E-02
    9075.158     73.710   4.720  9.75853E-01  1.00038E+00 -2.45236E-02
    9076.603     75.154   4.760  9.83740E-01  1.00100E+00 -1.72633E-02
    9078.060     76.611   4.800  9.91391E-01  1.00160E+00 -1.02135E-02
    9079.529     78.081   4.840  9.97302E-01  1.00220E+00 -4.89872E-03
    9081.010     79.562   4.880  1.00072E+00  1.00279E+00 -2.07304E-03
    9082.504     81.055   4.920  1.00185E+00  1.00338E+00 -1.52652E-03
    9084.010     82.561   4.960  1.00157E+00  1.00393E+00 -2.36141E-03
    9085.527     84.079   5.000  1.00108E+00  1.00447E+00 -3.39146E-03
    9087.058     85.609   5.040  1.00127E+00  1.00498E+00 -3.71439E-03
    9088.600     87.151   5.080  1.00232E+00  1.00548E+00 -3.15528E-03
    9090.154     88.706   5.120  1.00377E+00  1.00592E+00 -2.14820E-03
    9091.721     90.272   5.160  1.00501E+00  1.00634E+00 -1.32871E-03
    9093.300     91.851   5.200  1.00564E+00  1.00672E+00 -1.08627E-03
    9094.891     93.442   5.240  1.00536E+00  1.00709E+00 -1.73419E-03
    9096.494     95.046   5.280  1.00367E+00  1.00739E+00 -3.72095E-03
    9098.110     96.661   5.320  1.00004E+00  1.00765E+00 -7.61876E-03
    9099.737     98.289   5.360  9.94007E-01  1.00788E+00 -1.38693E-02
    9101.377     99.929   5.400  9.85553E-01  1.00808E+00 -2.25255E-02
    9103.029    101.581   5.440  9.75114E-01  1.00822E+00 -3.31027E-02
    9104.693    103.245   5.480  9.63672E-01  1.00831E+00 -4.46374E-02
    9106.370    104.921   5.520  9.52537E-01  1.00836E+00 -5.58224E-02
    9108.058    106.610   5.560  9.43058E-01  1.00837E+00 -6.53079E-02
    9109.759    108.310   5.600  9.36226E-01  1.00831E+00 -7.20808E-02
    9111.472    110.023   5.640  9.32498E-01  1.00823E+00 -7.57284E-02
    9113.197    111.749   5.680  9.31814E-01  1.00808E+00 -7.62687E-02
    9114.934    113.486   5.720  9.34038E-01  1.00792E+00 -7.38809E-02
    9116.684    115.235   5.760  9.38932E-01  1.00769E+00 -6.87593E-02
    9118.446    116.997   5.800  9.46166E-01  1.00742E+00 -6.12573E-02
    9120.220    118.771   5.840  9.55256E-01  1.00714E+00 -5.18848E-02
    9122.006    120.557   5.880  9.65758E-01  1.00680E+00 -4.10378E-02
    9123.804    122.356   5.920  9.77578E-01  1.00641E+00 -2.88362E-02
    9125.615    124.166   5.960  9.90464E-01  1.00600E+00 -1.55312E-02
    9127.437    125.989   6.000  1.00389E+00  1.00554E+00 -1.64940E-03
