# # comment:                                                     FEFF 9.9.1  
# # Source:
# # Structure
# # Reduced
# # space
# # abc:
# # angles:156.396348
# # sites:
# # POT  SCF 100  7.0000   0, screened core-hole, AFOLP (folp(0)= 1.150)
# # Abs   Z=29 Rmt= 1.321 Rnm= 1.389 K  shell
# # Pot 1 Z=38 Rmt= 1.800 Rnm= 1.861
# # Pot 2 Z=29 Rmt= 1.321 Rnm= 1.389
# # Pot 3 Z=16 Rmt= 1.425 Rnm= 1.490
# # Pot 4 Z= 8 Rmt= 1.060 Rnm= 1.117
# # Gam_ch=1.729E+00 H-L exch Vi= 0.000E+00 Vr= 0.000E+00
# # Mu=-6.929E+00eV kf=1.871E+00 Vint=-1.586E+01eV Rs_int= 1.938
# FMS rfms= 9.0000
# # PATH  Rmax=-1.000,  Keep_limit= 0.00, Heap_limit 0.00  Pwcrit= 2.50%
#  S02=0.950  Temp=   0.00  Debye_temp=   0.00  Global_sig2= 0.00000
#  Energy zero shift, vr, vi    0.00000E+00   0.00000E+00
#  Curved wave amplitude ratio filter   4.000%
#     file         sig2 tot  cw amp ratio   deg  nlegs   reff  inp sig2
#     0/   0 paths used
#  xsedge+ 50, used to normalize mu           2.4486E-04
#  -----------------------------------------------------------------------
#  omega    e    k    mu    mu0     chi     @#
    8984.160    -10.739  -1.000  5.63694E-02  6.23215E-02 -5.95216E-03
    8984.459    -10.441  -0.960  6.03043E-02  6.70995E-02 -6.79527E-03
    8984.746    -10.154  -0.920  6.46478E-02  7.24285E-02 -7.78072E-03
    8985.020     -9.880  -0.880  6.94564E-02  7.83910E-02 -8.93468E-03
    8985.282     -9.618  -0.840  7.47951E-02  8.50834E-02 -1.02883E-02
    8985.532     -9.368  -0.800  8.07388E-02  9.26173E-02 -1.18785E-02
    8985.770     -9.130  -0.760  8.73725E-02  1.01121E-01 -1.37486E-02
    8985.995     -8.905  -0.720  9.47913E-02  1.10740E-01 -1.59485E-02
    8986.209     -8.691  -0.680  1.03099E-01  1.21634E-01 -1.85347E-02
    8986.410     -8.490  -0.640  1.12405E-01  1.33972E-01 -2.15677E-02
    8986.599     -8.301  -0.600  1.22814E-01  1.47922E-01 -2.51079E-02
    8986.776     -8.124  -0.560  1.34418E-01  1.63626E-01 -2.92072E-02
    8986.940     -7.960  -0.520  1.47274E-01  1.81169E-01 -3.38954E-02
    8987.093     -7.807  -0.480  1.61375E-01  2.00536E-01 -3.91611E-02
    8987.233     -7.667  -0.440  1.76626E-01  2.21557E-01 -4.49308E-02
    8987.361     -7.539  -0.400  1.92807E-01  2.43860E-01 -5.10535E-02
    8987.477     -7.423  -0.360  2.09564E-01  2.66865E-01 -5.73014E-02
    8987.580     -7.320  -0.320  2.26417E-01  2.89814E-01 -6.33976E-02
    8987.672     -7.228  -0.280  2.42803E-01  3.11868E-01 -6.90648E-02
    8987.751     -7.149  -0.240  2.58142E-01  3.32221E-01 -7.40785E-02
    8987.818     -7.082  -0.200  2.71900E-01  3.50199E-01 -7.82993E-02
    8987.873     -7.027  -0.160  2.83641E-01  3.65314E-01 -8.16724E-02
    8987.915     -6.984  -0.120  2.93053E-01  3.77254E-01 -8.42017E-02
    8987.946     -6.954  -0.080  2.99930E-01  3.85852E-01 -8.59224E-02
    8987.970     -6.929   0.000  3.05578E-01  3.92755E-01 -8.71769E-02
    8988.025     -6.875   0.120  3.17718E-01  4.08311E-01 -9.05931E-02
    8988.068     -6.832   0.160  3.27245E-01  4.20382E-01 -9.31370E-02
    8988.123     -6.777   0.200  3.39485E-01  4.35779E-01 -9.62943E-02
    8988.190     -6.710   0.240  3.54303E-01  4.54278E-01 -9.99752E-02
    8988.269     -6.631   0.280  3.71341E-01  4.75446E-01 -1.04105E-01
    8988.361     -6.539   0.320  3.90076E-01  4.98756E-01 -1.08679E-01
    8988.464     -6.436   0.360  4.09644E-01  5.23441E-01 -1.13798E-01
    8988.580     -6.320   0.400  4.29169E-01  5.48755E-01 -1.19586E-01
    8988.708     -6.192   0.440  4.47975E-01  5.73991E-01 -1.26016E-01
    8988.848     -6.052   0.480  4.66040E-01  5.98641E-01 -1.32602E-01
    8989.001     -5.899   0.520  4.84038E-01  6.22284E-01 -1.38245E-01
    8989.165     -5.735   0.560  5.03374E-01  6.44799E-01 -1.41424E-01
    8989.342     -5.558   0.600  5.25316E-01  6.66083E-01 -1.40767E-01
    8989.531     -5.369   0.640  5.50439E-01  6.86245E-01 -1.35806E-01
    8989.732     -5.168   0.680  5.77654E-01  7.05320E-01 -1.27666E-01
    8989.945     -4.954   0.720  6.04132E-01  7.23443E-01 -1.19311E-01
    8990.171     -4.729   0.760  6.25895E-01  7.40705E-01 -1.14810E-01
    8990.409     -4.491   0.800  6.39846E-01  7.57230E-01 -1.17384E-01
    8990.659     -4.241   0.840  6.45635E-01  7.73082E-01 -1.27447E-01
    8990.921     -3.979   0.880  6.46142E-01  7.88309E-01 -1.42168E-01
    8991.195     -3.705   0.920  6.46341E-01  8.02965E-01 -1.56624E-01
    8991.482     -3.418   0.960  6.51375E-01  8.17107E-01 -1.65732E-01
    8991.780     -3.119   1.000  6.65206E-01  8.30702E-01 -1.65496E-01
    8992.091     -2.809   1.040  6.90825E-01  8.43825E-01 -1.52999E-01
    8992.414     -2.485   1.080  7.30211E-01  8.56421E-01 -1.26210E-01
    8992.750     -2.150   1.120  7.84770E-01  8.68512E-01 -8.37421E-02
    8993.097     -1.803   1.160  8.55104E-01  8.80114E-01 -2.50093E-02
    8993.457     -1.443   1.200  9.38930E-01  8.91177E-01  4.77531E-02
    8993.829     -1.071   1.240  1.02753E+00  9.01731E-01  1.25801E-01
    8994.213     -0.687   1.280  1.10478E+00  9.11764E-01  1.93017E-01
    8994.609     -0.291   1.320  1.15846E+00  9.21241E-01  2.37223E-01
    8995.017      0.118   1.360  1.19382E+00  9.30189E-01  2.63631E-01
    8995.438      0.538   1.400  1.21812E+00  9.38591E-01  2.79530E-01
    8995.871      0.971   1.440  1.21593E+00  9.46454E-01  2.69473E-01
    8996.316      1.416   1.480  1.16774E+00  9.53762E-01  2.13981E-01
    8996.773      1.873   1.520  1.09162E+00  9.60545E-01  1.31075E-01
    8997.242      2.343   1.560  1.02917E+00  9.66788E-01  6.23792E-02
    8997.724      2.824   1.600  1.00387E+00  9.72501E-01  3.13736E-02
    8998.218      3.318   1.640  1.01405E+00  9.77712E-01  3.63414E-02
    8998.724      3.824   1.680  1.04379E+00  9.82451E-01  6.13362E-02
    8999.242      4.342   1.720  1.07272E+00  9.86691E-01  8.60322E-02
    8999.772      4.872   1.760  1.09055E+00  9.90482E-01  1.00069E-01
    9000.315      5.415   1.800  1.10087E+00  9.93834E-01  1.07035E-01
    9000.869      5.970   1.840  1.10277E+00  9.96782E-01  1.05986E-01
    9001.436      6.537   1.880  1.09077E+00  9.99317E-01  9.14555E-02
    9002.015      7.116   1.920  1.07275E+00  1.00149E+00  7.12616E-02
    9002.607      7.707   1.960  1.05655E+00  1.00332E+00  5.32310E-02
    9003.210      8.311   2.000  1.04165E+00  1.00481E+00  3.68325E-02
    9003.826      8.926   2.040  1.02960E+00  1.00600E+00  2.35905E-02
    9004.454      9.554   2.080  1.02610E+00  1.00693E+00  1.91702E-02
    9005.094     10.194   2.120  1.03379E+00  1.00759E+00  2.61973E-02
    9005.746     10.846   2.160  1.04904E+00  1.00802E+00  4.10246E-02
    9006.411     11.511   2.200  1.06622E+00  1.00825E+00  5.79754E-02
    9007.087     12.188   2.240  1.08053E+00  1.00828E+00  7.22488E-02
    9007.776     12.876   2.280  1.08686E+00  1.00816E+00  7.86936E-02
    9008.477     13.577   2.320  1.08494E+00  1.00789E+00  7.70497E-02
    9009.190     14.291   2.360  1.07892E+00  1.00748E+00  7.14358E-02
    9009.916     15.016   2.400  1.06838E+00  1.00698E+00  6.14037E-02
    9010.653     15.754   2.440  1.05427E+00  1.00638E+00  4.78882E-02
    9011.403     16.504   2.480  1.03826E+00  1.00571E+00  3.25555E-02
    9012.165     17.266   2.520  1.02239E+00  1.00496E+00  1.74314E-02
    9012.939     18.040   2.560  1.00861E+00  1.00418E+00  4.42156E-03
    9013.726     18.826   2.600  9.97849E-01  1.00337E+00 -5.51996E-03
    9014.524     19.625   2.640  9.89930E-01  1.00254E+00 -1.26118E-02
    9015.335     20.435   2.680  9.83996E-01  1.00169E+00 -1.76915E-02
    9016.158     21.258   2.720  9.78487E-01  1.00085E+00 -2.23652E-02
    9016.993     22.094   2.760  9.71369E-01  1.00002E+00 -2.86502E-02
    9017.841     22.941   2.800  9.61367E-01  9.99194E-01 -3.78267E-02
    9018.700     23.800   2.840  9.48870E-01  9.98401E-01 -4.95307E-02
    9019.572     24.672   2.880  9.35986E-01  9.97665E-01 -6.16790E-02
    9020.456     25.556   2.920  9.25220E-01  9.96946E-01 -7.17254E-02
    9021.352     26.452   2.960  9.18576E-01  9.96270E-01 -7.76939E-02
    9022.260     27.360   3.000  9.16859E-01  9.95659E-01 -7.88000E-02
    9023.181     28.281   3.040  9.19516E-01  9.95093E-01 -7.55773E-02
    9024.113     29.214   3.080  9.25514E-01  9.94597E-01 -6.90823E-02
    9025.058     30.159   3.120  9.33522E-01  9.94149E-01 -6.06266E-02
    9026.015     31.116   3.160  9.42693E-01  9.93750E-01 -5.10579E-02
    9026.985     32.085   3.200  9.52227E-01  9.93446E-01 -4.12183E-02
    9027.966     33.066   3.240  9.61568E-01  9.93191E-01 -3.16237E-02
    9028.960     34.060   3.280  9.70244E-01  9.92990E-01 -2.27457E-02
    9029.966     35.066   3.320  9.77774E-01  9.92882E-01 -1.51084E-02
    9030.984     36.084   3.360  9.83116E-01  9.92825E-01 -9.70847E-03
    9032.014     37.114   3.400  9.84959E-01  9.92818E-01 -7.85856E-03
    9033.056     38.156   3.440  9.82458E-01  9.92884E-01 -1.04260E-02
    9034.111     39.211   3.480  9.76039E-01  9.93019E-01 -1.69800E-02
    9035.178     40.278   3.520  9.67395E-01  9.93203E-01 -2.58088E-02
    9036.257     41.357   3.560  9.58923E-01  9.93436E-01 -3.45127E-02
    9037.348     42.448   3.600  9.53022E-01  9.93737E-01 -4.07154E-02
    9038.451     43.551   3.640  9.51606E-01  9.94104E-01 -4.24975E-02
    9039.567     44.667   3.680  9.55928E-01  9.94494E-01 -3.85656E-02
    9040.694     45.795   3.720  9.66688E-01  9.94947E-01 -2.82584E-02
    9041.834     46.935   3.760  9.84029E-01  9.95420E-01 -1.13910E-02
    9042.987     48.087   3.800  1.00761E+00  9.95953E-01  1.16573E-02
    9044.151     49.251   3.840  1.03601E+00  9.96523E-01  3.94831E-02
    9045.327     50.428   3.880  1.06623E+00  9.97106E-01  6.91281E-02
    9046.516     51.616   3.920  1.09401E+00  9.97723E-01  9.62904E-02
    9047.717     52.817   3.960  1.11452E+00  9.98350E-01  1.16168E-01
    9048.930     54.030   4.000  1.12433E+00  9.99028E-01  1.25297E-01
    9050.155     55.256   4.040  1.12258E+00  9.99691E-01  1.22887E-01
    9051.393     56.493   4.080  1.11122E+00  1.00038E+00  1.10846E-01
    9052.643     57.743   4.120  1.09398E+00  1.00107E+00  9.29160E-02
    9053.904     59.005   4.160  1.07512E+00  1.00173E+00  7.33863E-02
    9055.178     60.279   4.200  1.05798E+00  1.00242E+00  5.55616E-02
    9056.465     61.565   4.240  1.04410E+00  1.00310E+00  4.09937E-02
    9057.763     62.863   4.280  1.03337E+00  1.00378E+00  2.95836E-02
    9059.074     64.174   4.320  1.02468E+00  1.00443E+00  2.02458E-02
    9060.397     65.497   4.360  1.01666E+00  1.00508E+00  1.15834E-02
    9061.732     66.832   4.400  1.00805E+00  1.00568E+00  2.36827E-03
    9063.079     68.179   4.440  9.98278E-01  1.00628E+00 -8.00285E-03
    9064.438     69.538   4.480  9.87495E-01  1.00684E+00 -1.93488E-02
    9065.810     70.910   4.520  9.76547E-01  1.00739E+00 -3.08440E-02
    9067.194     72.294   4.560  9.66556E-01  1.00788E+00 -4.13228E-02
    9068.590     73.690   4.600  9.58638E-01  1.00835E+00 -4.97107E-02
    9069.998     75.098   4.640  9.53329E-01  1.00878E+00 -5.54505E-02
    9071.418     76.518   4.680  9.50439E-01  1.00917E+00 -5.87315E-02
    9072.851     77.951   4.720  9.49076E-01  1.00952E+00 -6.04425E-02
    9074.295     79.396   4.760  9.48102E-01  1.00982E+00 -6.17228E-02
    9075.752     80.853   4.800  9.46692E-01  1.01009E+00 -6.33974E-02
    9077.222     82.322   4.840  9.44562E-01  1.01031E+00 -6.57490E-02
    9078.703     83.803   4.880  9.41964E-01  1.01049E+00 -6.85229E-02
    9080.196     85.297   4.920  9.39643E-01  1.01060E+00 -7.09548E-02
    9081.702     86.802   4.960  9.38790E-01  1.01069E+00 -7.18965E-02
    9083.220     88.320   5.000  9.40606E-01  1.01071E+00 -7.01062E-02
    9084.750     89.850   5.040  9.46096E-01  1.01071E+00 -6.46183E-02
    9086.292     91.393   5.080  9.55430E-01  1.01065E+00 -5.52216E-02
    9087.847     92.947   5.120  9.67722E-01  1.01055E+00 -4.28255E-02
    9089.413     94.514   5.160  9.81256E-01  1.01042E+00 -2.91678E-02
    9090.992     96.093   5.200  9.94368E-01  1.01024E+00 -1.58679E-02
    9092.583     97.684   5.240  1.00617E+00  1.01001E+00 -3.83924E-03
    9094.187     99.287   5.280  1.01663E+00  1.00976E+00  6.87160E-03
    9095.802    100.902   5.320  1.02636E+00  1.00945E+00  1.69102E-02
    9097.430    102.530   5.360  1.03663E+00  1.00913E+00  2.75063E-02
    9099.069    104.170   5.400  1.04891E+00  1.00876E+00  4.01467E-02
    9100.722    105.822   5.440  1.06400E+00  1.00836E+00  5.56389E-02
    9102.386    107.486   5.480  1.08096E+00  1.00793E+00  7.30295E-02
    9104.062    109.162   5.520  1.09695E+00  1.00748E+00  8.94743E-02
    9105.751    110.851   5.560  1.10867E+00  1.00700E+00  1.01666E-01
    9107.451    112.552   5.600  1.11426E+00  1.00651E+00  1.07746E-01
    9109.164    114.265   5.640  1.11358E+00  1.00599E+00  1.07590E-01
    9110.890    115.990   5.680  1.10715E+00  1.00546E+00  1.01694E-01
    9112.627    117.727   5.720  1.09562E+00  1.00490E+00  9.07229E-02
    9114.376    119.477   5.760  1.08019E+00  1.00434E+00  7.58557E-02
    9116.138    121.238   5.800  1.06220E+00  1.00377E+00  5.84230E-02
    9117.912    123.012   5.840  1.04240E+00  1.00321E+00  3.91861E-02
    9119.698    124.799   5.880  1.02131E+00  1.00263E+00  1.86846E-02
    9121.497    126.597   5.920  1.00052E+00  1.00207E+00 -1.55670E-03
    9123.307    128.407   5.960  9.82661E-01  1.00154E+00 -1.88745E-02
    9125.130    130.230   6.000  9.69485E-01  1.00097E+00 -3.14865E-02
