# # comment:                                                     FEFF 9.9.1  
# # Source:
# # Structure
# # Reduced
# # space
# # abc:
# # angles:
# # sites:
# # POT  SCF 100  7.0000   0, screened core-hole, AFOLP (folp(0)= 1.150)
# # Abs   Z=29 Rmt= 1.120 Rnm= 1.295 K  shell
# # Pot 1 Z= 3 Rmt= 1.226 Rnm= 1.293
# # Pot 2 Z=29 Rmt= 1.120 Rnm= 1.295
# # Pot 3 Z= 8 Rmt= 1.011 Rnm= 1.119
# # Gam_ch=1.729E+00 H-L exch Vi= 0.000E+00 Vr= 0.000E+00
# # Mu=-8.013E+00eV kf=1.999E+00 Vint=-1.677E+01eV Rs_int= 1.814
# FMS rfms= 9.0000
# # PATH  Rmax=-1.000,  Keep_limit= 0.00, Heap_limit 0.00  Pwcrit= 2.50%
#  S02=0.950  Temp=   0.00  Debye_temp=   0.00  Global_sig2= 0.00000
#  Energy zero shift, vr, vi    0.00000E+00   0.00000E+00
#  Curved wave amplitude ratio filter   4.000%
#     file         sig2 tot  cw amp ratio   deg  nlegs   reff  inp sig2
#     0/   0 paths used
#  xsedge+ 50, used to normalize mu           2.4386E-04
#  -----------------------------------------------------------------------
#  omega    e    k    mu    mu0     chi     @#
    8985.034    -11.823  -1.000  4.93183E-02  5.88387E-02 -9.52040E-03
    8985.333    -11.525  -0.960  5.27006E-02  6.31775E-02 -1.04770E-02
    8985.619    -11.238  -0.920  5.64499E-02  6.80014E-02 -1.15515E-02
    8985.893    -10.964  -0.880  6.06202E-02  7.33817E-02 -1.27615E-02
    8986.156    -10.702  -0.840  6.52739E-02  7.94016E-02 -1.41277E-02
    8986.405    -10.452  -0.800  7.04836E-02  8.61573E-02 -1.56737E-02
    8986.643    -10.214  -0.760  7.63321E-02  9.37594E-02 -1.74273E-02
    8986.869     -9.989  -0.720  8.29131E-02  1.02333E-01 -1.94196E-02
    8987.082     -9.775  -0.680  9.03295E-02  1.12015E-01 -2.16850E-02
    8987.283     -9.574  -0.640  9.86898E-02  1.22950E-01 -2.42603E-02
    8987.472     -9.385  -0.600  1.08100E-01  1.35282E-01 -2.71812E-02
    8987.649     -9.208  -0.560  1.18653E-01  1.49131E-01 -3.04780E-02
    8987.814     -9.044  -0.520  1.30403E-01  1.64570E-01 -3.41675E-02
    8987.966     -8.891  -0.480  1.43341E-01  1.81583E-01 -3.82422E-02
    8988.106     -8.751  -0.440  1.57362E-01  2.00021E-01 -4.26586E-02
    8988.234     -8.623  -0.400  1.72234E-01  2.19562E-01 -4.73272E-02
    8988.350     -8.507  -0.360  1.87590E-01  2.39702E-01 -5.21115E-02
    8988.454     -8.404  -0.320  2.02946E-01  2.59786E-01 -5.68404E-02
    8988.545     -8.312  -0.280  2.17753E-01  2.79086E-01 -6.13329E-02
    8988.624     -8.233  -0.240  2.31477E-01  2.96903E-01 -6.54257E-02
    8988.691     -8.166  -0.200  2.43653E-01  3.12649E-01 -6.89952E-02
    8988.746     -8.111  -0.160  2.53930E-01  3.25895E-01 -7.19651E-02
    8988.789     -8.068  -0.120  2.62065E-01  3.36367E-01 -7.43018E-02
    8988.819     -8.038  -0.080  2.67916E-01  3.43911E-01 -7.59957E-02
    8988.844     -8.013   0.000  2.72575E-01  3.49973E-01 -7.73986E-02
    8988.899     -7.959   0.120  2.83557E-01  3.63631E-01 -8.00746E-02
    8988.941     -7.916   0.160  2.92070E-01  3.74268E-01 -8.21987E-02
    8988.996     -7.861   0.200  3.02918E-01  3.87833E-01 -8.49154E-02
    8989.063     -7.794   0.240  3.15924E-01  4.04144E-01 -8.82198E-02
    8989.143     -7.715   0.280  3.30785E-01  4.22897E-01 -9.21117E-02
    8989.234     -7.623   0.320  3.46989E-01  4.43598E-01 -9.66097E-02
    8989.338     -7.520   0.360  3.63863E-01  4.65639E-01 -1.01776E-01
    8989.453     -7.404   0.400  3.80688E-01  4.88391E-01 -1.07703E-01
    8989.581     -7.276   0.440  3.96834E-01  5.11282E-01 -1.14448E-01
    8989.722     -7.136   0.480  4.11970E-01  5.33848E-01 -1.21878E-01
    8989.874     -6.983   0.520  4.26287E-01  5.55785E-01 -1.29498E-01
    8990.039     -6.819   0.560  4.40567E-01  5.76982E-01 -1.36415E-01
    8990.215     -6.642   0.600  4.55764E-01  5.97363E-01 -1.41598E-01
    8990.404     -6.453   0.640  4.72608E-01  6.16989E-01 -1.44382E-01
    8990.606     -6.252   0.680  4.91066E-01  6.35962E-01 -1.44896E-01
    8990.819     -6.038   0.720  5.10388E-01  6.54356E-01 -1.43969E-01
    8991.044     -5.813   0.760  5.29657E-01  6.72286E-01 -1.42629E-01
    8991.282     -5.575   0.800  5.47855E-01  6.89793E-01 -1.41938E-01
    8991.532     -5.325   0.840  5.63845E-01  7.06987E-01 -1.43142E-01
    8991.794     -5.063   0.880  5.76549E-01  7.23880E-01 -1.47331E-01
    8992.069     -4.789   0.920  5.86165E-01  7.40531E-01 -1.54366E-01
    8992.355     -4.502   0.960  5.94813E-01  7.56965E-01 -1.62152E-01
    8992.654     -4.203   1.000  6.05020E-01  7.73155E-01 -1.68134E-01
    8992.965     -3.893   1.040  6.16499E-01  7.89144E-01 -1.72645E-01
    8993.288     -3.569   1.080  6.25091E-01  8.04866E-01 -1.79775E-01
    8993.623     -3.234   1.120  6.26359E-01  8.20351E-01 -1.93992E-01
    8993.971     -2.887   1.160  6.18966E-01  8.35540E-01 -2.16574E-01
    8994.330     -2.527   1.200  6.05002E-01  8.50413E-01 -2.45410E-01
    8994.702     -2.155   1.240  5.88701E-01  8.64964E-01 -2.76263E-01
    8995.086     -1.771   1.280  5.74803E-01  8.79126E-01 -3.04323E-01
    8995.482     -1.375   1.320  5.66397E-01  8.92914E-01 -3.26517E-01
    8995.891     -0.966   1.360  5.64828E-01  9.06255E-01 -3.41426E-01
    8996.311     -0.546   1.400  5.71239E-01  9.19119E-01 -3.47880E-01
    8996.744     -0.113   1.440  5.85450E-01  9.31518E-01 -3.46068E-01
    8997.189      0.332   1.480  6.04663E-01  9.43383E-01 -3.38720E-01
    8997.646      0.789   1.520  6.25406E-01  9.54704E-01 -3.29299E-01
    8998.116      1.259   1.560  6.47943E-01  9.65476E-01 -3.17533E-01
    8998.597      1.740   1.600  6.77785E-01  9.75671E-01 -2.97887E-01
    8999.091      2.234   1.640  7.20746E-01  9.85265E-01 -2.64519E-01
    8999.597      2.740   1.680  7.78948E-01  9.94277E-01 -2.15329E-01
    9000.115      3.258   1.720  8.52986E-01  1.00266E+00 -1.49678E-01
    9000.646      3.788   1.760  9.43148E-01  1.01047E+00 -6.73181E-02
    9001.188      4.331   1.800  1.04461E+00  1.01764E+00  2.69692E-02
    9001.743      4.886   1.840  1.14760E+00  1.02422E+00  1.23376E-01
    9002.310      5.453   1.880  1.23660E+00  1.03018E+00  2.06424E-01
    9002.889      6.032   1.920  1.29569E+00  1.03557E+00  2.60117E-01
    9003.480      6.623   1.960  1.32215E+00  1.04038E+00  2.81773E-01
    9004.084      7.227   2.000  1.32758E+00  1.04463E+00  2.82947E-01
    9004.699      7.842   2.040  1.32600E+00  1.04835E+00  2.77652E-01
    9005.327      8.470   2.080  1.32620E+00  1.05154E+00  2.74658E-01
    9005.967      9.110   2.120  1.32989E+00  1.05421E+00  2.75676E-01
    9006.620      9.762   2.160  1.33440E+00  1.05641E+00  2.77986E-01
    9007.284     10.427   2.200  1.33571E+00  1.05815E+00  2.77558E-01
    9007.961     11.104   2.240  1.33133E+00  1.05947E+00  2.71868E-01
    9008.650     11.792   2.280  1.32109E+00  1.06034E+00  2.60745E-01
    9009.351     12.493   2.320  1.30470E+00  1.06086E+00  2.43841E-01
    9010.064     13.207   2.360  1.27593E+00  1.06101E+00  2.14921E-01
    9010.789     13.932   2.400  1.22487E+00  1.06082E+00  1.64044E-01
    9011.527     14.670   2.440  1.16134E+00  1.06031E+00  1.01030E-01
    9012.277     15.419   2.480  1.11239E+00  1.05954E+00  5.28546E-02
    9013.039     16.181   2.520  1.07848E+00  1.05848E+00  2.00044E-02
    9013.813     16.956   2.560  1.05669E+00  1.05720E+00 -5.04459E-04
    9014.599     17.742   2.600  1.04357E+00  1.05568E+00 -1.21109E-02
    9015.398     18.541   2.640  1.03599E+00  1.05399E+00 -1.79996E-02
    9016.209     19.351   2.680  1.03138E+00  1.05212E+00 -2.07426E-02
    9017.032     20.174   2.720  1.02811E+00  1.05010E+00 -2.19885E-02
    9017.867     21.010   2.760  1.02546E+00  1.04795E+00 -2.24826E-02
    9018.714     21.857   2.800  1.02313E+00  1.04569E+00 -2.25637E-02
    9019.574     22.716   2.840  1.02117E+00  1.04333E+00 -2.21543E-02
    9020.445     23.588   2.880  1.01983E+00  1.04088E+00 -2.10507E-02
    9021.329     24.472   2.920  1.01912E+00  1.03838E+00 -1.92656E-02
    9022.225     25.368   2.960  1.01898E+00  1.03584E+00 -1.68656E-02
    9023.134     26.276   3.000  1.01930E+00  1.03326E+00 -1.39565E-02
    9024.054     27.197   3.040  1.01981E+00  1.03067E+00 -1.08652E-02
    9024.987     28.130   3.080  1.01995E+00  1.02808E+00 -8.13071E-03
    9025.932     29.074   3.120  1.01916E+00  1.02548E+00 -6.32258E-03
    9026.889     30.032   3.160  1.01697E+00  1.02290E+00 -5.93253E-03
    9027.858     31.001   3.200  1.01318E+00  1.02038E+00 -7.19770E-03
    9028.840     31.982   3.240  1.00784E+00  1.01786E+00 -1.00228E-02
    9029.833     32.976   3.280  1.00122E+00  1.01539E+00 -1.41762E-02
    9030.839     33.982   3.320  9.93528E-01  1.01299E+00 -1.94609E-02
    9031.857     35.000   3.360  9.84993E-01  1.01066E+00 -2.56671E-02
    9032.887     36.030   3.400  9.75863E-01  1.00838E+00 -3.25201E-02
    9033.930     37.072   3.440  9.66508E-01  1.00619E+00 -3.96841E-02
    9034.984     38.127   3.480  9.57348E-01  1.00408E+00 -4.67322E-02
    9036.051     39.194   3.520  9.48919E-01  1.00206E+00 -5.31421E-02
    9037.130     40.273   3.560  9.41664E-01  1.00012E+00 -5.84523E-02
    9038.221     41.364   3.600  9.35858E-01  9.98278E-01 -6.24203E-02
    9039.325     42.467   3.640  9.31692E-01  9.96553E-01 -6.48608E-02
    9040.440     43.583   3.680  9.29198E-01  9.94898E-01 -6.56998E-02
    9041.568     44.711   3.720  9.28359E-01  9.93370E-01 -6.50114E-02
    9042.708     45.851   3.760  9.28999E-01  9.91940E-01 -6.29407E-02
    9043.860     47.003   3.800  9.30945E-01  9.90624E-01 -5.96782E-02
    9045.024     48.167   3.840  9.33925E-01  9.89401E-01 -5.54760E-02
    9046.201     49.344   3.880  9.37576E-01  9.88292E-01 -5.07167E-02
    9047.390     50.532   3.920  9.41674E-01  9.87300E-01 -4.56260E-02
    9048.590     51.733   3.960  9.46110E-01  9.86405E-01 -4.02942E-02
    9049.804     52.946   4.000  9.50951E-01  9.85646E-01 -3.46948E-02
    9051.029     54.172   4.040  9.56227E-01  9.84960E-01 -2.87328E-02
    9052.266     55.409   4.080  9.62084E-01  9.84409E-01 -2.23257E-02
    9053.516     56.659   4.120  9.68371E-01  9.83953E-01 -1.55826E-02
    9054.778     57.921   4.160  9.74827E-01  9.83611E-01 -8.78389E-03
    9056.052     59.195   4.200  9.81078E-01  9.83361E-01 -2.28293E-03
    9057.338     60.481   4.240  9.86805E-01  9.83223E-01  3.58283E-03
    9058.637     61.779   4.280  9.91707E-01  9.83174E-01  8.53263E-03
    9059.947     63.090   4.320  9.95670E-01  9.83236E-01  1.24341E-02
    9061.270     64.413   4.360  9.98677E-01  9.83386E-01  1.52913E-02
    9062.605     65.748   4.400  1.00085E+00  9.83621E-01  1.72280E-02
    9063.952     67.095   4.440  1.00245E+00  9.83962E-01  1.84865E-02
    9065.312     68.454   4.480  1.00373E+00  9.84362E-01  1.93646E-02
    9066.683     69.826   4.520  1.00498E+00  9.84843E-01  2.01401E-02
    9068.067     71.210   4.560  1.00648E+00  9.85424E-01  2.10610E-02
    9069.463     72.606   4.600  1.00839E+00  9.86038E-01  2.23562E-02
    9070.871     74.014   4.640  1.01092E+00  9.86747E-01  2.41719E-02
    9072.292     75.434   4.680  1.01404E+00  9.87510E-01  2.65293E-02
    9073.724     76.867   4.720  1.01760E+00  9.88343E-01  2.92613E-02
    9075.169     78.312   4.760  1.02127E+00  9.89222E-01  3.20435E-02
    9076.626     79.769   4.800  1.02471E+00  9.90143E-01  3.45677E-02
    9078.095     81.238   4.840  1.02786E+00  9.91106E-01  3.67521E-02
    9079.576     82.719   4.880  1.03080E+00  9.92110E-01  3.86880E-02
    9081.070     84.213   4.920  1.03365E+00  9.93151E-01  4.05008E-02
    9082.576     85.718   4.960  1.03639E+00  9.94227E-01  4.21587E-02
    9084.093     87.236   5.000  1.03872E+00  9.95313E-01  4.34023E-02
    9085.624     88.766   5.040  1.04026E+00  9.96429E-01  4.38310E-02
    9087.166     90.309   5.080  1.04056E+00  9.97549E-01  4.30129E-02
    9088.720     91.863   5.120  1.03930E+00  9.98670E-01  4.06319E-02
    9090.287     93.430   5.160  1.03639E+00  9.99791E-01  3.66027E-02
    9091.866     95.009   5.200  1.03201E+00  1.00091E+00  3.11035E-02
    9093.457     96.600   5.240  1.02660E+00  1.00200E+00  2.45971E-02
    9095.060     98.203   5.280  1.02082E+00  1.00311E+00  1.77129E-02
    9096.676     99.818   5.320  1.01529E+00  1.00418E+00  1.11032E-02
    9098.303    101.446   5.360  1.01047E+00  1.00522E+00  5.24435E-03
    9099.943    103.086   5.400  1.00656E+00  1.00622E+00  3.36829E-04
    9101.595    104.738   5.440  1.00357E+00  1.00721E+00 -3.64211E-03
    9103.259    106.402   5.480  1.00137E+00  1.00816E+00 -6.79237E-03
    9104.936    108.078   5.520  9.99827E-01  1.00907E+00 -9.24284E-03
    9106.624    109.767   5.560  9.98704E-01  1.00991E+00 -1.12050E-02
    9108.325    111.468   5.600  9.97774E-01  1.01072E+00 -1.29501E-02
    9110.038    113.181   5.640  9.96787E-01  1.01145E+00 -1.46594E-02
    9111.763    114.906   5.680  9.95828E-01  1.01214E+00 -1.63133E-02
    9113.500    116.643   5.720  9.95025E-01  1.01276E+00 -1.77393E-02
    9115.250    118.393   5.760  9.94589E-01  1.01331E+00 -1.87234E-02
    9117.012    120.154   5.800  9.94721E-01  1.01381E+00 -1.90866E-02
    9118.786    121.928   5.840  9.95490E-01  1.01423E+00 -1.87380E-02
    9120.572    123.714   5.880  9.96868E-01  1.01459E+00 -1.77238E-02
    9122.370    125.513   5.920  9.98599E-01  1.01487E+00 -1.62733E-02
    9124.181    127.323   5.960  1.00026E+00  1.01503E+00 -1.47666E-02
    9126.003    129.146   6.000  1.00142E+00  1.01507E+00 -1.36585E-02
