# # comment:                                                     FEFF 9.9.1  
# # Source:
# # Structure
# # Reduced
# # space
# # abc:
# # angles:
# # sites:
# # POT  SCF 100  7.0000   0, screened core-hole, AFOLP (folp(0)= 1.150)
# # Abs   Z=29 Rmt= 1.244 Rnm= 1.300 K  shell
# # Pot 1 Z=13 Rmt= 1.224 Rnm= 1.328
# # Pot 2 Z=29 Rmt= 1.247 Rnm= 1.325
# # Pot 3 Z= 8 Rmt= 0.993 Rnm= 1.075
# # Gam_ch=1.729E+00 H-L exch Vi= 0.000E+00 Vr= 0.000E+00
# # Mu=-8.611E+00eV kf=2.264E+00 Vint=-1.776E+01eV Rs_int= 1.602
# FMS rfms= 9.0000
# # PATH  Rmax=-1.000,  Keep_limit= 0.00, Heap_limit 0.00  Pwcrit= 2.50%
#  S02=0.950  Temp=   0.00  Debye_temp=   0.00  Global_sig2= 0.00000
#  Energy zero shift, vr, vi    0.00000E+00   0.00000E+00
#  Curved wave amplitude ratio filter   4.000%
#     file         sig2 tot  cw amp ratio   deg  nlegs   reff  inp sig2
#     0/   0 paths used
#  xsedge+ 50, used to normalize mu           2.4813E-04
#  -----------------------------------------------------------------------
#  omega    e    k    mu    mu0     chi     @#
    8983.888    -12.421  -1.000  2.96698E-02  4.91610E-02 -1.94912E-02
    8984.187    -12.122  -0.960  3.08325E-02  5.26397E-02 -2.18072E-02
    8984.473    -11.835  -0.920  3.20489E-02  5.64997E-02 -2.44508E-02
    8984.748    -11.561  -0.880  3.33226E-02  6.07970E-02 -2.74744E-02
    8985.010    -11.299  -0.840  3.46579E-02  6.55966E-02 -3.09387E-02
    8985.260    -11.049  -0.800  3.60596E-02  7.09738E-02 -3.49142E-02
    8985.498    -10.811  -0.760  3.75332E-02  7.70151E-02 -3.94819E-02
    8985.723    -10.586  -0.720  3.90848E-02  8.38180E-02 -4.47331E-02
    8985.937    -10.372  -0.680  4.07212E-02  9.14900E-02 -5.07688E-02
    8986.138    -10.171  -0.640  4.24492E-02  1.00145E-01 -5.76954E-02
    8986.327     -9.982  -0.600  4.42750E-02  1.09893E-01 -6.56183E-02
    8986.503     -9.805  -0.560  4.62024E-02  1.20831E-01 -7.46283E-02
    8986.668     -9.641  -0.520  4.82310E-02  1.33013E-01 -8.47821E-02
    8986.820     -9.488  -0.480  5.03530E-02  1.46428E-01 -9.60745E-02
    8986.961     -9.348  -0.440  5.25493E-02  1.60956E-01 -1.08407E-01
    8987.089     -9.220  -0.400  5.47871E-02  1.76347E-01 -1.21560E-01
    8987.204     -9.104  -0.360  5.70188E-02  1.92203E-01 -1.35185E-01
    8987.308     -9.001  -0.320  5.91862E-02  2.08011E-01 -1.48825E-01
    8987.400     -8.909  -0.280  6.12267E-02  2.23199E-01 -1.61973E-01
    8987.479     -8.830  -0.240  6.30828E-02  2.37218E-01 -1.74135E-01
    8987.546     -8.763  -0.200  6.47080E-02  2.49606E-01 -1.84898E-01
    8987.601     -8.708  -0.160  6.60696E-02  2.60028E-01 -1.93958E-01
    8987.643     -8.665  -0.120  6.71469E-02  2.68267E-01 -2.01120E-01
    8987.674     -8.635  -0.080  6.79281E-02  2.74202E-01 -2.06274E-01
    8987.698     -8.611   0.000  6.85742E-02  2.78972E-01 -2.10398E-01
    8987.753     -8.556   0.120  7.00899E-02  2.89720E-01 -2.19630E-01
    8987.796     -8.513   0.160  7.12143E-02  2.98092E-01 -2.26878E-01
    8987.851     -8.458   0.200  7.25968E-02  3.08764E-01 -2.36168E-01
    8987.918     -8.391   0.240  7.42511E-02  3.21612E-01 -2.47361E-01
    8987.997     -8.312   0.280  7.61123E-02  3.36361E-01 -2.60249E-01
    8988.088     -8.220   0.320  7.81636E-02  3.52660E-01 -2.74497E-01
    8988.192     -8.117   0.360  8.03716E-02  3.70027E-01 -2.89655E-01
    8988.308     -8.001   0.400  8.27355E-02  3.87969E-01 -3.05234E-01
    8988.436     -7.873   0.440  8.52790E-02  4.06040E-01 -3.20761E-01
    8988.576     -7.733   0.480  8.80816E-02  4.23892E-01 -3.35811E-01
    8988.728     -7.580   0.520  9.11999E-02  4.41267E-01 -3.50067E-01
    8988.893     -7.416   0.560  9.48167E-02  4.58103E-01 -3.63286E-01
    8989.070     -7.239   0.600  9.90062E-02  4.74332E-01 -3.75326E-01
    8989.259     -7.050   0.640  1.04020E-01  4.90049E-01 -3.86028E-01
    8989.460     -6.849   0.680  1.10023E-01  5.05296E-01 -3.95273E-01
    8989.673     -6.635   0.720  1.17243E-01  5.20169E-01 -4.02926E-01
    8989.899     -6.410   0.760  1.25876E-01  5.34763E-01 -4.08887E-01
    8990.137     -6.172   0.800  1.36039E-01  5.49124E-01 -4.13086E-01
    8990.387     -5.922   0.840  1.47981E-01  5.63329E-01 -4.15347E-01
    8990.649     -5.660   0.880  1.62114E-01  5.77439E-01 -4.15325E-01
    8990.923     -5.386   0.920  1.79049E-01  5.91488E-01 -4.12439E-01
    8991.210     -5.099   0.960  1.99145E-01  6.05477E-01 -4.06332E-01
    8991.508     -4.801   1.000  2.22620E-01  6.19456E-01 -3.96836E-01
    8991.819     -4.490   1.040  2.49899E-01  6.33410E-01 -3.83511E-01
    8992.142     -4.167   1.080  2.81802E-01  6.47355E-01 -3.65553E-01
    8992.477     -3.831   1.120  3.18875E-01  6.61263E-01 -3.42388E-01
    8992.825     -3.484   1.160  3.59055E-01  6.75140E-01 -3.16085E-01
    8993.185     -3.124   1.200  3.93998E-01  6.88968E-01 -2.94970E-01
    8993.556     -2.752   1.240  4.17729E-01  7.02707E-01 -2.84978E-01
    8993.941     -2.368   1.280  4.38674E-01  7.16372E-01 -2.77698E-01
    8994.337     -1.972   1.320  4.67174E-01  7.29918E-01 -2.62744E-01
    8994.745     -1.564   1.360  5.05194E-01  7.43339E-01 -2.38146E-01
    8995.166     -1.143   1.400  5.51552E-01  7.56565E-01 -2.05013E-01
    8995.599     -0.710   1.440  6.04177E-01  7.69628E-01 -1.65451E-01
    8996.044     -0.265   1.480  6.60940E-01  7.82458E-01 -1.21519E-01
    8996.501      0.192   1.520  7.16020E-01  7.95045E-01 -7.90249E-02
    8996.970      0.661   1.560  7.53692E-01  8.07379E-01 -5.36869E-02
    8997.452      1.143   1.600  7.69113E-01  8.19410E-01 -5.02962E-02
    8997.946      1.637   1.640  7.81284E-01  8.31129E-01 -4.98448E-02
    8998.452      2.143   1.680  8.09839E-01  8.42526E-01 -3.26875E-02
    8998.970      2.661   1.720  8.70858E-01  8.53554E-01  1.73033E-02
    8999.500      3.191   1.760  9.73981E-01  8.64226E-01  1.09755E-01
    9000.043      3.734   1.800  1.12318E+00  8.74513E-01  2.48671E-01
    9000.597      4.289   1.840  1.32989E+00  8.84392E-01  4.45501E-01
    9001.164      4.855   1.880  1.56793E+00  8.93857E-01  6.74072E-01
    9001.743      5.435   1.920  1.76669E+00  9.02925E-01  8.63763E-01
    9002.335      6.026   1.960  1.88207E+00  9.11551E-01  9.70519E-01
    9002.938      6.629   2.000  1.88447E+00  9.19733E-01  9.64734E-01
    9003.554      7.245   2.040  1.78337E+00  9.27514E-01  8.55851E-01
    9004.182      7.873   2.080  1.61910E+00  9.34853E-01  6.84244E-01
    9004.822      8.513   2.120  1.44107E+00  9.41748E-01  4.99323E-01
    9005.474      9.165   2.160  1.29305E+00  9.48222E-01  3.44830E-01
    9006.139      9.830   2.200  1.18000E+00  9.54259E-01  2.25741E-01
    9006.815     10.506   2.240  1.09110E+00  9.59901E-01  1.31201E-01
    9007.504     11.195   2.280  1.01115E+00  9.65113E-01  4.60360E-02
    9008.205     11.896   2.320  9.33156E-01  9.69920E-01 -3.67646E-02
    9008.918     12.610   2.360  8.68676E-01  9.74348E-01 -1.05672E-01
    9009.644     13.335   2.400  8.30408E-01  9.78403E-01 -1.47995E-01
    9010.381     14.073   2.440  8.24392E-01  9.82091E-01 -1.57699E-01
    9011.131     14.822   2.480  8.46158E-01  9.85418E-01 -1.39260E-01
    9011.893     15.584   2.520  8.82724E-01  9.88411E-01 -1.05688E-01
    9012.667     16.359   2.560  9.24414E-01  9.91078E-01 -6.66646E-02
    9013.454     17.145   2.600  9.70803E-01  9.93427E-01 -2.26242E-02
    9014.252     17.944   2.640  1.01681E+00  9.95486E-01  2.13197E-02
    9015.063     18.754   2.680  1.03837E+00  9.97261E-01  4.11123E-02
    9015.886     19.577   2.720  1.02304E+00  9.98783E-01  2.42534E-02
    9016.721     20.412   2.760  9.84418E-01  1.00006E+00 -1.56402E-02
    9017.569     21.260   2.800  9.39134E-01  1.00109E+00 -6.19605E-02
    9018.428     22.119   2.840  8.97094E-01  1.00192E+00 -1.04826E-01
    9019.300     22.991   2.880  8.62606E-01  1.00254E+00 -1.39936E-01
    9020.184     23.875   2.920  8.36522E-01  1.00297E+00 -1.66446E-01
    9021.080     24.771   2.960  8.18235E-01  1.00322E+00 -1.84990E-01
    9021.988     25.679   3.000  8.07117E-01  1.00332E+00 -1.96204E-01
    9022.909     26.600   3.040  8.01682E-01  1.00329E+00 -2.01603E-01
    9023.841     27.533   3.080  8.00791E-01  1.00312E+00 -2.02332E-01
    9024.786     28.477   3.120  8.03837E-01  1.00282E+00 -1.98982E-01
    9025.743     29.434   3.160  8.10381E-01  1.00244E+00 -1.92062E-01
    9026.712     30.404   3.200  8.19866E-01  1.00196E+00 -1.82092E-01
    9027.694     31.385   3.240  8.31741E-01  1.00139E+00 -1.69650E-01
    9028.688     32.379   3.280  8.45337E-01  1.00075E+00 -1.55410E-01
    9029.693     33.385   3.320  8.59989E-01  1.00005E+00 -1.40064E-01
    9030.711     34.403   3.360  8.75764E-01  9.99314E-01 -1.23551E-01
    9031.742     35.433   3.400  8.93304E-01  9.98535E-01 -1.05231E-01
    9032.784     36.475   3.440  9.13238E-01  9.97719E-01 -8.44810E-02
    9033.839     37.530   3.480  9.35887E-01  9.96892E-01 -6.10057E-02
    9034.905     38.597   3.520  9.60984E-01  9.96058E-01 -3.50739E-02
    9035.984     39.676   3.560  9.87690E-01  9.95198E-01 -7.50845E-03
    9037.076     40.767   3.600  1.01491E+00  9.94337E-01  2.05722E-02
    9038.179     41.870   3.640  1.04165E+00  9.93500E-01  4.81481E-02
    9039.295     42.986   3.680  1.06647E+00  9.92669E-01  7.38054E-02
    9040.422     44.114   3.720  1.08760E+00  9.91866E-01  9.57388E-02
    9041.562     45.254   3.760  1.10340E+00  9.91072E-01  1.12324E-01
    9042.714     46.406   3.800  1.11248E+00  9.90289E-01  1.22193E-01
    9043.879     47.570   3.840  1.11381E+00  9.89564E-01  1.24244E-01
    9045.055     48.747   3.880  1.10710E+00  9.88876E-01  1.18224E-01
    9046.244     49.935   3.920  1.09327E+00  9.88205E-01  1.05069E-01
    9047.445     51.136   3.960  1.07476E+00  9.87595E-01  8.71654E-02
    9048.658     52.349   4.000  1.05495E+00  9.87003E-01  6.79429E-02
    9049.883     53.575   4.040  1.03745E+00  9.86474E-01  5.09729E-02
    9051.121     54.812   4.080  1.02503E+00  9.85989E-01  3.90446E-02
    9052.370     56.062   4.120  1.01914E+00  9.85548E-01  3.35918E-02
    9053.632     57.324   4.160  1.01955E+00  9.85169E-01  3.43773E-02
    9054.906     58.598   4.200  1.02441E+00  9.84815E-01  3.95933E-02
    9056.193     59.884   4.240  1.03110E+00  9.84526E-01  4.65707E-02
    9057.491     61.182   4.280  1.03729E+00  9.84303E-01  5.29855E-02
    9058.802     62.493   4.320  1.04177E+00  9.84103E-01  5.76673E-02
    9060.125     63.816   4.360  1.04438E+00  9.83967E-01  6.04125E-02
    9061.460     65.151   4.400  1.04524E+00  9.83874E-01  6.13652E-02
    9062.807     66.498   4.440  1.04442E+00  9.83822E-01  6.06022E-02
    9064.166     67.857   4.480  1.04187E+00  9.83811E-01  5.80585E-02
    9065.538     69.229   4.520  1.03744E+00  9.83840E-01  5.35977E-02
    9066.922     70.613   4.560  1.03089E+00  9.83912E-01  4.69802E-02
    9068.318     72.009   4.600  1.02191E+00  9.84044E-01  3.78640E-02
    9069.726     73.417   4.640  1.01036E+00  9.84195E-01  2.61618E-02
    9071.146     74.837   4.680  9.96802E-01  9.84381E-01  1.24209E-02
    9072.579     76.270   4.720  9.82437E-01  9.84606E-01 -2.16882E-03
    9074.023     77.715   4.760  9.68674E-01  9.84867E-01 -1.61926E-02
    9075.480     79.172   4.800  9.56640E-01  9.85161E-01 -2.85214E-02
    9076.949     80.641   4.840  9.46902E-01  9.85467E-01 -3.85655E-02
    9078.431     82.122   4.880  9.39667E-01  9.85804E-01 -4.61368E-02
    9079.924     83.615   4.920  9.34711E-01  9.86149E-01 -5.14385E-02
    9081.430     85.121   4.960  9.31442E-01  9.86523E-01 -5.50814E-02
    9082.948     86.639   5.000  9.29172E-01  9.86902E-01 -5.77309E-02
    9084.478     88.169   5.040  9.27730E-01  9.87286E-01 -5.95560E-02
    9086.020     89.711   5.080  9.27898E-01  9.87693E-01 -5.97954E-02
    9087.575     91.266   5.120  9.30845E-01  9.88081E-01 -5.72352E-02
    9089.141     92.833   5.160  9.37268E-01  9.88489E-01 -5.12210E-02
    9090.720     94.411   5.200  9.46565E-01  9.88875E-01 -4.23101E-02
    9092.311     96.002   5.240  9.56986E-01  9.89280E-01 -3.22940E-02
    9093.915     97.606   5.280  9.66057E-01  9.89659E-01 -2.36020E-02
    9095.530     99.221   5.320  9.71554E-01  9.90033E-01 -1.84788E-02
    9097.158    100.849   5.360  9.72280E-01  9.90401E-01 -1.81209E-02
    9098.797    102.489   5.400  9.68518E-01  9.90738E-01 -2.22207E-02
    9100.449    104.141   5.440  9.61843E-01  9.91066E-01 -2.92228E-02
    9102.114    105.805   5.480  9.54270E-01  9.91362E-01 -3.70917E-02
    9103.790    107.481   5.520  9.47726E-01  9.91648E-01 -4.39210E-02
    9105.479    109.170   5.560  9.43758E-01  9.91898E-01 -4.81401E-02
    9107.179    110.871   5.600  9.43482E-01  9.92112E-01 -4.86300E-02
    9108.892    112.584   5.640  9.47410E-01  9.92312E-01 -4.49024E-02
    9110.617    114.309   5.680  9.55238E-01  9.92453E-01 -3.72150E-02
    9112.355    116.046   5.720  9.65989E-01  9.92578E-01 -2.65893E-02
    9114.104    117.796   5.760  9.78012E-01  9.92667E-01 -1.46557E-02
    9115.866    119.557   5.800  9.89516E-01  9.92718E-01 -3.20215E-03
    9117.640    121.331   5.840  9.99346E-01  9.92730E-01  6.61569E-03
    9119.426    123.117   5.880  1.00755E+00  9.92729E-01  1.48227E-02
    9121.224    124.916   5.920  1.01488E+00  9.92664E-01  2.22174E-02
    9123.035    126.726   5.960  1.02189E+00  9.92555E-01  2.93370E-02
    9124.858    128.549   6.000  1.02834E+00  9.92384E-01  3.59558E-02
