# # comment:                                                     FEFF 9.9.1  
# # Source:
# # Structure
# # Reduced
# # space
# # abc:
# # angles:
# # sites:
# # POT  SCF 100  7.0000   0, screened core-hole, AFOLP (folp(0)= 1.150)
# # Abs   Z=29 Rmt= 1.336 Rnm= 1.396 K  shell
# # Pot 1 Z= 3 Rmt= 1.242 Rnm= 1.302
# # Pot 2 Z=29 Rmt= 1.337 Rnm= 1.397
# # Pot 3 Z=15 Rmt= 0.946 Rnm= 1.157
# # Pot 4 Z= 8 Rmt= 0.938 Rnm= 1.042
# # Gam_ch=1.729E+00 H-L exch Vi= 0.000E+00 Vr= 0.000E+00
# # Mu=-6.578E+00eV kf=2.366E+00 Vint=-1.760E+01eV Rs_int= 1.533
# FMS rfms= 9.0000
# # PATH  Rmax=-1.000,  Keep_limit= 0.00, Heap_limit 0.00  Pwcrit= 2.50%
#  S02=0.950  Temp=   0.00  Debye_temp=   0.00  Global_sig2= 0.00000
#  Energy zero shift, vr, vi    0.00000E+00   0.00000E+00
#  Curved wave amplitude ratio filter   4.000%
#     file         sig2 tot  cw amp ratio   deg  nlegs   reff  inp sig2
#     0/   0 paths used
#  xsedge+ 50, used to normalize mu           2.4673E-04
#  -----------------------------------------------------------------------
#  omega    e    k    mu    mu0     chi     @#
    8983.777    -10.388  -1.000  5.02490E-02  5.48106E-02 -4.56161E-03
    8984.075    -10.089  -0.960  5.35631E-02  5.88252E-02 -5.26209E-03
    8984.362     -9.803  -0.920  5.72104E-02  6.32909E-02 -6.08046E-03
    8984.636     -9.528  -0.880  6.12365E-02  6.82746E-02 -7.03809E-03
    8984.898     -9.266  -0.840  6.56939E-02  7.38543E-02 -8.16040E-03
    8985.148     -9.016  -0.800  7.06432E-02  8.01207E-02 -9.47751E-03
    8985.386     -8.778  -0.760  7.61530E-02  8.71778E-02 -1.10248E-02
    8985.612     -8.553  -0.720  8.23001E-02  9.51431E-02 -1.28430E-02
    8985.825     -8.340  -0.680  8.91680E-02  1.04146E-01 -1.49784E-02
    8986.026     -8.138  -0.640  9.68441E-02  1.14325E-01 -1.74808E-02
    8986.215     -7.949  -0.600  1.05413E-01  1.25813E-01 -2.04006E-02
    8986.392     -7.773  -0.560  1.14944E-01  1.38727E-01 -2.37825E-02
    8986.556     -7.608  -0.520  1.25479E-01  1.53135E-01 -2.76555E-02
    8986.709     -7.456  -0.480  1.37003E-01  1.69022E-01 -3.20192E-02
    8986.849     -7.315  -0.440  1.49423E-01  1.86250E-01 -3.68272E-02
    8986.977     -7.187  -0.400  1.62542E-01  2.04516E-01 -4.19745E-02
    8987.093     -7.072  -0.360  1.76051E-01  2.23346E-01 -4.72945E-02
    8987.197     -6.968  -0.320  1.89548E-01  2.42122E-01 -5.25740E-02
    8987.288     -6.876  -0.280  2.02575E-01  2.60160E-01 -5.75852E-02
    8987.367     -6.797  -0.240  2.14681E-01  2.76804E-01 -6.21238E-02
    8987.434     -6.730  -0.200  2.25467E-01  2.91506E-01 -6.60387E-02
    8987.489     -6.675  -0.160  2.34621E-01  3.03865E-01 -6.92433E-02
    8987.532     -6.633  -0.120  2.41921E-01  3.13628E-01 -7.17074E-02
    8987.562     -6.602  -0.080  2.47219E-01  3.20658E-01 -7.34390E-02
    8987.587     -6.578   0.000  2.51503E-01  3.26303E-01 -7.47992E-02
    8987.642     -6.523   0.120  2.61175E-01  3.39031E-01 -7.78565E-02
    8987.684     -6.480   0.160  2.68766E-01  3.48904E-01 -8.01377E-02
    8987.739     -6.425   0.200  2.78612E-01  3.61514E-01 -8.29020E-02
    8987.806     -6.358   0.240  2.90653E-01  3.76637E-01 -8.59841E-02
    8987.885     -6.279   0.280  3.04851E-01  3.93994E-01 -8.91431E-02
    8987.977     -6.188   0.320  3.20996E-01  4.13080E-01 -9.20847E-02
    8988.080     -6.084   0.360  3.38901E-01  4.33342E-01 -9.44412E-02
    8988.196     -5.968   0.400  3.58304E-01  4.54151E-01 -9.58468E-02
    8988.324     -5.840   0.440  3.78943E-01  4.74952E-01 -9.60090E-02
    8988.464     -5.700   0.480  4.00576E-01  4.95320E-01 -9.47439E-02
    8988.617     -5.548   0.520  4.22812E-01  5.14961E-01 -9.21483E-02
    8988.781     -5.383   0.560  4.44990E-01  5.33754E-01 -8.87643E-02
    8988.958     -5.206   0.600  4.65906E-01  5.51668E-01 -8.57624E-02
    8989.147     -5.017   0.640  4.83893E-01  5.68788E-01 -8.48947E-02
    8989.348     -4.816   0.680  4.97110E-01  5.85200E-01 -8.80897E-02
    8989.562     -4.603   0.720  5.04353E-01  6.00981E-01 -9.66282E-02
    8989.787     -4.377   0.760  5.06170E-01  6.16271E-01 -1.10101E-01
    8990.025     -4.139   0.800  5.05412E-01  6.31157E-01 -1.25745E-01
    8990.275     -3.889   0.840  5.06620E-01  6.45717E-01 -1.39097E-01
    8990.537     -3.627   0.880  5.14391E-01  6.60012E-01 -1.45621E-01
    8990.811     -3.353   0.920  5.31501E-01  6.74109E-01 -1.42609E-01
    8991.098     -3.066   0.960  5.56611E-01  6.88064E-01 -1.31453E-01
    8991.397     -2.768   1.000  5.83090E-01  7.01858E-01 -1.18768E-01
    8991.708     -2.457   1.040  6.02043E-01  7.15545E-01 -1.13503E-01
    8992.031     -2.134   1.080  6.09206E-01  7.29133E-01 -1.19927E-01
    8992.366     -1.799   1.120  6.09482E-01  7.42616E-01 -1.33134E-01
    8992.713     -1.451   1.160  6.13017E-01  7.55970E-01 -1.42953E-01
    8993.073     -1.091   1.200  6.29023E-01  7.69201E-01 -1.40178E-01
    8993.445     -0.720   1.240  6.63286E-01  7.82312E-01 -1.19026E-01
    8993.829     -0.335   1.280  7.16221E-01  7.95244E-01 -7.90234E-02
    8994.225      0.061   1.320  7.81351E-01  8.08015E-01 -2.66639E-02
    8994.634      0.469   1.360  8.49183E-01  8.20600E-01  2.85835E-02
    8995.054      0.890   1.400  9.13967E-01  8.32953E-01  8.10136E-02
    8995.487      1.323   1.440  9.76338E-01  8.45068E-01  1.31270E-01
    8995.932      1.768   1.480  1.04013E+00  8.56896E-01  1.83235E-01
    8996.389      2.225   1.520  1.10792E+00  8.68449E-01  2.39474E-01
    8996.859      2.694   1.560  1.17514E+00  8.79699E-01  2.95445E-01
    8997.340      3.176   1.600  1.23307E+00  8.90597E-01  3.42470E-01
    8997.834      3.670   1.640  1.28304E+00  9.01155E-01  3.81886E-01
    8998.340      4.176   1.680  1.33336E+00  9.11323E-01  4.22041E-01
    8998.858      4.694   1.720  1.38131E+00  9.21097E-01  4.60214E-01
    8999.388      5.224   1.760  1.40468E+00  9.30448E-01  4.74227E-01
    8999.931      5.767   1.800  1.37457E+00  9.39391E-01  4.35183E-01
    9000.486      6.321   1.840  1.28922E+00  9.47902E-01  3.41319E-01
    9001.053      6.888   1.880  1.19216E+00  9.55956E-01  2.36200E-01
    9001.632      7.467   1.920  1.11957E+00  9.63552E-01  1.56023E-01
    9002.223      8.059   1.960  1.07924E+00  9.70707E-01  1.08535E-01
    9002.827      8.662   2.000  1.06240E+00  9.77380E-01  8.50167E-02
    9003.442      9.278   2.040  1.05655E+00  9.83591E-01  7.29558E-02
    9004.070      9.906   2.080  1.05206E+00  9.89363E-01  6.26986E-02
    9004.710     10.546   2.120  1.04541E+00  9.94658E-01  5.07486E-02
    9005.363     11.198   2.160  1.03760E+00  9.99518E-01  3.80841E-02
    9006.027     11.863   2.200  1.02768E+00  1.00391E+00  2.37755E-02
    9006.704     12.539   2.240  1.01564E+00  1.00789E+00  7.74211E-03
    9007.392     13.228   2.280  1.00651E+00  1.01144E+00 -4.93237E-03
    9008.094     13.929   2.320  1.00351E+00  1.01457E+00 -1.10621E-02
    9008.807     14.642   2.360  1.00304E+00  1.01730E+00 -1.42604E-02
    9009.532     15.368   2.400  1.00041E+00  1.01967E+00 -1.92677E-02
    9010.270     16.105   2.440  9.94157E-01  1.02166E+00 -2.74984E-02
    9011.020     16.855   2.480  9.86188E-01  1.02330E+00 -3.71103E-02
    9011.782     17.617   2.520  9.80118E-01  1.02461E+00 -4.44908E-02
    9012.556     18.391   2.560  9.77147E-01  1.02560E+00 -4.84483E-02
    9013.342     19.178   2.600  9.76098E-01  1.02629E+00 -5.01922E-02
    9014.141     19.976   2.640  9.75224E-01  1.02670E+00 -5.14781E-02
    9014.952     20.787   2.680  9.71415E-01  1.02686E+00 -5.54453E-02
    9015.774     21.610   2.720  9.60720E-01  1.02678E+00 -6.60565E-02
    9016.610     22.445   2.760  9.41896E-01  1.02648E+00 -8.45836E-02
    9017.457     23.293   2.800  9.23209E-01  1.02598E+00 -1.02770E-01
    9018.316     24.152   2.840  9.11178E-01  1.02530E+00 -1.14127E-01
    9019.188     25.024   2.880  9.06356E-01  1.02446E+00 -1.18108E-01
    9020.072     25.908   2.920  9.07166E-01  1.02347E+00 -1.16300E-01
    9020.968     26.804   2.960  9.11193E-01  1.02234E+00 -1.11147E-01
    9021.877     27.712   3.000  9.16888E-01  1.02109E+00 -1.04206E-01
    9022.797     28.633   3.040  9.23381E-01  1.01976E+00 -9.63748E-02
    9023.730     29.565   3.080  9.30260E-01  1.01832E+00 -8.80551E-02
    9024.675     30.510   3.120  9.37652E-01  1.01684E+00 -7.91874E-02
    9025.632     31.467   3.160  9.45651E-01  1.01530E+00 -6.96449E-02
    9026.601     32.436   3.200  9.54084E-01  1.01371E+00 -5.96258E-02
    9027.582     33.418   3.240  9.62793E-01  1.01209E+00 -4.92955E-02
    9028.576     34.412   3.280  9.71380E-01  1.01048E+00 -3.91018E-02
    9029.582     35.417   3.320  9.79207E-01  1.00885E+00 -2.96436E-02
    9030.600     36.435   3.360  9.85850E-01  1.00722E+00 -2.13705E-02
    9031.630     37.466   3.400  9.91043E-01  1.00562E+00 -1.45744E-02
    9032.673     38.508   3.440  9.94604E-01  1.00405E+00 -9.44485E-03
    9033.727     39.563   3.480  9.96672E-01  1.00250E+00 -5.82392E-03
    9034.794     40.629   3.520  9.97837E-01  1.00100E+00 -3.16602E-03
    9035.873     41.708   3.560  9.98944E-01  9.99534E-01 -5.90210E-04
    9036.964     42.800   3.600  1.00103E+00  9.98155E-01  2.87480E-03
    9038.067     43.903   3.640  1.00484E+00  9.96826E-01  8.01465E-03
    9039.183     45.019   3.680  1.01085E+00  9.95550E-01  1.52967E-02
    9040.311     46.146   3.720  1.01916E+00  9.94371E-01  2.47917E-02
    9041.451     47.286   3.760  1.02949E+00  9.93248E-01  3.62461E-02
    9042.603     48.438   3.800  1.04134E+00  9.92205E-01  4.91328E-02
    9043.767     49.603   3.840  1.05386E+00  9.91264E-01  6.26009E-02
    9044.944     50.779   3.880  1.06599E+00  9.90384E-01  7.56072E-02
    9046.132     51.968   3.920  1.07671E+00  9.89609E-01  8.70984E-02
    9047.333     53.169   3.960  1.08506E+00  9.88917E-01  9.61379E-02
    9048.546     54.382   4.000  1.09028E+00  9.88311E-01  1.01971E-01
    9049.772     55.607   4.040  1.09201E+00  9.87787E-01  1.04227E-01
    9051.009     56.845   4.080  1.09017E+00  9.87370E-01  1.02798E-01
    9052.259     58.094   4.120  1.08484E+00  9.87037E-01  9.78032E-02
    9053.521     59.356   4.160  1.07630E+00  9.86789E-01  8.95115E-02
    9054.795     60.630   4.200  1.06498E+00  9.86621E-01  7.83616E-02
    9056.081     61.917   4.240  1.05142E+00  9.86536E-01  6.48791E-02
    9057.379     63.215   4.280  1.03636E+00  9.86554E-01  4.98070E-02
    9058.690     64.526   4.320  1.02067E+00  9.86629E-01  3.40443E-02
    9060.013     65.848   4.360  1.00520E+00  9.86783E-01  1.84206E-02
    9061.348     67.184   4.400  9.90626E-01  9.87013E-01  3.61329E-03
    9062.695     68.531   4.440  9.77476E-01  9.87318E-01 -9.84153E-03
    9064.055     69.890   4.480  9.66072E-01  9.87675E-01 -2.16030E-02
    9065.426     71.262   4.520  9.56585E-01  9.88103E-01 -3.15174E-02
    9066.810     72.646   4.560  9.48941E-01  9.88579E-01 -3.96375E-02
    9068.206     74.041   4.600  9.42881E-01  9.89123E-01 -4.62426E-02
    9069.614     75.450   4.640  9.38029E-01  9.89711E-01 -5.16814E-02
    9071.034     76.870   4.680  9.34215E-01  9.90337E-01 -5.61216E-02
    9072.467     78.303   4.720  9.31410E-01  9.90980E-01 -5.95702E-02
    9073.912     79.747   4.760  9.29818E-01  9.91680E-01 -6.18622E-02
    9075.369     81.204   4.800  9.29635E-01  9.92394E-01 -6.27588E-02
    9076.838     82.673   4.840  9.31101E-01  9.93138E-01 -6.20374E-02
    9078.319     84.155   4.880  9.34354E-01  9.93888E-01 -5.95342E-02
    9079.813     85.648   4.920  9.39427E-01  9.94641E-01 -5.52141E-02
    9081.318     87.154   4.960  9.46092E-01  9.95419E-01 -4.93263E-02
    9082.836     88.672   5.000  9.53883E-01  9.96172E-01 -4.22890E-02
    9084.366     90.202   5.040  9.62308E-01  9.96921E-01 -3.46132E-02
    9085.909     91.744   5.080  9.70905E-01  9.97665E-01 -2.67592E-02
    9087.463     93.299   5.120  9.79374E-01  9.98399E-01 -1.90249E-02
    9089.030     94.865   5.160  9.87493E-01  9.99079E-01 -1.15865E-02
    9090.609     96.444   5.200  9.95163E-01  9.99767E-01 -4.60448E-03
    9092.200     98.035   5.240  1.00204E+00  1.00039E+00  1.64714E-03
    9093.803     99.638   5.280  1.00776E+00  1.00098E+00  6.77160E-03
    9095.418    101.254   5.320  1.01198E+00  1.00155E+00  1.04235E-02
    9097.046    102.882   5.360  1.01452E+00  1.00206E+00  1.24602E-02
    9098.686    104.521   5.400  1.01543E+00  1.00252E+00  1.29113E-02
    9100.338    106.173   5.440  1.01480E+00  1.00293E+00  1.18696E-02
    9102.002    107.838   5.480  1.01282E+00  1.00327E+00  9.54864E-03
    9103.678    109.514   5.520  1.00998E+00  1.00356E+00  6.41560E-03
    9105.367    111.203   5.560  1.00694E+00  1.00378E+00  3.16192E-03
    9107.068    112.903   5.600  1.00448E+00  1.00395E+00  5.28936E-04
    9108.781    114.616   5.640  1.00313E+00  1.00404E+00 -9.18214E-04
    9110.506    116.341   5.680  1.00316E+00  1.00406E+00 -9.08380E-04
    9112.243    118.079   5.720  1.00459E+00  1.00403E+00  5.53659E-04
    9113.993    119.828   5.760  1.00721E+00  1.00393E+00  3.27539E-03
    9115.755    121.590   5.800  1.01072E+00  1.00378E+00  6.94641E-03
    9117.528    123.364   5.840  1.01471E+00  1.00355E+00  1.11538E-02
    9119.315    125.150   5.880  1.01861E+00  1.00325E+00  1.53563E-02
    9121.113    126.948   5.920  1.02180E+00  1.00291E+00  1.88937E-02
    9122.923    128.759   5.960  1.02359E+00  1.00249E+00  2.10977E-02
    9124.746    130.582   6.000  1.02347E+00  1.00198E+00  2.14847E-02
