# # comment:                                                     FEFF 9.9.1  
# # Source:
# # Structure
# # Reduced
# # space
# # abc:
# # angles:
# # sites:
# # POT  SCF 100  7.0000   0, screened core-hole, AFOLP (folp(0)= 1.150)
# # Abs   Z=29 Rmt= 1.164 Rnm= 1.274 K  shell
# # Pot 1 Z=30 Rmt= 1.257 Rnm= 1.412
# # Pot 2 Z=29 Rmt= 1.137 Rnm= 1.269
# # Pot 3 Z=15 Rmt= 0.913 Rnm= 1.158
# # Pot 4 Z= 8 Rmt= 1.011 Rnm= 1.114
# # Gam_ch=1.729E+00 H-L exch Vi= 0.000E+00 Vr= 0.000E+00
# # Mu=-7.752E+00eV kf=2.266E+00 Vint=-1.514E+01eV Rs_int= 1.600
# FMS rfms= 9.0000
# # PATH  Rmax=-1.000,  Keep_limit= 0.00, Heap_limit 0.00  Pwcrit= 2.50%
#  S02=0.950  Temp=   0.00  Debye_temp=   0.00  Global_sig2= 0.00000
#  Energy zero shift, vr, vi    0.00000E+00   0.00000E+00
#  Curved wave amplitude ratio filter   4.000%
#     file         sig2 tot  cw amp ratio   deg  nlegs   reff  inp sig2
#     0/   0 paths used
#  xsedge+ 50, used to normalize mu           2.4381E-04
#  -----------------------------------------------------------------------
#  omega    e    k    mu    mu0     chi     @#
    8983.529    -11.562  -1.000  2.95600E-02  5.41126E-02 -2.45526E-02
    8983.828    -11.264  -0.960  3.07248E-02  5.79796E-02 -2.72547E-02
    8984.114    -10.977  -0.920  3.19496E-02  6.22678E-02 -3.03182E-02
    8984.389    -10.703  -0.880  3.32396E-02  6.70383E-02 -3.37987E-02
    8984.651    -10.441  -0.840  3.46012E-02  7.23618E-02 -3.77606E-02
    8984.901    -10.191  -0.800  3.60416E-02  7.83202E-02 -4.22786E-02
    8985.138     -9.953  -0.760  3.75694E-02  8.50075E-02 -4.74381E-02
    8985.364     -9.727  -0.720  3.91940E-02  9.25294E-02 -5.33354E-02
    8985.577     -9.514  -0.680  4.09258E-02  1.01002E-01 -6.00763E-02
    8985.778     -9.313  -0.640  4.27760E-02  1.10548E-01 -6.77723E-02
    8985.967     -9.124  -0.600  4.47550E-02  1.21288E-01 -7.65329E-02
    8986.144     -8.947  -0.560  4.68709E-02  1.33323E-01 -8.64516E-02
    8986.309     -8.782  -0.520  4.91273E-02  1.46712E-01 -9.75850E-02
    8986.461     -8.630  -0.480  5.15188E-02  1.61442E-01 -1.09923E-01
    8986.601     -8.490  -0.440  5.40274E-02  1.77382E-01 -1.23355E-01
    8986.729     -8.362  -0.400  5.66181E-02  1.94259E-01 -1.37641E-01
    8986.845     -8.246  -0.360  5.92382E-02  2.11642E-01 -1.52404E-01
    8986.949     -8.142  -0.320  6.18193E-02  2.28973E-01 -1.67154E-01
    8987.040     -8.051  -0.280  6.42846E-02  2.45630E-01 -1.81346E-01
    8987.120     -7.972  -0.240  6.65590E-02  2.61014E-01 -1.94455E-01
    8987.187     -7.905  -0.200  6.85770E-02  2.74619E-01 -2.06042E-01
    8987.242     -7.850  -0.160  7.02886E-02  2.86073E-01 -2.15785E-01
    8987.284     -7.807  -0.120  7.16603E-02  2.95136E-01 -2.23476E-01
    8987.315     -7.777  -0.080  7.26716E-02  3.01670E-01 -2.28999E-01
    8987.339     -7.752   0.000  7.35365E-02  3.06923E-01 -2.33386E-01
    8987.394     -7.697   0.120  7.54136E-02  3.18781E-01 -2.43368E-01
    8987.437     -7.655   0.160  7.68016E-02  3.28021E-01 -2.51220E-01
    8987.491     -7.600   0.200  7.85107E-02  3.39817E-01 -2.61307E-01
    8987.559     -7.533   0.240  8.05216E-02  3.54049E-01 -2.73527E-01
    8987.638     -7.454   0.280  8.27641E-02  3.70458E-01 -2.87694E-01
    8987.729     -7.362   0.320  8.51390E-02  3.88643E-01 -3.03504E-01
    8987.833     -7.258   0.360  8.75389E-02  4.08123E-01 -3.20584E-01
    8987.949     -7.143   0.400  8.98319E-02  4.28365E-01 -3.38533E-01
    8988.077     -7.015   0.440  9.19917E-02  4.48922E-01 -3.56930E-01
    8988.217     -6.874   0.480  9.40531E-02  4.69387E-01 -3.75334E-01
    8988.369     -6.722   0.520  9.61558E-02  4.89549E-01 -3.93393E-01
    8988.534     -6.557   0.560  9.85658E-02  5.09259E-01 -4.10693E-01
    8988.711     -6.381   0.600  1.01545E-01  5.28503E-01 -4.26959E-01
    8988.900     -6.192   0.640  1.05348E-01  5.47290E-01 -4.41943E-01
    8989.101     -5.990   0.680  1.10202E-01  5.65721E-01 -4.55519E-01
    8989.314     -5.777   0.720  1.16176E-01  5.83846E-01 -4.67670E-01
    8989.540     -5.552   0.760  1.23365E-01  6.01734E-01 -4.78369E-01
    8989.777     -5.314   0.800  1.31948E-01  6.19424E-01 -4.87475E-01
    8990.027     -5.064   0.840  1.42328E-01  6.37003E-01 -4.94675E-01
    8990.290     -4.802   0.880  1.54877E-01  6.54444E-01 -4.99568E-01
    8990.564     -4.527   0.920  1.69772E-01  6.71788E-01 -5.02016E-01
    8990.850     -4.241   0.960  1.86446E-01  6.89043E-01 -5.02597E-01
    8991.149     -3.942   1.000  2.04219E-01  7.06209E-01 -5.01989E-01
    8991.460     -3.631   1.040  2.23226E-01  7.23213E-01 -4.99987E-01
    8991.783     -3.308   1.080  2.44533E-01  7.40081E-01 -4.95548E-01
    8992.118     -2.973   1.120  2.69740E-01  7.56749E-01 -4.87008E-01
    8992.466     -2.626   1.160  3.01138E-01  7.73190E-01 -4.72052E-01
    8992.825     -2.266   1.200  3.39072E-01  7.89374E-01 -4.50302E-01
    8993.197     -1.894   1.240  3.80565E-01  8.05249E-01 -4.24684E-01
    8993.581     -1.510   1.280  4.23633E-01  8.20779E-01 -3.97146E-01
    8993.978     -1.114   1.320  4.67195E-01  8.35910E-01 -3.68715E-01
    8994.386     -0.705   1.360  5.04425E-01  8.50625E-01 -3.46200E-01
    8994.807     -0.285   1.400  5.33204E-01  8.64850E-01 -3.31646E-01
    8995.239      0.148   1.440  5.67087E-01  8.78591E-01 -3.11504E-01
    8995.684      0.593   1.480  6.19976E-01  8.91774E-01 -2.71798E-01
    8996.142      1.050   1.520  6.91013E-01  9.04407E-01 -2.13394E-01
    8996.611      1.520   1.560  7.62854E-01  9.16440E-01 -1.53586E-01
    8997.093      2.001   1.600  8.18269E-01  9.27864E-01 -1.09595E-01
    8997.586      2.495   1.640  8.55154E-01  9.38675E-01 -8.35206E-02
    8998.092      3.001   1.680  8.88220E-01  9.48847E-01 -6.06277E-02
    8998.611      3.519   1.720  9.29841E-01  9.58357E-01 -2.85165E-02
    8999.141      4.050   1.760  9.77718E-01  9.67227E-01  1.04919E-02
    8999.683      4.592   1.800  1.02653E+00  9.75457E-01  5.10728E-02
    9000.238      5.147   1.840  1.07698E+00  9.83050E-01  9.39322E-02
    9000.805      5.714   1.880  1.12766E+00  9.90014E-01  1.37645E-01
    9001.384      6.293   1.920  1.17914E+00  9.96354E-01  1.82787E-01
    9001.975      6.884   1.960  1.23958E+00  1.00208E+00  2.37498E-01
    9002.579      7.488   2.000  1.31825E+00  1.00724E+00  3.11016E-01
    9003.195      8.103   2.040  1.41345E+00  1.01182E+00  4.01629E-01
    9003.823      8.731   2.080  1.51074E+00  1.01586E+00  4.94881E-01
    9004.463      9.371   2.120  1.57515E+00  1.01937E+00  5.55779E-01
    9005.115     10.024   2.160  1.57197E+00  1.02240E+00  5.49575E-01
    9005.779     10.688   2.200  1.50430E+00  1.02494E+00  4.79353E-01
    9006.456     11.365   2.240  1.40250E+00  1.02706E+00  3.75442E-01
    9007.145     12.054   2.280  1.30088E+00  1.02874E+00  2.72143E-01
    9007.846     12.755   2.320  1.22743E+00  1.03005E+00  1.97372E-01
    9008.559     13.468   2.360  1.19076E+00  1.03098E+00  1.59774E-01
    9009.285     14.193   2.400  1.18106E+00  1.03159E+00  1.49461E-01
    9010.022     14.931   2.440  1.18205E+00  1.03189E+00  1.50160E-01
    9010.772     15.681   2.480  1.18161E+00  1.03189E+00  1.49719E-01
    9011.534     16.443   2.520  1.17906E+00  1.03164E+00  1.47417E-01
    9012.308     17.217   2.560  1.17243E+00  1.03117E+00  1.41259E-01
    9013.095     18.003   2.600  1.15456E+00  1.03047E+00  1.24087E-01
    9013.893     18.802   2.640  1.12928E+00  1.02959E+00  9.96933E-02
    9014.704     19.613   2.680  1.10783E+00  1.02855E+00  7.92830E-02
    9015.527     20.436   2.720  1.09250E+00  1.02737E+00  6.51244E-02
    9016.362     21.271   2.760  1.07821E+00  1.02607E+00  5.21433E-02
    9017.209     22.118   2.800  1.06161E+00  1.02465E+00  3.69585E-02
    9018.069     22.978   2.840  1.04130E+00  1.02317E+00  1.81303E-02
    9018.941     23.849   2.880  1.01828E+00  1.02162E+00 -3.33319E-03
    9019.825     24.733   2.920  9.95302E-01  1.01999E+00 -2.46875E-02
    9020.721     25.629   2.960  9.75061E-01  1.01834E+00 -4.32813E-02
    9021.629     26.538   3.000  9.58389E-01  1.01666E+00 -5.82716E-02
    9022.549     27.458   3.040  9.44551E-01  1.01497E+00 -7.04208E-02
    9023.482     28.391   3.080  9.32544E-01  1.01328E+00 -8.07385E-02
    9024.427     29.336   3.120  9.21413E-01  1.01160E+00 -9.01840E-02
    9025.384     30.293   3.160  9.10570E-01  1.00994E+00 -9.93718E-02
    9026.353     31.262   3.200  8.99848E-01  1.00830E+00 -1.08453E-01
    9027.335     32.243   3.240  8.89415E-01  1.00672E+00 -1.17306E-01
    9028.328     33.237   3.280  8.79282E-01  1.00518E+00 -1.25902E-01
    9029.334     34.243   3.320  8.69801E-01  1.00369E+00 -1.33894E-01
    9030.352     35.261   3.360  8.61646E-01  1.00228E+00 -1.40632E-01
    9031.382     36.291   3.400  8.55499E-01  1.00093E+00 -1.45436E-01
    9032.425     37.334   3.440  8.51938E-01  9.99646E-01 -1.47709E-01
    9033.479     38.388   3.480  8.51366E-01  9.98436E-01 -1.47070E-01
    9034.546     39.455   3.520  8.53936E-01  9.97328E-01 -1.43391E-01
    9035.625     40.534   3.560  8.59197E-01  9.96280E-01 -1.37083E-01
    9036.716     41.625   3.600  8.66844E-01  9.95315E-01 -1.28471E-01
    9037.820     42.729   3.640  8.76557E-01  9.94456E-01 -1.17899E-01
    9038.935     43.844   3.680  8.87906E-01  9.93682E-01 -1.05776E-01
    9040.063     44.972   3.720  9.00479E-01  9.92994E-01 -9.25145E-02
    9041.203     46.112   3.760  9.13952E-01  9.92391E-01 -7.84386E-02
    9042.355     47.264   3.800  9.28083E-01  9.91896E-01 -6.38127E-02
    9043.520     48.428   3.840  9.42569E-01  9.91487E-01 -4.89183E-02
    9044.696     49.605   3.880  9.57245E-01  9.91164E-01 -3.39193E-02
    9045.885     50.794   3.920  9.71995E-01  9.90927E-01 -1.89320E-02
    9047.086     51.994   3.960  9.86719E-01  9.90796E-01 -4.07766E-03
    9048.299     53.208   4.000  1.00134E+00  9.90751E-01  1.05902E-02
    9049.524     54.433   4.040  1.01571E+00  9.90789E-01  2.49201E-02
    9050.762     55.670   4.080  1.02936E+00  9.90909E-01  3.84491E-02
    9052.011     56.920   4.120  1.04160E+00  9.91109E-01  5.04948E-02
    9053.273     58.182   4.160  1.05177E+00  9.91390E-01  6.03830E-02
    9054.547     59.456   4.200  1.05942E+00  9.91748E-01  6.76752E-02
    9055.833     60.742   4.240  1.06442E+00  9.92163E-01  7.22611E-02
    9057.132     62.041   4.280  1.06722E+00  9.92675E-01  7.45404E-02
    9058.443     63.351   4.320  1.06838E+00  9.93238E-01  7.51382E-02
    9059.765     64.674   4.360  1.06859E+00  9.93852E-01  7.47407E-02
    9061.100     66.009   4.400  1.06844E+00  9.94534E-01  7.39048E-02
    9062.448     67.356   4.440  1.06820E+00  9.95264E-01  7.29328E-02
    9063.807     68.716   4.480  1.06784E+00  9.96060E-01  7.17851E-02
    9065.179     70.087   4.520  1.06701E+00  9.96877E-01  7.01354E-02
    9066.562     71.471   4.560  1.06535E+00  9.97753E-01  6.75948E-02
    9067.958     72.867   4.600  1.06246E+00  9.98646E-01  6.38115E-02
    9069.366     74.275   4.640  1.05829E+00  9.99573E-01  5.87152E-02
    9070.787     75.696   4.680  1.05314E+00  1.00053E+00  5.26016E-02
    9072.219     77.128   4.720  1.04749E+00  1.00150E+00  4.59840E-02
    9073.664     78.573   4.760  1.04186E+00  1.00248E+00  3.93832E-02
    9075.121     80.030   4.800  1.03666E+00  1.00348E+00  3.31817E-02
    9076.590     81.499   4.840  1.03200E+00  1.00448E+00  2.75224E-02
    9078.072     82.980   4.880  1.02794E+00  1.00548E+00  2.24605E-02
    9079.565     84.474   4.920  1.02456E+00  1.00648E+00  1.80780E-02
    9081.071     85.979   4.960  1.02192E+00  1.00745E+00  1.44696E-02
    9082.589     87.497   5.000  1.02004E+00  1.00842E+00  1.16200E-02
    9084.119     89.027   5.040  1.01866E+00  1.00937E+00  9.28795E-03
    9085.661     90.570   5.080  1.01739E+00  1.01029E+00  7.10223E-03
    9087.215     92.124   5.120  1.01593E+00  1.01117E+00  4.76290E-03
    9088.782     93.691   5.160  1.01412E+00  1.01201E+00  2.10986E-03
    9090.361     95.270   5.200  1.01194E+00  1.01284E+00 -8.99802E-04
    9091.952     96.861   5.240  1.00937E+00  1.01360E+00 -4.23053E-03
    9093.555     98.464   5.280  1.00663E+00  1.01434E+00 -7.71726E-03
    9095.171    100.079   5.320  1.00393E+00  1.01502E+00 -1.10878E-02
    9096.798    101.707   5.360  1.00157E+00  1.01564E+00 -1.40693E-02
    9098.438    103.347   5.400  9.99642E-01  1.01620E+00 -1.65532E-02
    9100.090    104.999   5.440  9.98084E-01  1.01670E+00 -1.86182E-02
    9101.754    106.663   5.480  9.96635E-01  1.01716E+00 -2.05230E-02
    9103.431    108.340   5.520  9.94958E-01  1.01754E+00 -2.25824E-02
    9105.119    110.028   5.560  9.92815E-01  1.01785E+00 -2.50331E-02
    9106.820    111.729   5.600  9.90182E-01  1.01810E+00 -2.79205E-02
    9108.533    113.442   5.640  9.87131E-01  1.01828E+00 -3.11534E-02
    9110.258    115.167   5.680  9.83850E-01  1.01841E+00 -3.45632E-02
    9111.996    116.904   5.720  9.80520E-01  1.01847E+00 -3.79468E-02
    9113.745    118.654   5.760  9.77373E-01  1.01844E+00 -4.10692E-02
    9115.507    120.416   5.800  9.74607E-01  1.01834E+00 -4.37353E-02
    9117.281    122.190   5.840  9.72358E-01  1.01819E+00 -4.58326E-02
    9119.067    123.976   5.880  9.70627E-01  1.01797E+00 -4.73408E-02
    9120.865    125.774   5.920  9.69536E-01  1.01769E+00 -4.81589E-02
    9122.676    127.585   5.960  9.69476E-01  1.01734E+00 -4.78641E-02
    9124.498    129.407   6.000  9.71309E-01  1.01686E+00 -4.55470E-02
