# # comment:                                                     FEFF 9.9.1  
# # Source:
# # Structure
# # Reduced
# # space
# # abc:
# # angles:104.608006
# # sites:
# # POT  SCF 100  7.0000   0, screened core-hole, AFOLP (folp(0)= 1.150)
# # Abs   Z=29 Rmt= 1.264 Rnm= 1.332 K  shell
# # Pot 1 Z=29 Rmt= 1.259 Rnm= 1.332
# # Pot 2 Z=15 Rmt= 0.941 Rnm= 1.156
# # Pot 3 Z= 8 Rmt= 0.867 Rnm= 1.039
# # Gam_ch=1.729E+00 H-L exch Vi= 0.000E+00 Vr= 0.000E+00
# # Mu=-6.381E+00eV kf=2.520E+00 Vint=-1.738E+01eV Rs_int= 1.439
# FMS rfms= 9.0000
# # PATH  Rmax=-1.000,  Keep_limit= 0.00, Heap_limit 0.00  Pwcrit= 2.50%
#  S02=0.950  Temp=   0.00  Debye_temp=   0.00  Global_sig2= 0.00000
#  Energy zero shift, vr, vi    0.00000E+00   0.00000E+00
#  Curved wave amplitude ratio filter   4.000%
#     file         sig2 tot  cw amp ratio   deg  nlegs   reff  inp sig2
#     0/   0 paths used
#  xsedge+ 50, used to normalize mu           2.4902E-04
#  -----------------------------------------------------------------------
#  omega    e    k    mu    mu0     chi     @#
    8983.295    -10.191  -1.000  3.79843E-02  5.17313E-02 -1.37469E-02
    8983.594     -9.892  -0.960  3.98679E-02  5.54825E-02 -1.56145E-02
    8983.880     -9.606  -0.920  4.18736E-02  5.96535E-02 -1.77799E-02
    8984.155     -9.331  -0.880  4.40117E-02  6.43068E-02 -2.02951E-02
    8984.417     -9.069  -0.840  4.62933E-02  6.95149E-02 -2.32215E-02
    8984.667     -8.819  -0.800  4.87311E-02  7.53620E-02 -2.66309E-02
    8984.904     -8.581  -0.760  5.13385E-02  8.19452E-02 -3.06067E-02
    8985.130     -8.356  -0.720  5.41299E-02  8.93737E-02 -3.52438E-02
    8985.343     -8.143  -0.680  5.71203E-02  9.77684E-02 -4.06481E-02
    8985.544     -7.941  -0.640  6.03241E-02  1.07257E-01 -4.69328E-02
    8985.733     -7.752  -0.600  6.37539E-02  1.17965E-01 -5.42107E-02
    8985.910     -7.576  -0.560  6.74174E-02  1.29999E-01 -6.25815E-02
    8986.075     -7.411  -0.520  7.13139E-02  1.43424E-01 -7.21101E-02
    8986.227     -7.259  -0.480  7.54288E-02  1.58227E-01 -8.27978E-02
    8986.367     -7.118  -0.440  7.97279E-02  1.74276E-01 -9.45485E-02
    8986.495     -6.990  -0.400  8.41519E-02  1.91292E-01 -1.07140E-01
    8986.611     -6.875  -0.360  8.86148E-02  2.08832E-01 -1.20217E-01
    8986.715     -6.771  -0.320  9.30079E-02  2.26321E-01 -1.33313E-01
    8986.806     -6.679  -0.280  9.72090E-02  2.43123E-01 -1.45914E-01
    8986.886     -6.600  -0.240  1.01096E-01  2.58625E-01 -1.57529E-01
    8986.953     -6.533  -0.200  1.04559E-01  2.72317E-01 -1.67758E-01
    8987.008     -6.478  -0.160  1.07508E-01  2.83828E-01 -1.76320E-01
    8987.050     -6.436  -0.120  1.09873E-01  2.92921E-01 -1.83048E-01
    8987.081     -6.405  -0.080  1.11605E-01  2.99469E-01 -1.87864E-01
    8987.105     -6.381   0.000  1.13035E-01  3.04727E-01 -1.91692E-01
    8987.160     -6.326   0.120  1.16239E-01  3.16569E-01 -2.00331E-01
    8987.203     -6.283   0.160  1.18712E-01  3.25771E-01 -2.07059E-01
    8987.257     -6.228   0.200  1.21928E-01  3.37502E-01 -2.15575E-01
    8987.324     -6.161   0.240  1.25881E-01  3.51590E-01 -2.25709E-01
    8987.404     -6.082   0.280  1.30597E-01  3.67757E-01 -2.37160E-01
    8987.495     -5.991   0.320  1.36027E-01  3.85530E-01 -2.49503E-01
    8987.599     -5.887   0.360  1.42167E-01  4.04374E-01 -2.62206E-01
    8987.715     -5.771   0.400  1.49047E-01  4.23763E-01 -2.74716E-01
    8987.843     -5.643   0.440  1.56628E-01  4.43121E-01 -2.86493E-01
    8987.983     -5.503   0.480  1.65031E-01  4.62069E-01 -2.97038E-01
    8988.135     -5.351   0.520  1.74483E-01  4.80356E-01 -3.05872E-01
    8988.300     -5.186   0.560  1.85295E-01  4.97867E-01 -3.12573E-01
    8988.477     -5.009   0.600  1.97773E-01  5.14553E-01 -3.16781E-01
    8988.666     -4.820   0.640  2.12259E-01  5.30495E-01 -3.18236E-01
    8988.867     -4.619   0.680  2.28947E-01  5.45772E-01 -3.16825E-01
    8989.080     -4.406   0.720  2.48052E-01  5.60475E-01 -3.12423E-01
    8989.306     -4.180   0.760  2.69913E-01  5.74738E-01 -3.04826E-01
    8989.543     -3.942   0.800  2.94951E-01  5.88622E-01 -2.93672E-01
    8989.793     -3.692   0.840  3.23780E-01  6.02238E-01 -2.78458E-01
    8990.055     -3.430   0.880  3.57138E-01  6.15604E-01 -2.58466E-01
    8990.330     -3.156   0.920  3.95735E-01  6.28822E-01 -2.33086E-01
    8990.616     -2.869   0.960  4.39102E-01  6.41907E-01 -2.02805E-01
    8990.915     -2.571   1.000  4.84856E-01  6.54900E-01 -1.70044E-01
    8991.226     -2.260   1.040  5.28748E-01  6.67795E-01 -1.39047E-01
    8991.549     -1.937   1.080  5.66971E-01  6.80636E-01 -1.13665E-01
    8991.884     -1.602   1.120  5.98536E-01  6.93402E-01 -9.48662E-02
    8992.232     -1.254   1.160  6.26175E-01  7.06107E-01 -7.99326E-02
    8992.591     -0.894   1.200  6.54350E-01  7.18741E-01 -6.43914E-02
    8992.963     -0.523   1.240  6.85623E-01  7.31287E-01 -4.56640E-02
    8993.347     -0.139   1.280  7.20748E-01  7.43748E-01 -2.29994E-02
    8993.744      0.258   1.320  7.61923E-01  7.56083E-01  5.84018E-03
    8994.152      0.666   1.360  8.11269E-01  7.68291E-01  4.29785E-02
    8994.573      1.087   1.400  8.63142E-01  7.80367E-01  8.27753E-02
    8995.005      1.520   1.440  9.06232E-01  7.92265E-01  1.13967E-01
    8995.450      1.965   1.480  9.37525E-01  8.03979E-01  1.33546E-01
    8995.908      2.422   1.520  9.64462E-01  8.15483E-01  1.48979E-01
    8996.377      2.891   1.560  9.93979E-01  8.26749E-01  1.67229E-01
    8996.859      3.373   1.600  1.02857E+00  8.37771E-01  1.90795E-01
    8997.352      3.867   1.640  1.06474E+00  8.48540E-01  2.16196E-01
    8997.858      4.373   1.680  1.08575E+00  8.59009E-01  2.26745E-01
    8998.376      4.891   1.720  1.08324E+00  8.69172E-01  2.14067E-01
    8998.907      5.421   1.760  1.07525E+00  8.79040E-01  1.96206E-01
    8999.449      5.964   1.800  1.07770E+00  8.88551E-01  1.89152E-01
    9000.004      6.518   1.840  1.10050E+00  8.97715E-01  2.02786E-01
    9000.571      7.085   1.880  1.14929E+00  9.06530E-01  2.42758E-01
    9001.150      7.664   1.920  1.20652E+00  9.14970E-01  2.91554E-01
    9001.741      8.256   1.960  1.24158E+00  9.23034E-01  3.18544E-01
    9002.345      8.859   2.000  1.24942E+00  9.30716E-01  3.18707E-01
    9002.961      9.475   2.040  1.24464E+00  9.37997E-01  3.06645E-01
    9003.589     10.103   2.080  1.23657E+00  9.44897E-01  2.91677E-01
    9004.229     10.743   2.120  1.21797E+00  9.51412E-01  2.66559E-01
    9004.881     11.395   2.160  1.18041E+00  9.57523E-01  2.22890E-01
    9005.545     12.060   2.200  1.13191E+00  9.63232E-01  1.68675E-01
    9006.222     12.736   2.240  1.08680E+00  9.68562E-01  1.18234E-01
    9006.911     13.425   2.280  1.05632E+00  9.73496E-01  8.28236E-02
    9007.612     14.126   2.320  1.04548E+00  9.78074E-01  6.74025E-02
    9008.325     14.839   2.360  1.05163E+00  9.82263E-01  6.93695E-02
    9009.051     15.565   2.400  1.06639E+00  9.86086E-01  8.03046E-02
    9009.788     16.302   2.440  1.07996E+00  9.89569E-01  9.03892E-02
    9010.538     17.052   2.480  1.08864E+00  9.92697E-01  9.59430E-02
    9011.300     17.814   2.520  1.09210E+00  9.95515E-01  9.65897E-02
    9012.074     18.588   2.560  1.08667E+00  9.97990E-01  8.86818E-02
    9012.861     19.375   2.600  1.06868E+00  1.00017E+00  6.85134E-02
    9013.659     20.173   2.640  1.03944E+00  1.00203E+00  3.74092E-02
    9014.470     20.984   2.680  1.00301E+00  1.00364E+00 -6.27843E-04
    9015.293     21.807   2.720  9.60401E-01  1.00496E+00 -4.45626E-02
    9016.128     22.642   2.760  9.18033E-01  1.00604E+00 -8.80082E-02
    9016.975     23.489   2.800  8.85625E-01  1.00688E+00 -1.21254E-01
    9017.835     24.349   2.840  8.65795E-01  1.00750E+00 -1.41706E-01
    9018.707     25.221   2.880  8.53140E-01  1.00790E+00 -1.54755E-01
    9019.590     26.105   2.920  8.48504E-01  1.00811E+00 -1.59607E-01
    9020.487     27.001   2.960  8.48347E-01  1.00814E+00 -1.59788E-01
    9021.395     27.909   3.000  8.53167E-01  1.00801E+00 -1.54847E-01
    9022.315     28.830   3.040  8.62437E-01  1.00771E+00 -1.45277E-01
    9023.248     29.762   3.080  8.74148E-01  1.00728E+00 -1.33135E-01
    9024.193     30.707   3.120  8.86468E-01  1.00675E+00 -1.20281E-01
    9025.150     31.664   3.160  8.98364E-01  1.00608E+00 -1.07712E-01
    9026.119     32.633   3.200  9.09157E-01  1.00531E+00 -9.61551E-02
    9027.101     33.615   3.240  9.18804E-01  1.00446E+00 -8.56568E-02
    9028.094     34.609   3.280  9.27531E-01  1.00353E+00 -7.59985E-02
    9029.100     35.614   3.320  9.35640E-01  1.00252E+00 -6.68833E-02
    9030.118     36.632   3.360  9.43507E-01  1.00147E+00 -5.79621E-02
    9031.148     37.663   3.400  9.51498E-01  1.00037E+00 -4.88738E-02
    9032.191     38.705   3.440  9.59745E-01  9.99236E-01 -3.94913E-02
    9033.245     39.760   3.480  9.68167E-01  9.98087E-01 -2.99198E-02
    9034.312     40.826   3.520  9.76685E-01  9.96908E-01 -2.02233E-02
    9035.391     41.905   3.560  9.85271E-01  9.95725E-01 -1.04542E-02
    9036.482     42.997   3.600  9.93767E-01  9.94562E-01 -7.95708E-04
    9037.586     44.100   3.640  1.00179E+00  9.93381E-01  8.40799E-03
    9038.701     45.216   3.680  1.00885E+00  9.92226E-01  1.66232E-02
    9039.829     46.343   3.720  1.01430E+00  9.91079E-01  2.32200E-02
    9040.969     47.483   3.760  1.01775E+00  9.89965E-01  2.77820E-02
    9042.121     48.635   3.800  1.01922E+00  9.88887E-01  3.03353E-02
    9043.286     49.800   3.840  1.01916E+00  9.87845E-01  3.13120E-02
    9044.462     50.976   3.880  1.01833E+00  9.86844E-01  3.14844E-02
    9045.651     52.165   3.920  1.01751E+00  9.85884E-01  3.16222E-02
    9046.852     53.366   3.960  1.01713E+00  9.84967E-01  3.21627E-02
    9048.065     54.579   4.000  1.01717E+00  9.84115E-01  3.30516E-02
    9049.290     55.804   4.040  1.01729E+00  9.83310E-01  3.39818E-02
    9050.528     57.042   4.080  1.01716E+00  9.82550E-01  3.46094E-02
    9051.777     58.291   4.120  1.01660E+00  9.81858E-01  3.47414E-02
    9053.039     59.553   4.160  1.01560E+00  9.81216E-01  3.43864E-02
    9054.313     60.827   4.200  1.01432E+00  9.80645E-01  3.36743E-02
    9055.599     62.114   4.240  1.01286E+00  9.80124E-01  3.27333E-02
    9056.898     63.412   4.280  1.01135E+00  9.79695E-01  3.16577E-02
    9058.208     64.723   4.320  1.00979E+00  9.79295E-01  3.04980E-02
    9059.531     66.045   4.360  1.00819E+00  9.78965E-01  2.92245E-02
    9060.866     67.381   4.400  1.00656E+00  9.78706E-01  2.78503E-02
    9062.214     68.728   4.440  1.00498E+00  9.78498E-01  2.64826E-02
    9063.573     70.087   4.480  1.00358E+00  9.78360E-01  2.52192E-02
    9064.945     71.459   4.520  1.00235E+00  9.78291E-01  2.40626E-02
    9066.328     72.843   4.560  1.00117E+00  9.78248E-01  2.29179E-02
    9067.724     74.238   4.600  9.99928E-01  9.78272E-01  2.16562E-02
    9069.132     75.647   4.640  9.98608E-01  9.78363E-01  2.02459E-02
    9070.553     77.067   4.680  9.97306E-01  9.78476E-01  1.88299E-02
    9071.985     78.500   4.720  9.96263E-01  9.78653E-01  1.76098E-02
    9073.430     79.944   4.760  9.95516E-01  9.78875E-01  1.66410E-02
    9074.887     81.401   4.800  9.94895E-01  9.79138E-01  1.57576E-02
    9076.356     82.870   4.840  9.94109E-01  9.79462E-01  1.46470E-02
    9077.838     84.352   4.880  9.92809E-01  9.79801E-01  1.30072E-02
    9079.331     85.845   4.920  9.90790E-01  9.80153E-01  1.06373E-02
    9080.837     87.351   4.960  9.87960E-01  9.80561E-01  7.39922E-03
    9082.355     88.869   5.000  9.84111E-01  9.80983E-01  3.12797E-03
    9083.885     90.399   5.040  9.79090E-01  9.81434E-01 -2.34357E-03
    9085.427     91.941   5.080  9.72831E-01  9.81894E-01 -9.06350E-03
    9086.981     93.496   5.120  9.65634E-01  9.82383E-01 -1.67496E-02
    9088.548     95.062   5.160  9.58144E-01  9.82876E-01 -2.47318E-02
    9090.127     96.641   5.200  9.51303E-01  9.83371E-01 -3.20674E-02
    9091.718     98.232   5.240  9.46023E-01  9.83867E-01 -3.78433E-02
    9093.321     99.835   5.280  9.42887E-01  9.84361E-01 -4.14738E-02
    9094.937    101.451   5.320  9.41993E-01  9.84855E-01 -4.28619E-02
    9096.564    103.079   5.360  9.43013E-01  9.85345E-01 -4.23318E-02
    9098.204    104.718   5.400  9.45483E-01  9.85830E-01 -4.03465E-02
    9099.856    106.370   5.440  9.49051E-01  9.86286E-01 -3.72350E-02
    9101.520    108.035   5.480  9.53619E-01  9.86732E-01 -3.31134E-02
    9103.197    109.711   5.520  9.59120E-01  9.87147E-01 -2.80268E-02
    9104.885    111.400   5.560  9.65397E-01  9.87551E-01 -2.21538E-02
    9106.586    113.100   5.600  9.72063E-01  9.87919E-01 -1.58562E-02
    9108.299    114.813   5.640  9.78651E-01  9.88250E-01 -9.59920E-03
    9110.024    116.538   5.680  9.84711E-01  9.88545E-01 -3.83352E-03
    9111.762    118.276   5.720  9.89898E-01  9.88823E-01  1.07537E-03
    9113.511    120.025   5.760  9.93975E-01  9.89040E-01  4.93525E-03
    9115.273    121.787   5.800  9.96963E-01  9.89240E-01  7.72327E-03
    9117.047    123.561   5.840  9.98806E-01  9.89377E-01  9.42871E-03
    9118.833    125.347   5.880  9.99419E-01  9.89495E-01  9.92379E-03
    9120.631    127.145   5.920  9.98625E-01  9.89547E-01  9.07815E-03
    9122.442    128.956   5.960  9.96587E-01  9.89549E-01  7.03791E-03
    9124.264    130.779   6.000  9.93725E-01  9.89484E-01  4.24130E-03
