# # comment:                                                     FEFF 9.9.1  
# # Source:
# # Structure
# # Reduced
# # space
# # abc:
# # angles:
# # sites:
# # POT  SCF 100  7.0000   0, screened core-hole, AFOLP (folp(0)= 1.150)
# # Abs   Z=29 Rmt= 1.288 Rnm= 1.361 K  shell
# # Pot 1 Z=29 Rmt= 1.288 Rnm= 1.361
# # Pot 2 Z=34 Rmt= 1.052 Rnm= 1.260
# # Pot 3 Z= 8 Rmt= 0.919 Rnm= 1.063
# # Gam_ch=1.729E+00 H-L exch Vi= 0.000E+00 Vr= 0.000E+00
# # Mu=-3.937E+00eV kf=2.382E+00 Vint=-1.560E+01eV Rs_int= 1.523
# FMS rfms= 9.0000
# # PATH  Rmax=-1.000,  Keep_limit= 0.00, Heap_limit 0.00  Pwcrit= 2.50%
#  S02=0.950  Temp=   0.00  Debye_temp=   0.00  Global_sig2= 0.00000
#  Energy zero shift, vr, vi    0.00000E+00   0.00000E+00
#  Curved wave amplitude ratio filter   4.000%
#     file         sig2 tot  cw amp ratio   deg  nlegs   reff  inp sig2
#     0/   0 paths used
#  xsedge+ 50, used to normalize mu           2.4601E-04
#  -----------------------------------------------------------------------
#  omega    e    k    mu    mu0     chi     @#
    8983.249     -7.747  -1.000  5.55158E-02  6.12691E-02 -5.75327E-03
    8983.547     -7.449  -0.960  5.92373E-02  6.59747E-02 -6.73744E-03
    8983.834     -7.162  -0.920  6.33294E-02  7.12271E-02 -7.89771E-03
    8984.108     -6.888  -0.880  6.78415E-02  7.71089E-02 -9.26734E-03
    8984.370     -6.626  -0.840  7.28304E-02  8.37165E-02 -1.08861E-02
    8984.620     -6.376  -0.800  7.83608E-02  9.11622E-02 -1.28014E-02
    8984.858     -6.138  -0.760  8.45056E-02  9.95747E-02 -1.50691E-02
    8985.084     -5.913  -0.720  9.13460E-02  1.09100E-01 -1.77543E-02
    8985.297     -5.699  -0.680  9.89695E-02  1.19900E-01 -2.09305E-02
    8985.498     -5.498  -0.640  1.07467E-01  1.32144E-01 -2.46778E-02
    8985.687     -5.309  -0.600  1.16925E-01  1.46002E-01 -2.90773E-02
    8985.864     -5.132  -0.560  1.27417E-01  1.61618E-01 -3.42007E-02
    8986.029     -4.968  -0.520  1.38985E-01  1.79078E-01 -4.00935E-02
    8986.181     -4.815  -0.480  1.51617E-01  1.98369E-01 -4.67514E-02
    8986.321     -4.675  -0.440  1.65226E-01  2.19319E-01 -5.40932E-02
    8986.449     -4.547  -0.400  1.79618E-01  2.41557E-01 -6.19390E-02
    8986.565     -4.431  -0.360  1.94492E-01  2.64499E-01 -7.00076E-02
    8986.669     -4.328  -0.320  2.09440E-01  2.87385E-01 -7.79448E-02
    8986.760     -4.236  -0.280  2.23991E-01  3.09371E-01 -8.53808E-02
    8986.839     -4.157  -0.240  2.37653E-01  3.29652E-01 -9.19991E-02
    8986.906     -4.090  -0.200  2.49968E-01  3.47555E-01 -9.75871E-02
    8986.961     -4.035  -0.160  2.60545E-01  3.62596E-01 -1.02051E-01
    8987.004     -3.992  -0.120  2.69073E-01  3.74469E-01 -1.05397E-01
    8987.034     -3.962  -0.080  2.75327E-01  3.83013E-01 -1.07686E-01
    8987.059     -3.937   0.000  2.80455E-01  3.89868E-01 -1.09414E-01
    8987.114     -3.883   0.120  2.92060E-01  4.05311E-01 -1.13251E-01
    8987.156     -3.840   0.160  3.01265E-01  4.17302E-01 -1.16036E-01
    8987.211     -3.785   0.200  3.13280E-01  4.32545E-01 -1.19264E-01
    8987.278     -3.718   0.240  3.28196E-01  4.50818E-01 -1.22622E-01
    8987.357     -3.639   0.280  3.46042E-01  4.71710E-01 -1.25668E-01
    8987.449     -3.547   0.320  3.66647E-01  4.94624E-01 -1.27977E-01
    8987.553     -3.444   0.360  3.89569E-01  5.18788E-01 -1.29220E-01
    8987.668     -3.328   0.400  4.14064E-01  5.43448E-01 -1.29384E-01
    8987.796     -3.200   0.440  4.38914E-01  5.67877E-01 -1.28963E-01
    8987.937     -3.060   0.480  4.62633E-01  5.91530E-01 -1.28897E-01
    8988.089     -2.907   0.520  4.83728E-01  6.14020E-01 -1.30293E-01
    8988.254     -2.743   0.560  5.01243E-01  6.35209E-01 -1.33966E-01
    8988.430     -2.566   0.600  5.14935E-01  6.55060E-01 -1.40125E-01
    8988.619     -2.377   0.640  5.25381E-01  6.73633E-01 -1.48252E-01
    8988.821     -2.176   0.680  5.33967E-01  6.91036E-01 -1.57069E-01
    8989.034     -1.962   0.720  5.42742E-01  7.07417E-01 -1.64675E-01
    8989.259     -1.737   0.760  5.53583E-01  7.22908E-01 -1.69325E-01
    8989.497     -1.499   0.800  5.67096E-01  7.37603E-01 -1.70507E-01
    8989.747     -1.249   0.840  5.82237E-01  7.51645E-01 -1.69408E-01
    8990.009     -0.987   0.880  5.97137E-01  7.65099E-01 -1.67962E-01
    8990.284     -0.713   0.920  6.11036E-01  7.78050E-01 -1.67014E-01
    8990.570     -0.426   0.960  6.24642E-01  7.90552E-01 -1.65910E-01
    8990.869     -0.127   1.000  6.38343E-01  8.02622E-01 -1.64279E-01
    8991.180      0.183   1.040  6.52259E-01  8.14308E-01 -1.62049E-01
    8991.503      0.506   1.080  6.68977E-01  8.25647E-01 -1.56670E-01
    8991.838      0.842   1.120  6.93803E-01  8.36629E-01 -1.42827E-01
    8992.185      1.189   1.160  7.32789E-01  8.47278E-01 -1.14488E-01
    8992.545      1.549   1.200  7.89501E-01  8.57569E-01 -6.80681E-02
    8992.917      1.921   1.240  8.60365E-01  8.67538E-01 -7.17306E-03
    8993.301      2.305   1.280  9.31678E-01  8.77176E-01  5.45017E-02
    8993.697      2.701   1.320  9.89602E-01  8.86449E-01  1.03153E-01
    8994.106      3.109   1.360  1.03857E+00  8.95385E-01  1.43187E-01
    8994.526      3.530   1.400  1.09642E+00  9.03968E-01  1.92455E-01
    8994.959      3.963   1.440  1.17244E+00  9.12201E-01  2.60242E-01
    8995.404      4.408   1.480  1.26559E+00  9.20047E-01  3.45538E-01
    8995.861      4.865   1.520  1.36972E+00  9.27528E-01  4.42193E-01
    8996.331      5.335   1.560  1.46676E+00  9.34650E-01  5.32106E-01
    8996.812      5.816   1.600  1.53458E+00  9.41392E-01  5.93191E-01
    8997.306      6.310   1.640  1.55857E+00  9.47759E-01  6.10816E-01
    8997.812      6.816   1.680  1.53199E+00  9.53753E-01  5.78236E-01
    8998.330      7.334   1.720  1.46355E+00  9.59378E-01  5.04172E-01
    8998.861      7.864   1.760  1.38516E+00  9.64637E-01  4.20520E-01
    8999.403      8.407   1.800  1.32939E+00  9.69514E-01  3.59872E-01
    8999.958      8.962   1.840  1.30557E+00  9.74056E-01  3.31516E-01
    9000.525      9.529   1.880  1.29645E+00  9.78247E-01  3.18206E-01
    9001.104     10.108   1.920  1.27245E+00  9.82092E-01  2.90358E-01
    9001.695     10.699   1.960  1.22244E+00  9.85598E-01  2.36838E-01
    9002.299     11.302   2.000  1.16127E+00  9.88790E-01  1.72476E-01
    9002.914     11.918   2.040  1.10447E+00  9.91676E-01  1.12798E-01
    9003.542     12.546   2.080  1.05823E+00  9.94263E-01  6.39689E-02
    9004.182     13.186   2.120  1.02588E+00  9.96557E-01  2.93280E-02
    9004.835     13.838   2.160  1.00453E+00  9.98587E-01  5.93832E-03
    9005.499     14.503   2.200  9.83567E-01  1.00036E+00 -1.67924E-02
    9006.176     15.180   2.240  9.58703E-01  1.00188E+00 -4.31783E-02
    9006.865     15.868   2.280  9.39659E-01  1.00318E+00 -6.35236E-02
    9007.566     16.569   2.320  9.37272E-01  1.00427E+00 -6.69978E-02
    9008.279     17.283   2.360  9.49676E-01  1.00515E+00 -5.54740E-02
    9009.004     18.008   2.400  9.63095E-01  1.00585E+00 -4.27576E-02
    9009.742     18.746   2.440  9.66106E-01  1.00638E+00 -4.02761E-02
    9010.492     19.495   2.480  9.61504E-01  1.00675E+00 -4.52421E-02
    9011.254     20.257   2.520  9.59770E-01  1.00695E+00 -4.71823E-02
    9012.028     21.032   2.560  9.65746E-01  1.00705E+00 -4.13048E-02
    9012.814     21.818   2.600  9.75241E-01  1.00702E+00 -3.17836E-02
    9013.613     22.617   2.640  9.77950E-01  1.00688E+00 -2.89294E-02
    9014.424     23.427   2.680  9.66239E-01  1.00664E+00 -4.04033E-02
    9015.247     24.250   2.720  9.42282E-01  1.00632E+00 -6.40384E-02
    9016.082     25.085   2.760  9.15977E-01  1.00592E+00 -8.99421E-02
    9016.929     25.933   2.800  9.00769E-01  1.00547E+00 -1.04696E-01
    9017.789     26.792   2.840  8.94620E-01  1.00496E+00 -1.10343E-01
    9018.660     27.664   2.880  8.94651E-01  1.00442E+00 -1.09766E-01
    9019.544     28.548   2.920  8.99351E-01  1.00383E+00 -1.04482E-01
    9020.440     29.444   2.960  9.06796E-01  1.00323E+00 -9.64365E-02
    9021.349     30.352   3.000  9.14459E-01  1.00260E+00 -8.81427E-02
    9022.269     31.273   3.040  9.20311E-01  1.00196E+00 -8.16520E-02
    9023.202     32.206   3.080  9.23851E-01  1.00132E+00 -7.74711E-02
    9024.147     33.150   3.120  9.25905E-01  1.00068E+00 -7.47763E-02
    9025.104     34.108   3.160  9.27590E-01  1.00006E+00 -7.24741E-02
    9026.073     35.077   3.200  9.29862E-01  9.99451E-01 -6.95893E-02
    9027.054     36.058   3.240  9.33142E-01  9.98846E-01 -6.57042E-02
    9028.048     37.052   3.280  9.37355E-01  9.98272E-01 -6.09168E-02
    9029.054     38.058   3.320  9.42268E-01  9.97731E-01 -5.54638E-02
    9030.072     39.076   3.360  9.47803E-01  9.97224E-01 -4.94208E-02
    9031.102     40.106   3.400  9.54102E-01  9.96732E-01 -4.26298E-02
    9032.145     41.148   3.440  9.61246E-01  9.96278E-01 -3.50326E-02
    9033.199     42.203   3.480  9.69360E-01  9.95883E-01 -2.65226E-02
    9034.266     43.270   3.520  9.78337E-01  9.95506E-01 -1.71682E-02
    9035.345     44.349   3.560  9.87972E-01  9.95190E-01 -7.21809E-03
    9036.436     45.440   3.600  9.97862E-01  9.94894E-01  2.96837E-03
    9037.540     46.543   3.640  1.00765E+00  9.94660E-01  1.29894E-02
    9038.655     47.659   3.680  1.01685E+00  9.94467E-01  2.23811E-02
    9039.783     48.787   3.720  1.02519E+00  9.94316E-01  3.08696E-02
    9040.923     49.927   3.760  1.03262E+00  9.94205E-01  3.84160E-02
    9042.075     51.079   3.800  1.03911E+00  9.94134E-01  4.49804E-02
    9043.239     52.243   3.840  1.04449E+00  9.94105E-01  5.03812E-02
    9044.416     53.420   3.880  1.04852E+00  9.94116E-01  5.44052E-02
    9045.605     54.608   3.920  1.05104E+00  9.94189E-01  5.68502E-02
    9046.805     55.809   3.960  1.05192E+00  9.94280E-01  5.76380E-02
    9048.019     57.022   4.000  1.05130E+00  9.94409E-01  5.68928E-02
    9049.244     58.248   4.040  1.04943E+00  9.94598E-01  5.48343E-02
    9050.481     59.485   4.080  1.04653E+00  9.94803E-01  5.17314E-02
    9051.731     60.735   4.120  1.04299E+00  9.95042E-01  4.79525E-02
    9052.993     61.997   4.160  1.03930E+00  9.95295E-01  4.40072E-02
    9054.267     63.271   4.200  1.03592E+00  9.95602E-01  4.03160E-02
    9055.553     64.557   4.240  1.03298E+00  9.95921E-01  3.70578E-02
    9056.852     65.855   4.280  1.03038E+00  9.96248E-01  3.41341E-02
    9058.162     67.166   4.320  1.02792E+00  9.96606E-01  3.13167E-02
    9059.485     68.489   4.360  1.02543E+00  9.96994E-01  2.84372E-02
    9060.820     69.824   4.400  1.02285E+00  9.97387E-01  2.54663E-02
    9062.167     71.171   4.440  1.02021E+00  9.97784E-01  2.24229E-02
    9063.527     72.530   4.480  1.01744E+00  9.98185E-01  1.92549E-02
    9064.898     73.902   4.520  1.01455E+00  9.98608E-01  1.59422E-02
    9066.282     75.286   4.560  1.01161E+00  9.99010E-01  1.26032E-02
    9067.678     76.682   4.600  1.00888E+00  9.99434E-01  9.44128E-03
    9069.086     78.090   4.640  1.00641E+00  9.99856E-01  6.55097E-03
    9070.507     79.510   4.680  1.00401E+00  1.00025E+00  3.76003E-03
    9071.939     80.943   4.720  1.00132E+00  1.00064E+00  6.77422E-04
    9073.384     82.388   4.760  9.98001E-01  1.00103E+00 -3.02854E-03
    9074.841     83.845   4.800  9.94044E-01  1.00141E+00 -7.36582E-03
    9076.310     85.314   4.840  9.89790E-01  1.00176E+00 -1.19700E-02
    9077.791     86.795   4.880  9.85821E-01  1.00210E+00 -1.62812E-02
    9079.285     88.289   4.920  9.82619E-01  1.00243E+00 -1.98138E-02
    9080.790     89.794   4.960  9.80388E-01  1.00271E+00 -2.23215E-02
    9082.308     91.312   5.000  9.79209E-01  1.00300E+00 -2.37862E-02
    9083.838     92.842   5.040  9.78895E-01  1.00323E+00 -2.43308E-02
    9085.381     94.385   5.080  9.79257E-01  1.00344E+00 -2.41860E-02
    9086.935     95.939   5.120  9.79986E-01  1.00365E+00 -2.36609E-02
    9088.502     97.506   5.160  9.80719E-01  1.00379E+00 -2.30732E-02
    9090.081     99.085   5.200  9.81330E-01  1.00392E+00 -2.25908E-02
    9091.672    100.676   5.240  9.81813E-01  1.00401E+00 -2.21991E-02
    9093.275    102.279   5.280  9.82303E-01  1.00407E+00 -2.17626E-02
    9094.890    103.894   5.320  9.82979E-01  1.00408E+00 -2.11020E-02
    9096.518    105.522   5.360  9.84053E-01  1.00408E+00 -2.00275E-02
    9098.158    107.162   5.400  9.85600E-01  1.00402E+00 -1.84187E-02
    9099.810    108.814   5.440  9.87609E-01  1.00394E+00 -1.63320E-02
    9101.474    110.478   5.480  9.89786E-01  1.00383E+00 -1.40400E-02
    9103.151    112.154   5.520  9.91744E-01  1.00367E+00 -1.19265E-02
    9104.839    113.843   5.560  9.93180E-01  1.00348E+00 -1.02975E-02
    9106.540    115.544   5.600  9.93961E-01  1.00325E+00 -9.28522E-03
    9108.253    117.257   5.640  9.94095E-01  1.00300E+00 -8.90478E-03
    9109.978    118.982   5.680  9.93563E-01  1.00269E+00 -9.13162E-03
    9111.715    120.719   5.720  9.92408E-01  1.00238E+00 -9.96727E-03
    9113.465    122.469   5.760  9.90643E-01  1.00202E+00 -1.13793E-02
    9115.227    124.230   5.800  9.88429E-01  1.00166E+00 -1.32314E-02
    9117.001    126.004   5.840  9.86066E-01  1.00127E+00 -1.51994E-02
    9118.787    127.790   5.880  9.84113E-01  1.00084E+00 -1.67250E-02
    9120.585    129.589   5.920  9.83299E-01  1.00038E+00 -1.70807E-02
    9122.396    131.399   5.960  9.84319E-01  9.99922E-01 -1.56029E-02
    9124.218    133.222   6.000  9.87591E-01  9.99445E-01 -1.18537E-02
