# # comment:                                                     FEFF 9.9.1  
# # Source:
# # Structure
# # Reduced
# # space
# # abc:
# # angles:109.532302
# # sites:
# # POT  SCF 100  7.0000   0, screened core-hole, AFOLP (folp(0)= 1.150)
# # Abs   Z=29 Rmt= 1.283 Rnm= 1.351 K  shell
# # Pot 1 Z= 3 Rmt= 1.567 Rnm= 1.622
# # Pot 2 Z=29 Rmt= 1.283 Rnm= 1.351
# # Pot 3 Z=15 Rmt= 0.940 Rnm= 1.155
# # Pot 4 Z= 8 Rmt= 0.918 Rnm= 1.042
# # Gam_ch=1.729E+00 H-L exch Vi= 0.000E+00 Vr= 0.000E+00
# # Mu=-6.452E+00eV kf=2.444E+00 Vint=-1.702E+01eV Rs_int= 1.484
# FMS rfms= 9.0000
# # PATH  Rmax=-1.000,  Keep_limit= 0.00, Heap_limit 0.00  Pwcrit= 2.50%
#  S02=0.950  Temp=   0.00  Debye_temp=   0.00  Global_sig2= 0.00000
#  Energy zero shift, vr, vi    0.00000E+00   0.00000E+00
#  Curved wave amplitude ratio filter   4.000%
#     file         sig2 tot  cw amp ratio   deg  nlegs   reff  inp sig2
#     0/   0 paths used
#  xsedge+ 50, used to normalize mu           2.4828E-04
#  -----------------------------------------------------------------------
#  omega    e    k    mu    mu0     chi     @#
    8983.355    -10.262  -1.000  4.20966E-02  5.37252E-02 -1.16286E-02
    8983.654     -9.963  -0.960  4.44858E-02  5.76553E-02 -1.31695E-02
    8983.940     -9.676  -0.920  4.70757E-02  6.20269E-02 -1.49513E-02
    8984.214     -9.402  -0.880  4.98898E-02  6.69056E-02 -1.70157E-02
    8984.477     -9.140  -0.840  5.29556E-02  7.23676E-02 -1.94120E-02
    8984.727     -8.890  -0.800  5.63038E-02  7.85017E-02 -2.21979E-02
    8984.964     -8.652  -0.760  5.99690E-02  8.54097E-02 -2.54406E-02
    8985.190     -8.427  -0.720  6.39897E-02  9.32066E-02 -2.92169E-02
    8985.403     -8.213  -0.680  6.84070E-02  1.02019E-01 -3.36124E-02
    8985.604     -8.012  -0.640  7.32632E-02  1.11982E-01 -3.87192E-02
    8985.793     -7.823  -0.600  7.85980E-02  1.23227E-01 -4.46292E-02
    8985.970     -7.646  -0.560  8.44435E-02  1.35867E-01 -5.14234E-02
    8986.135     -7.482  -0.520  9.08145E-02  1.49969E-01 -5.91544E-02
    8986.287     -7.329  -0.480  9.76974E-02  1.65519E-01 -6.78218E-02
    8986.427     -7.189  -0.440  1.05037E-01  1.82381E-01 -7.73445E-02
    8986.555     -7.061  -0.400  1.12723E-01  2.00259E-01 -8.75366E-02
    8986.671     -6.945  -0.360  1.20587E-01  2.18689E-01 -9.81013E-02
    8986.775     -6.842  -0.320  1.28413E-01  2.37066E-01 -1.08653E-01
    8986.866     -6.750  -0.280  1.35954E-01  2.54722E-01 -1.18768E-01
    8986.945     -6.671  -0.240  1.42963E-01  2.71014E-01 -1.28051E-01
    8987.013     -6.604  -0.200  1.49221E-01  2.85404E-01 -1.36183E-01
    8987.067     -6.549  -0.160  1.54551E-01  2.97502E-01 -1.42951E-01
    8987.110     -6.507  -0.120  1.58823E-01  3.07060E-01 -1.48237E-01
    8987.141     -6.476  -0.080  1.61947E-01  3.13942E-01 -1.51995E-01
    8987.165     -6.452   0.000  1.64518E-01  3.19469E-01 -1.54951E-01
    8987.220     -6.397   0.120  1.70182E-01  3.31929E-01 -1.61748E-01
    8987.262     -6.354   0.160  1.74628E-01  3.41594E-01 -1.66967E-01
    8987.317     -6.299   0.200  1.80388E-01  3.53939E-01 -1.73552E-01
    8987.384     -6.232   0.240  1.87491E-01  3.68746E-01 -1.81255E-01
    8987.464     -6.153   0.280  1.95980E-01  3.85742E-01 -1.89762E-01
    8987.555     -6.062   0.320  2.05831E-01  4.04432E-01 -1.98601E-01
    8987.659     -5.958   0.360  2.17062E-01  4.24279E-01 -2.07217E-01
    8987.774     -5.842   0.400  2.29682E-01  4.44666E-01 -2.14984E-01
    8987.903     -5.714   0.440  2.43695E-01  4.65033E-01 -2.21338E-01
    8988.043     -5.574   0.480  2.59125E-01  4.85003E-01 -2.25878E-01
    8988.195     -5.421   0.520  2.75653E-01  5.04247E-01 -2.28594E-01
    8988.360     -5.257   0.560  2.92708E-01  5.22687E-01 -2.29979E-01
    8988.536     -5.080   0.600  3.09056E-01  5.40254E-01 -2.31198E-01
    8988.725     -4.891   0.640  3.23194E-01  5.57048E-01 -2.33854E-01
    8988.927     -4.690   0.680  3.33773E-01  5.73110E-01 -2.39337E-01
    8989.140     -4.477   0.720  3.40683E-01  5.88599E-01 -2.47915E-01
    8989.366     -4.251   0.760  3.45490E-01  6.03567E-01 -2.58076E-01
    8989.603     -4.013   0.800  3.51225E-01  6.18141E-01 -2.66916E-01
    8989.853     -3.763   0.840  3.60995E-01  6.32396E-01 -2.71402E-01
    8990.115     -3.501   0.880  3.76994E-01  6.46389E-01 -2.69395E-01
    8990.390     -3.227   0.920  4.00209E-01  6.60164E-01 -2.59955E-01
    8990.676     -2.940   0.960  4.30054E-01  6.73777E-01 -2.43723E-01
    8990.975     -2.642   1.000  4.63753E-01  6.87249E-01 -2.23496E-01
    8991.286     -2.331   1.040  4.98402E-01  7.00572E-01 -2.02169E-01
    8991.609     -2.008   1.080  5.34156E-01  7.13791E-01 -1.79635E-01
    8991.944     -1.672   1.120  5.73567E-01  7.26883E-01 -1.53316E-01
    8992.292     -1.325   1.160  6.18763E-01  7.39861E-01 -1.21098E-01
    8992.651     -0.965   1.200  6.68252E-01  7.52694E-01 -8.44412E-02
    8993.023     -0.593   1.240  7.16954E-01  7.65384E-01 -4.84292E-02
    8993.407     -0.209   1.280  7.61351E-01  7.77913E-01 -1.65625E-02
    8993.803      0.187   1.320  8.00060E-01  7.90261E-01  9.79971E-03
    8994.212      0.595   1.360  8.30501E-01  8.02402E-01  2.80990E-02
    8994.632      1.016   1.400  8.53005E-01  8.14336E-01  3.86694E-02
    8995.065      1.449   1.440  8.73548E-01  8.26033E-01  4.75149E-02
    8995.510      1.894   1.480  8.99053E-01  8.37448E-01  6.16051E-02
    8995.967      2.351   1.520  9.32172E-01  8.48595E-01  8.35761E-02
    8996.437      2.820   1.560  9.70653E-01  8.59448E-01  1.11205E-01
    8996.918      3.302   1.600  1.01141E+00  8.69981E-01  1.41430E-01
    8997.412      3.796   1.640  1.05296E+00  8.80186E-01  1.72774E-01
    8997.918      4.302   1.680  1.09579E+00  8.90037E-01  2.05749E-01
    8998.436      4.820   1.720  1.13559E+00  8.99509E-01  2.36084E-01
    8998.967      5.350   1.760  1.16539E+00  9.08617E-01  2.56772E-01
    8999.509      5.893   1.800  1.18913E+00  9.17337E-01  2.71795E-01
    9000.064      6.447   1.840  1.21859E+00  9.25646E-01  2.92945E-01
    9000.631      7.014   1.880  1.24786E+00  9.33562E-01  3.14296E-01
    9001.210      7.593   1.920  1.26062E+00  9.41061E-01  3.19560E-01
    9001.801      8.185   1.960  1.26136E+00  9.48145E-01  3.13219E-01
    9002.405      8.788   2.000  1.26276E+00  9.54833E-01  3.07928E-01
    9003.021      9.404   2.040  1.26121E+00  9.61085E-01  3.00128E-01
    9003.648     10.032   2.080  1.24831E+00  9.66943E-01  2.81365E-01
    9004.288     10.672   2.120  1.22414E+00  9.72371E-01  2.51774E-01
    9004.941     11.324   2.160  1.19553E+00  9.77411E-01  2.18118E-01
    9005.605     11.989   2.200  1.16948E+00  9.82069E-01  1.87414E-01
    9006.282     12.665   2.240  1.15039E+00  9.86326E-01  1.64060E-01
    9006.971     13.354   2.280  1.14001E+00  9.90208E-01  1.49807E-01
    9007.672     14.055   2.320  1.13320E+00  9.93701E-01  1.39502E-01
    9008.385     14.768   2.360  1.12194E+00  9.96873E-01  1.25071E-01
    9009.110     15.494   2.400  1.10242E+00  9.99688E-01  1.02732E-01
    9009.848     16.231   2.440  1.07501E+00  1.00217E+00  7.28388E-02
    9010.598     16.981   2.480  1.04547E+00  1.00434E+00  4.11302E-02
    9011.360     17.743   2.520  1.02181E+00  1.00621E+00  1.56084E-02
    9012.134     18.517   2.560  1.00548E+00  1.00777E+00 -2.29087E-03
    9012.920     19.304   2.600  9.90962E-01  1.00909E+00 -1.81277E-02
    9013.719     20.102   2.640  9.73041E-01  1.01014E+00 -3.70995E-02
    9014.530     20.913   2.680  9.51474E-01  1.01095E+00 -5.94740E-02
    9015.353     21.736   2.720  9.27546E-01  1.01154E+00 -8.39941E-02
    9016.188     22.571   2.760  9.00981E-01  1.01190E+00 -1.10922E-01
    9017.035     23.419   2.800  8.74039E-01  1.01209E+00 -1.38048E-01
    9017.895     24.278   2.840  8.56136E-01  1.01208E+00 -1.55940E-01
    9018.766     25.150   2.880  8.49916E-01  1.01192E+00 -1.62006E-01
    9019.650     26.034   2.920  8.51559E-01  1.01159E+00 -1.60030E-01
    9020.546     26.930   2.960  8.57966E-01  1.01115E+00 -1.53179E-01
    9021.455     27.838   3.000  8.66815E-01  1.01056E+00 -1.43743E-01
    9022.375     28.759   3.040  8.76679E-01  1.00987E+00 -1.33195E-01
    9023.308     29.691   3.080  8.86554E-01  1.00908E+00 -1.22525E-01
    9024.253     30.636   3.120  8.96007E-01  1.00820E+00 -1.12192E-01
    9025.210     31.593   3.160  9.05007E-01  1.00726E+00 -1.02254E-01
    9026.179     32.563   3.200  9.13436E-01  1.00625E+00 -9.28127E-02
    9027.161     33.544   3.240  9.21282E-01  1.00517E+00 -8.38862E-02
    9028.154     34.538   3.280  9.28423E-01  1.00407E+00 -7.56450E-02
    9029.160     35.544   3.320  9.34726E-01  1.00293E+00 -6.82047E-02
    9030.178     36.562   3.360  9.40584E-01  1.00178E+00 -6.11986E-02
    9031.208     37.592   3.400  9.46673E-01  1.00061E+00 -5.39317E-02
    9032.251     38.634   3.440  9.53603E-01  9.99445E-01 -4.58424E-02
    9033.305     39.689   3.480  9.61482E-01  9.98264E-01 -3.67826E-02
    9034.372     40.756   3.520  9.70217E-01  9.97086E-01 -2.68691E-02
    9035.451     41.835   3.560  9.79548E-01  9.95956E-01 -1.64079E-02
    9036.542     42.926   3.600  9.89050E-01  9.94814E-01 -5.76352E-03
    9037.646     44.029   3.640  9.98482E-01  9.93706E-01  4.77614E-03
    9038.761     45.145   3.680  1.00761E+00  9.92654E-01  1.49585E-02
    9039.889     46.272   3.720  1.01615E+00  9.91619E-01  2.45308E-02
    9041.029     47.412   3.760  1.02397E+00  9.90623E-01  3.33476E-02
    9042.181     48.565   3.800  1.03104E+00  9.89669E-01  4.13701E-02
    9043.345     49.729   3.840  1.03729E+00  9.88780E-01  4.85114E-02
    9044.522     50.905   3.880  1.04264E+00  9.87934E-01  5.47032E-02
    9045.711     52.094   3.920  1.04693E+00  9.87134E-01  5.97998E-02
    9046.912     53.295   3.960  1.04993E+00  9.86381E-01  6.35464E-02
    9048.125     54.508   4.000  1.05138E+00  9.85717E-01  6.56627E-02
    9049.350     55.733   4.040  1.05119E+00  9.85081E-01  6.61069E-02
    9050.587     56.971   4.080  1.04953E+00  9.84516E-01  6.50182E-02
    9051.837     58.221   4.120  1.04667E+00  9.84019E-01  6.26514E-02
    9053.099     59.482   4.160  1.04289E+00  9.83573E-01  5.93164E-02
    9054.373     60.756   4.200  1.03850E+00  9.83198E-01  5.52999E-02
    9055.659     62.043   4.240  1.03367E+00  9.82870E-01  5.08028E-02
    9056.958     63.341   4.280  1.02860E+00  9.82590E-01  4.60140E-02
    9058.268     64.652   4.320  1.02357E+00  9.82401E-01  4.11723E-02
    9059.591     65.975   4.360  1.01871E+00  9.82239E-01  3.64742E-02
    9060.926     67.310   4.400  1.01423E+00  9.82147E-01  3.20797E-02
    9062.273     68.657   4.440  1.01022E+00  9.82121E-01  2.81021E-02
    9063.633     70.016   4.480  1.00666E+00  9.82120E-01  2.45401E-02
    9065.004     71.388   4.520  1.00346E+00  9.82185E-01  2.12724E-02
    9066.388     72.772   4.560  1.00040E+00  9.82317E-01  1.80862E-02
    9067.784     74.168   4.600  9.97188E-01  9.82470E-01  1.47181E-02
    9069.192     75.576   4.640  9.93621E-01  9.82683E-01  1.09375E-02
    9070.613     76.996   4.680  9.89551E-01  9.82916E-01  6.63530E-03
    9072.045     78.429   4.720  9.85018E-01  9.83208E-01  1.80991E-03
    9073.490     79.873   4.760  9.80087E-01  9.83515E-01 -3.42820E-03
    9074.947     81.330   4.800  9.74996E-01  9.83859E-01 -8.86249E-03
    9076.416     82.799   4.840  9.70038E-01  9.84238E-01 -1.41997E-02
    9077.897     84.281   4.880  9.65575E-01  9.84649E-01 -1.90732E-02
    9079.391     85.774   4.920  9.61975E-01  9.85068E-01 -2.30937E-02
    9080.897     87.280   4.960  9.59515E-01  9.85495E-01 -2.59807E-02
    9082.415     88.798   5.000  9.58325E-01  9.85949E-01 -2.76236E-02
    9083.945     90.328   5.040  9.58258E-01  9.86408E-01 -2.81502E-02
    9085.487     91.870   5.080  9.58981E-01  9.86870E-01 -2.78889E-02
    9087.041     93.425   5.120  9.60097E-01  9.87356E-01 -2.72581E-02
    9088.608     94.991   5.160  9.61119E-01  9.87821E-01 -2.67025E-02
    9090.187     96.570   5.200  9.61772E-01  9.88306E-01 -2.65342E-02
    9091.778     98.161   5.240  9.61868E-01  9.88765E-01 -2.68976E-02
    9093.381     99.765   5.280  9.61512E-01  9.89219E-01 -2.77065E-02
    9094.997    101.380   5.320  9.60999E-01  9.89666E-01 -2.86670E-02
    9096.624    103.008   5.360  9.60717E-01  9.90082E-01 -2.93648E-02
    9098.264    104.647   5.400  9.61067E-01  9.90466E-01 -2.93989E-02
    9099.916    106.299   5.440  9.62344E-01  9.90861E-01 -2.85171E-02
    9101.580    107.964   5.480  9.64525E-01  9.91202E-01 -2.66769E-02
    9103.257    109.640   5.520  9.67506E-01  9.91530E-01 -2.40244E-02
    9104.945    111.329   5.560  9.71000E-01  9.91824E-01 -2.08234E-02
    9106.646    113.029   5.600  9.74745E-01  9.92102E-01 -1.73571E-02
    9108.359    114.742   5.640  9.78432E-01  9.92321E-01 -1.38888E-02
    9110.084    116.468   5.680  9.81937E-01  9.92521E-01 -1.05843E-02
    9111.821    118.205   5.720  9.85243E-01  9.92660E-01 -7.41679E-03
    9113.571    119.954   5.760  9.88596E-01  9.92780E-01 -4.18405E-03
    9115.333    121.716   5.800  9.92121E-01  9.92839E-01 -7.18527E-04
    9117.107    123.490   5.840  9.95793E-01  9.92881E-01  2.91258E-03
    9118.893    125.276   5.880  9.99280E-01  9.92859E-01  6.42124E-03
    9120.691    127.075   5.920  1.00227E+00  9.92818E-01  9.45167E-03
    9122.502    128.885   5.960  1.00442E+00  9.92709E-01  1.17060E-02
    9124.324    130.708   6.000  1.00557E+00  9.92530E-01  1.30414E-02
