# # comment:                                                     FEFF 9.9.1  
# # Source:
# # Structure
# # Reduced
# # space
# # abc:
# # angles:
# # sites:
# # POT  SCF 100  7.0000   0, screened core-hole, AFOLP (folp(0)= 1.150)
# # Abs   Z=29 Rmt= 1.152 Rnm= 1.279 K  shell
# # Pot 1 Z=56 Rmt= 1.930 Rnm= 1.986
# # Pot 2 Z=70 Rmt= 1.632 Rnm= 1.704
# # Pot 3 Z=29 Rmt= 1.152 Rnm= 1.279
# # Pot 4 Z= 8 Rmt= 1.076 Rnm= 1.130
# # Gam_ch=1.729E+00 H-L exch Vi= 0.000E+00 Vr= 0.000E+00
# # Mu=-8.695E+00eV kf=2.032E+00 Vint=-1.738E+01eV Rs_int= 1.785
# FMS rfms= 9.0000
# # PATH  Rmax=-1.000,  Keep_limit= 0.00, Heap_limit 0.00  Pwcrit= 2.50%
#  S02=0.950  Temp=   0.00  Debye_temp=   0.00  Global_sig2= 0.00000
#  Energy zero shift, vr, vi    0.00000E+00   0.00000E+00
#  Curved wave amplitude ratio filter   4.000%
#     file         sig2 tot  cw amp ratio   deg  nlegs   reff  inp sig2
#     0/   0 paths used
#  xsedge+ 50, used to normalize mu           2.4741E-04
#  -----------------------------------------------------------------------
#  omega    e    k    mu    mu0     chi     @#
    8984.286    -12.505  -1.000  3.57387E-02  5.35897E-02 -1.78510E-02
    8984.584    -12.206  -0.960  3.76957E-02  5.74566E-02 -1.97609E-02
    8984.871    -11.919  -0.920  3.98406E-02  6.17507E-02 -2.19101E-02
    8985.145    -11.645  -0.880  4.22032E-02  6.65347E-02 -2.43315E-02
    8985.407    -11.383  -0.840  4.48191E-02  7.18814E-02 -2.70623E-02
    8985.657    -11.133  -0.800  4.77308E-02  7.78753E-02 -3.01445E-02
    8985.895    -10.895  -0.760  5.09884E-02  8.46131E-02 -3.36246E-02
    8986.120    -10.670  -0.720  5.46503E-02  9.22041E-02 -3.75538E-02
    8986.334    -10.456  -0.680  5.87824E-02  1.00769E-01 -4.19864E-02
    8986.535    -10.255  -0.640  6.34563E-02  1.10434E-01 -4.69777E-02
    8986.724    -10.066  -0.600  6.87443E-02  1.21325E-01 -5.25802E-02
    8986.901     -9.890  -0.560  7.47099E-02  1.33546E-01 -5.88365E-02
    8987.065     -9.725  -0.520  8.13926E-02  1.47163E-01 -6.57700E-02
    8987.218     -9.573  -0.480  8.87871E-02  1.62159E-01 -7.33716E-02
    8987.358     -9.432  -0.440  9.68185E-02  1.78403E-01 -8.15846E-02
    8987.486     -9.304  -0.400  1.05323E-01  1.95614E-01 -9.02911E-02
    8987.602     -9.188  -0.360  1.14042E-01  2.13348E-01 -9.93056E-02
    8987.705     -9.085  -0.320  1.22649E-01  2.31030E-01 -1.08381E-01
    8987.797     -8.993  -0.280  1.30793E-01  2.48020E-01 -1.17227E-01
    8987.876     -8.914  -0.240  1.38161E-01  2.63705E-01 -1.25544E-01
    8987.943     -8.847  -0.200  1.44520E-01  2.77568E-01 -1.33048E-01
    8987.998     -8.792  -0.160  1.49735E-01  2.89232E-01 -1.39497E-01
    8988.041     -8.750  -0.120  1.53753E-01  2.98455E-01 -1.44701E-01
    8988.071     -8.719  -0.080  1.56571E-01  3.05100E-01 -1.48529E-01
    8988.096     -8.695   0.000  1.58730E-01  3.10441E-01 -1.51711E-01
    8988.150     -8.640   0.120  1.63616E-01  3.22475E-01 -1.58860E-01
    8988.193     -8.597   0.160  1.67371E-01  3.31839E-01 -1.64467E-01
    8988.248     -8.542   0.200  1.71998E-01  3.43793E-01 -1.71795E-01
    8988.315     -8.475   0.240  1.77277E-01  3.58181E-01 -1.80904E-01
    8988.394     -8.396   0.280  1.82880E-01  3.74720E-01 -1.91840E-01
    8988.486     -8.305   0.320  1.88352E-01  3.92999E-01 -2.04647E-01
    8988.589     -8.201   0.360  1.93169E-01  4.12483E-01 -2.19314E-01
    8988.705     -8.085   0.400  1.96787E-01  4.32625E-01 -2.35838E-01
    8988.833     -7.957   0.440  1.98734E-01  4.52905E-01 -2.54171E-01
    8988.973     -7.817   0.480  1.98763E-01  4.72957E-01 -2.74194E-01
    8989.126     -7.665   0.520  1.96902E-01  4.92516E-01 -2.95614E-01
    8989.290     -7.500   0.560  1.93652E-01  5.11427E-01 -3.17775E-01
    8989.467     -7.323   0.600  1.89956E-01  5.29700E-01 -3.39744E-01
    8989.656     -7.134   0.640  1.86877E-01  5.47389E-01 -3.60512E-01
    8989.857     -6.933   0.680  1.85293E-01  5.64525E-01 -3.79232E-01
    8990.071     -6.720   0.720  1.85791E-01  5.81230E-01 -3.95438E-01
    8990.296     -6.494   0.760  1.88664E-01  5.97585E-01 -4.08921E-01
    8990.534     -6.256   0.800  1.93948E-01  6.13643E-01 -4.19694E-01
    8990.784     -6.006   0.840  2.01884E-01  6.29482E-01 -4.27598E-01
    8991.046     -5.744   0.880  2.13052E-01  6.45150E-01 -4.32097E-01
    8991.320     -5.470   0.920  2.28496E-01  6.60678E-01 -4.32182E-01
    8991.607     -5.183   0.960  2.49487E-01  6.76067E-01 -4.26580E-01
    8991.906     -4.885   1.000  2.76946E-01  6.91348E-01 -4.14402E-01
    8992.216     -4.574   1.040  3.10117E-01  7.06523E-01 -3.96406E-01
    8992.539     -4.251   1.080  3.45170E-01  7.21567E-01 -3.76396E-01
    8992.875     -3.915   1.120  3.77758E-01  7.36466E-01 -3.58708E-01
    8993.222     -3.568   1.160  4.10222E-01  7.51224E-01 -3.41002E-01
    8993.582     -3.208   1.200  4.51539E-01  7.65780E-01 -3.14241E-01
    8993.954     -2.836   1.240  5.08161E-01  7.80131E-01 -2.71971E-01
    8994.338     -2.452   1.280  5.74796E-01  7.94251E-01 -2.19455E-01
    8994.734     -2.056   1.320  6.32347E-01  8.08088E-01 -1.75741E-01
    8995.142     -1.648   1.360  6.62807E-01  8.21637E-01 -1.58830E-01
    8995.563     -1.227   1.400  6.72551E-01  8.34847E-01 -1.62296E-01
    8995.996     -0.794   1.440  6.81680E-01  8.47708E-01 -1.66028E-01
    8996.441     -0.349   1.480  6.84075E-01  8.60189E-01 -1.76114E-01
    8996.898      0.108   1.520  6.60213E-01  8.72280E-01 -2.12067E-01
    8997.368      0.577   1.560  6.28218E-01  8.83913E-01 -2.55695E-01
    8997.849      1.059   1.600  6.20037E-01  8.95100E-01 -2.75062E-01
    8998.343      1.553   1.640  6.56139E-01  9.05813E-01 -2.49675E-01
    8998.849      2.059   1.680  7.50411E-01  9.16047E-01 -1.65636E-01
    8999.367      2.577   1.720  8.93708E-01  9.25796E-01 -3.20885E-02
    8999.897      3.107   1.760  1.02145E+00  9.35018E-01  8.64272E-02
    9000.440      3.650   1.800  1.08391E+00  9.43732E-01  1.40181E-01
    9000.995      4.204   1.840  1.11625E+00  9.51935E-01  1.64317E-01
    9001.562      4.771   1.880  1.15517E+00  9.59628E-01  1.95542E-01
    9002.141      5.350   1.920  1.21428E+00  9.66793E-01  2.47483E-01
    9002.732      5.942   1.960  1.25864E+00  9.73451E-01  2.85193E-01
    9003.335      6.545   2.000  1.25387E+00  9.79587E-01  2.74281E-01
    9003.951      7.161   2.040  1.23763E+00  9.85247E-01  2.52387E-01
    9004.579      7.789   2.080  1.25509E+00  9.90416E-01  2.64670E-01
    9005.219      8.429   2.120  1.31680E+00  9.95101E-01  3.21701E-01
    9005.871      9.081   2.160  1.39889E+00  9.99331E-01  3.99555E-01
    9006.536      9.746   2.200  1.44654E+00  1.00313E+00  4.43405E-01
    9007.213     10.422   2.240  1.42615E+00  1.00649E+00  4.19653E-01
    9007.901     11.111   2.280  1.35893E+00  1.00945E+00  3.49483E-01
    9008.602     11.812   2.320  1.28192E+00  1.01202E+00  2.69904E-01
    9009.316     12.525   2.360  1.21567E+00  1.01422E+00  2.01444E-01
    9010.041     13.251   2.400  1.16894E+00  1.01606E+00  1.52877E-01
    9010.779     13.988   2.440  1.14378E+00  1.01758E+00  1.26206E-01
    9011.528     14.738   2.480  1.12994E+00  1.01879E+00  1.11155E-01
    9012.290     15.500   2.520  1.11546E+00  1.01969E+00  9.57671E-02
    9013.065     16.274   2.560  1.09962E+00  1.02033E+00  7.92876E-02
    9013.851     17.061   2.600  1.08380E+00  1.02073E+00  6.30727E-02
    9014.650     17.859   2.640  1.06808E+00  1.02088E+00  4.71949E-02
    9015.460     18.670   2.680  1.05178E+00  1.02083E+00  3.09500E-02
    9016.283     19.493   2.720  1.03538E+00  1.02057E+00  1.48096E-02
    9017.118     20.328   2.760  1.02037E+00  1.02014E+00  2.25726E-04
    9017.966     21.176   2.800  1.00757E+00  1.01956E+00 -1.19883E-02
    9018.825     22.035   2.840  9.97424E-01  1.01883E+00 -2.14084E-02
    9019.697     22.907   2.880  9.89671E-01  1.01796E+00 -2.82930E-02
    9020.581     23.791   2.920  9.83647E-01  1.01700E+00 -3.33522E-02
    9021.477     24.687   2.960  9.78523E-01  1.01594E+00 -3.74208E-02
    9022.385     25.595   3.000  9.73448E-01  1.01478E+00 -4.13367E-02
    9023.306     26.516   3.040  9.67711E-01  1.01357E+00 -4.58595E-02
    9024.239     27.448   3.080  9.60835E-01  1.01231E+00 -5.14724E-02
    9025.183     28.393   3.120  9.52863E-01  1.01100E+00 -5.81376E-02
    9026.141     29.350   3.160  9.43924E-01  1.00963E+00 -6.57098E-02
    9027.110     30.320   3.200  9.34169E-01  1.00828E+00 -7.41068E-02
    9028.091     31.301   3.240  9.23484E-01  1.00689E+00 -8.34064E-02
    9029.085     32.295   3.280  9.11605E-01  1.00550E+00 -9.38945E-02
    9030.091     33.300   3.320  8.98516E-01  1.00411E+00 -1.05594E-01
    9031.109     34.318   3.360  8.84943E-01  1.00273E+00 -1.17782E-01
    9032.139     35.349   3.400  8.72441E-01  1.00137E+00 -1.28929E-01
    9033.181     36.391   3.440  8.62290E-01  1.00005E+00 -1.37756E-01
    9034.236     37.446   3.480  8.55301E-01  9.98739E-01 -1.43437E-01
    9035.303     38.513   3.520  8.51852E-01  9.97489E-01 -1.45637E-01
    9036.382     39.591   3.560  8.51852E-01  9.96260E-01 -1.44408E-01
    9037.473     40.683   3.600  8.55052E-01  9.95094E-01 -1.40043E-01
    9038.576     41.786   3.640  8.61368E-01  9.93975E-01 -1.32607E-01
    9039.692     42.902   3.680  8.70973E-01  9.92923E-01 -1.21950E-01
    9040.820     44.029   3.720  8.83838E-01  9.91918E-01 -1.08081E-01
    9041.960     45.169   3.760  8.99668E-01  9.90962E-01 -9.12936E-02
    9043.112     46.321   3.800  9.17766E-01  9.90076E-01 -7.23103E-02
    9044.276     47.486   3.840  9.36909E-01  9.89263E-01 -5.23540E-02
    9045.453     48.662   3.880  9.55605E-01  9.88501E-01 -3.28963E-02
    9046.641     49.851   3.920  9.72600E-01  9.87813E-01 -1.52136E-02
    9047.842     51.052   3.960  9.87064E-01  9.87199E-01 -1.34855E-04
    9049.055     52.265   4.000  9.98878E-01  9.86636E-01  1.22413E-02
    9050.281     53.490   4.040  1.00878E+00  9.86148E-01  2.26302E-02
    9051.518     54.728   4.080  1.01789E+00  9.85733E-01  3.21552E-02
    9052.768     55.977   4.120  1.02712E+00  9.85370E-01  4.17489E-02
    9054.030     57.239   4.160  1.03685E+00  9.85080E-01  5.17694E-02
    9055.304     58.513   4.200  1.04661E+00  9.84862E-01  6.17434E-02
    9056.590     59.800   4.240  1.05514E+00  9.84696E-01  7.04423E-02
    9057.888     61.098   4.280  1.06101E+00  9.84600E-01  7.64054E-02
    9059.199     62.409   4.320  1.06323E+00  9.84554E-01  7.86799E-02
    9060.522     63.732   4.360  1.06176E+00  9.84577E-01  7.71868E-02
    9061.857     65.067   4.400  1.05745E+00  9.84647E-01  7.28006E-02
    9063.204     66.414   4.440  1.05182E+00  9.84783E-01  6.70387E-02
    9064.563     67.773   4.480  1.04647E+00  9.84942E-01  6.15290E-02
    9065.935     69.145   4.520  1.04274E+00  9.85164E-01  5.75721E-02
    9067.319     70.529   4.560  1.04137E+00  9.85429E-01  5.59362E-02
    9068.715     71.925   4.600  1.04238E+00  9.85735E-01  5.66463E-02
    9070.123     73.333   4.640  1.04495E+00  9.86081E-01  5.88648E-02
    9071.543     74.753   4.680  1.04751E+00  9.86463E-01  6.10508E-02
    9072.976     76.186   4.720  1.04837E+00  9.86881E-01  6.14904E-02
    9074.421     77.630   4.760  1.04625E+00  9.87312E-01  5.89408E-02
    9075.878     79.087   4.800  1.04089E+00  9.87776E-01  5.31131E-02
    9077.347     80.556   4.840  1.03296E+00  9.88271E-01  4.46893E-02
    9078.828     82.038   4.880  1.02367E+00  9.88774E-01  3.48968E-02
    9080.322     83.531   4.920  1.01427E+00  9.89281E-01  2.49902E-02
    9081.827     85.037   4.960  1.00571E+00  9.89815E-01  1.58922E-02
    9083.345     86.555   5.000  9.98521E-01  9.90350E-01  8.17137E-03
    9084.875     88.085   5.040  9.92993E-01  9.90864E-01  2.12949E-03
    9086.418     89.627   5.080  9.89222E-01  9.91399E-01 -2.17764E-03
    9087.972     91.182   5.120  9.87088E-01  9.91934E-01 -4.84662E-03
    9089.539     92.748   5.160  9.86419E-01  9.92465E-01 -6.04579E-03
    9091.117     94.327   5.200  9.86968E-01  9.92968E-01 -6.00040E-03
    9092.709     95.918   5.240  9.88276E-01  9.93462E-01 -5.18545E-03
    9094.312     97.522   5.280  9.89531E-01  9.93925E-01 -4.39483E-03
    9095.927     99.137   5.320  9.89892E-01  9.94381E-01 -4.48956E-03
    9097.555    100.765   5.360  9.88847E-01  9.94827E-01 -5.97973E-03
    9099.195    102.404   5.400  9.86362E-01  9.95239E-01 -8.87635E-03
    9100.847    104.056   5.440  9.82719E-01  9.95614E-01 -1.28953E-02
    9102.511    105.721   5.480  9.78269E-01  9.95953E-01 -1.76837E-02
    9104.187    107.397   5.520  9.73480E-01  9.96277E-01 -2.27972E-02
    9105.876    109.086   5.560  9.68990E-01  9.96563E-01 -2.75724E-02
    9107.577    110.786   5.600  9.65622E-01  9.96786E-01 -3.11643E-02
    9109.290    112.499   5.640  9.64364E-01  9.96992E-01 -3.26278E-02
    9111.015    114.225   5.680  9.65626E-01  9.97160E-01 -3.15344E-02
    9112.752    115.962   5.720  9.68956E-01  9.97287E-01 -2.83313E-02
    9114.502    117.711   5.760  9.73101E-01  9.97372E-01 -2.42717E-02
    9116.263    119.473   5.800  9.76433E-01  9.97393E-01 -2.09597E-02
    9118.037    121.247   5.840  9.77587E-01  9.97394E-01 -1.98068E-02
    9119.823    123.033   5.880  9.75612E-01  9.97332E-01 -2.17194E-02
    9121.622    124.832   5.920  9.70478E-01  9.97252E-01 -2.67741E-02
    9123.432    126.642   5.960  9.63180E-01  9.97102E-01 -3.39226E-02
    9125.255    128.465   6.000  9.55650E-01  9.96879E-01 -4.12290E-02
