# # comment:                                                     FEFF 9.9.1  
# # Source:
# # Structure
# # Reduced
# # space
# # abc:
# # angles:
# # sites:
# # POT  SCF 100  7.0000   0, screened core-hole, AFOLP (folp(0)= 1.150)
# # Abs   Z=29 Rmt= 1.364 Rnm= 1.421 K  shell
# # Pot 1 Z= 3 Rmt= 1.284 Rnm= 1.343
# # Pot 2 Z=29 Rmt= 1.319 Rnm= 1.393
# # Pot 3 Z=15 Rmt= 0.947 Rnm= 1.156
# # Pot 4 Z= 8 Rmt= 0.931 Rnm= 1.032
# # Gam_ch=1.729E+00 H-L exch Vi= 0.000E+00 Vr= 0.000E+00
# # Mu=-5.947E+00eV kf=2.390E+00 Vint=-1.720E+01eV Rs_int= 1.518
# FMS rfms= 9.0000
# # PATH  Rmax=-1.000,  Keep_limit= 0.00, Heap_limit 0.00  Pwcrit= 2.50%
#  S02=0.950  Temp=   0.00  Debye_temp=   0.00  Global_sig2= 0.00000
#  Energy zero shift, vr, vi    0.00000E+00   0.00000E+00
#  Curved wave amplitude ratio filter   4.000%
#     file         sig2 tot  cw amp ratio   deg  nlegs   reff  inp sig2
#     0/   0 paths used
#  xsedge+ 50, used to normalize mu           2.4694E-04
#  -----------------------------------------------------------------------
#  omega    e    k    mu    mu0     chi     @#
    8983.535     -9.757  -1.000  5.06159E-02  5.48563E-02 -4.24034E-03
    8983.833     -9.458  -0.960  5.39020E-02  5.88785E-02 -4.97647E-03
    8984.120     -9.172  -0.920  5.75089E-02  6.33531E-02 -5.84418E-03
    8984.394     -8.897  -0.880  6.14798E-02  6.83474E-02 -6.86761E-03
    8984.656     -8.635  -0.840  6.58644E-02  7.39398E-02 -8.07533E-03
    8984.906     -8.385  -0.800  7.07203E-02  8.02211E-02 -9.50088E-03
    8985.144     -8.147  -0.760  7.61127E-02  8.72960E-02 -1.11833E-02
    8985.369     -7.922  -0.720  8.21150E-02  9.52826E-02 -1.31675E-02
    8985.583     -7.708  -0.680  8.88077E-02  1.04311E-01 -1.55034E-02
    8985.784     -7.507  -0.640  9.62745E-02  1.14519E-01 -1.82448E-02
    8985.973     -7.318  -0.600  1.04597E-01  1.26043E-01 -2.14457E-02
    8986.150     -7.142  -0.560  1.13843E-01  1.38997E-01 -2.51539E-02
    8986.314     -6.977  -0.520  1.24051E-01  1.53452E-01 -2.94010E-02
    8986.467     -6.825  -0.480  1.35205E-01  1.69393E-01 -3.41884E-02
    8986.607     -6.684  -0.440  1.47210E-01  1.86681E-01 -3.94709E-02
    8986.735     -6.556  -0.400  1.59867E-01  2.05011E-01 -4.51433E-02
    8986.851     -6.441  -0.360  1.72870E-01  2.23906E-01 -5.10363E-02
    8986.954     -6.337  -0.320  1.85820E-01  2.42749E-01 -5.69293E-02
    8987.046     -6.245  -0.280  1.98271E-01  2.60851E-01 -6.25798E-02
    8987.125     -6.166  -0.240  2.09792E-01  2.77553E-01 -6.77611E-02
    8987.192     -6.099  -0.200  2.20011E-01  2.92305E-01 -7.22934E-02
    8987.247     -6.044  -0.160  2.28647E-01  3.04706E-01 -7.60583E-02
    8987.290     -6.002  -0.120  2.35506E-01  3.14502E-01 -7.89958E-02
    8987.320     -5.971  -0.080  2.40468E-01  3.21556E-01 -8.10880E-02
    8987.344     -5.947   0.000  2.44463E-01  3.27220E-01 -8.27563E-02
    8987.399     -5.892   0.120  2.53517E-01  3.39991E-01 -8.64743E-02
    8987.442     -5.849   0.160  2.60593E-01  3.49892E-01 -8.92993E-02
    8987.497     -5.794   0.200  2.69725E-01  3.62542E-01 -9.28173E-02
    8987.564     -5.727   0.240  2.80839E-01  3.77715E-01 -9.68762E-02
    8987.643     -5.648   0.280  2.93827E-01  3.95108E-01 -1.01281E-01
    8987.735     -5.557   0.320  3.08472E-01  4.14234E-01 -1.05762E-01
    8987.838     -5.453   0.360  3.24510E-01  4.34536E-01 -1.10026E-01
    8987.954     -5.337   0.400  3.41537E-01  4.55379E-01 -1.13842E-01
    8988.082     -5.209   0.440  3.59042E-01  4.76187E-01 -1.17146E-01
    8988.222     -5.069   0.480  3.76421E-01  4.96550E-01 -1.20129E-01
    8988.375     -4.917   0.520  3.92919E-01  5.16196E-01 -1.23277E-01
    8988.539     -4.752   0.560  4.07764E-01  5.34960E-01 -1.27196E-01
    8988.716     -4.575   0.600  4.20590E-01  5.52832E-01 -1.32242E-01
    8988.905     -4.386   0.640  4.31790E-01  5.69897E-01 -1.38106E-01
    8989.106     -4.185   0.680  4.42625E-01  5.86220E-01 -1.43596E-01
    8989.320     -3.972   0.720  4.55042E-01  6.01924E-01 -1.46882E-01
    8989.545     -3.746   0.760  4.71177E-01  6.17107E-01 -1.45930E-01
    8989.783     -3.508   0.800  4.93005E-01  6.31880E-01 -1.38875E-01
    8990.033     -3.258   0.840  5.21839E-01  6.46320E-01 -1.24481E-01
    8990.295     -2.996   0.880  5.57665E-01  6.60509E-01 -1.02844E-01
    8990.569     -2.722   0.920  5.98342E-01  6.74496E-01 -7.61534E-02
    8990.856     -2.435   0.960  6.39273E-01  6.88296E-01 -4.90225E-02
    8991.154     -2.137   1.000  6.74509E-01  7.01973E-01 -2.74638E-02
    8991.465     -1.826   1.040  6.99893E-01  7.15543E-01 -1.56494E-02
    8991.788     -1.503   1.080  7.17042E-01  7.28990E-01 -1.19484E-02
    8992.124     -1.168   1.120  7.32237E-01  7.42335E-01 -1.00983E-02
    8992.471     -0.820   1.160  7.50693E-01  7.55570E-01 -4.87762E-03
    8992.831     -0.460   1.200  7.74057E-01  7.68685E-01  5.37227E-03
    8993.203     -0.089   1.240  8.01814E-01  7.81683E-01  2.01316E-02
    8993.587      0.296   1.280  8.34019E-01  7.94523E-01  3.94957E-02
    8993.983      0.692   1.320  8.71617E-01  8.07186E-01  6.44315E-02
    8994.391      1.100   1.360  9.12978E-01  8.19688E-01  9.32901E-02
    8994.812      1.521   1.400  9.55026E-01  8.31961E-01  1.23065E-01
    8995.245      1.954   1.440  9.99546E-01  8.43999E-01  1.55548E-01
    8995.690      2.399   1.480  1.05237E+00  8.55776E-01  1.96594E-01
    8996.147      2.856   1.520  1.11683E+00  8.67283E-01  2.49549E-01
    8996.616      3.325   1.560  1.18829E+00  8.78471E-01  3.09821E-01
    8997.098      3.807   1.600  1.25327E+00  8.89353E-01  3.63915E-01
    8997.592      4.301   1.640  1.29983E+00  8.99880E-01  3.99953E-01
    8998.098      4.807   1.680  1.32368E+00  9.10043E-01  4.13635E-01
    8998.616      5.325   1.720  1.32344E+00  9.19817E-01  4.03626E-01
    8999.146      5.855   1.760  1.29781E+00  9.29195E-01  3.68617E-01
    8999.689      6.398   1.800  1.24695E+00  9.38169E-01  3.08779E-01
    9000.244      6.952   1.840  1.18102E+00  9.46694E-01  2.34321E-01
    9000.811      7.519   1.880  1.12041E+00  9.54788E-01  1.65618E-01
    9001.390      8.098   1.920  1.08130E+00  9.62448E-01  1.18851E-01
    9001.981      8.690   1.960  1.06648E+00  9.69650E-01  9.68337E-02
    9002.584      9.293   2.000  1.06687E+00  9.76392E-01  9.04778E-02
    9003.200      9.909   2.040  1.06796E+00  9.82677E-01  8.52876E-02
    9003.828     10.537   2.080  1.05999E+00  9.88503E-01  7.14852E-02
    9004.468     11.177   2.120  1.04339E+00  9.93874E-01  4.95135E-02
    9005.120     11.829   2.160  1.02420E+00  9.98813E-01  2.53883E-02
    9005.785     12.494   2.200  1.00608E+00  1.00330E+00  2.77319E-03
    9006.461     13.170   2.240  9.93385E-01  1.00735E+00 -1.39637E-02
    9007.150     13.859   2.280  9.90699E-01  1.01097E+00 -2.02742E-02
    9007.851     14.560   2.320  9.96090E-01  1.01419E+00 -1.80965E-02
    9008.565     15.273   2.360  1.00137E+00  1.01699E+00 -1.56262E-02
    9009.290     15.999   2.400  1.00048E+00  1.01944E+00 -1.89617E-02
    9010.028     16.736   2.440  9.93629E-01  1.02150E+00 -2.78739E-02
    9010.777     17.486   2.480  9.84371E-01  1.02320E+00 -3.88295E-02
    9011.539     18.248   2.520  9.73893E-01  1.02459E+00 -5.06934E-02
    9012.314     19.022   2.560  9.61525E-01  1.02565E+00 -6.41219E-02
    9013.100     19.809   2.600  9.48411E-01  1.02639E+00 -7.79821E-02
    9013.899     20.607   2.640  9.36520E-01  1.02687E+00 -9.03541E-02
    9014.709     21.418   2.680  9.25711E-01  1.02708E+00 -1.01366E-01
    9015.532     22.241   2.720  9.14650E-01  1.02704E+00 -1.12387E-01
    9016.367     23.076   2.760  9.02523E-01  1.02678E+00 -1.24258E-01
    9017.215     23.924   2.800  8.95673E-01  1.02632E+00 -1.30644E-01
    9018.074     24.783   2.840  8.95459E-01  1.02566E+00 -1.30198E-01
    9018.946     25.655   2.880  8.99741E-01  1.02485E+00 -1.25108E-01
    9019.830     26.539   2.920  9.06085E-01  1.02386E+00 -1.17775E-01
    9020.726     27.435   2.960  9.12779E-01  1.02274E+00 -1.09962E-01
    9021.634     28.343   3.000  9.19737E-01  1.02152E+00 -1.01784E-01
    9022.555     29.264   3.040  9.27431E-01  1.02019E+00 -9.27558E-02
    9023.488     30.196   3.080  9.36206E-01  1.01875E+00 -8.25398E-02
    9024.432     31.141   3.120  9.46164E-01  1.01725E+00 -7.10833E-02
    9025.389     32.098   3.160  9.56905E-01  1.01570E+00 -5.87951E-02
    9026.359     33.067   3.200  9.67616E-01  1.01411E+00 -4.64932E-02
    9027.340     34.049   3.240  9.77937E-01  1.01248E+00 -3.45456E-02
    9028.334     35.043   3.280  9.87833E-01  1.01084E+00 -2.30105E-02
    9029.340     36.048   3.320  9.97461E-01  1.00918E+00 -1.17179E-02
    9030.358     37.066   3.360  1.00706E+00  1.00754E+00 -4.77902E-04
    9031.388     38.097   3.400  1.01665E+00  1.00590E+00  1.07557E-02
    9032.430     39.139   3.440  1.02597E+00  1.00427E+00  2.17026E-02
    9033.485     40.194   3.480  1.03468E+00  1.00270E+00  3.19753E-02
    9034.552     41.260   3.520  1.04233E+00  1.00117E+00  4.11562E-02
    9035.631     42.339   3.560  1.04854E+00  9.99662E-01  4.88814E-02
    9036.722     43.431   3.600  1.05332E+00  9.98242E-01  5.50791E-02
    9037.825     44.534   3.640  1.05688E+00  9.96850E-01  6.00262E-02
    9038.941     45.650   3.680  1.05971E+00  9.95551E-01  6.41612E-02
    9040.069     46.777   3.720  1.06211E+00  9.94307E-01  6.78059E-02
    9041.209     47.917   3.760  1.06425E+00  9.93141E-01  7.11047E-02
    9042.361     49.069   3.800  1.06602E+00  9.92053E-01  7.39715E-02
    9043.525     50.234   3.840  1.06721E+00  9.91048E-01  7.61582E-02
    9044.702     51.410   3.880  1.06757E+00  9.90146E-01  7.74225E-02
    9045.890     52.599   3.920  1.06684E+00  9.89306E-01  7.75384E-02
    9047.091     53.800   3.960  1.06487E+00  9.88570E-01  7.63002E-02
    9048.304     55.013   4.000  1.06142E+00  9.87918E-01  7.35041E-02
    9049.530     56.238   4.040  1.05638E+00  9.87350E-01  6.90332E-02
    9050.767     57.476   4.080  1.04959E+00  9.86868E-01  6.27229E-02
    9052.017     58.725   4.120  1.04097E+00  9.86490E-01  5.44805E-02
    9053.279     59.987   4.160  1.03064E+00  9.86197E-01  4.44459E-02
    9054.553     61.261   4.200  1.01907E+00  9.85986E-01  3.30831E-02
    9055.839     62.548   4.240  1.00686E+00  9.85858E-01  2.10073E-02
    9057.137     63.846   4.280  9.94685E-01  9.85810E-01  8.87492E-03
    9058.448     65.157   4.320  9.83045E-01  9.85842E-01 -2.79752E-03
    9059.771     66.480   4.360  9.72297E-01  9.85955E-01 -1.36581E-02
    9061.106     67.815   4.400  9.62791E-01  9.86168E-01 -2.33770E-02
    9062.453     69.162   4.440  9.54785E-01  9.86413E-01 -3.16279E-02
    9063.812     70.521   4.480  9.48558E-01  9.86753E-01 -3.81943E-02
    9065.184     71.893   4.520  9.44165E-01  9.87143E-01 -4.29782E-02
    9066.568     73.277   4.560  9.41572E-01  9.87581E-01 -4.60090E-02
    9067.964     74.673   4.600  9.40653E-01  9.88088E-01 -4.74348E-02
    9069.372     76.081   4.640  9.41146E-01  9.88641E-01 -4.74948E-02
    9070.792     77.501   4.680  9.42735E-01  9.89257E-01 -4.65217E-02
    9072.225     78.934   4.720  9.44926E-01  9.89891E-01 -4.49650E-02
    9073.670     80.378   4.760  9.47376E-01  9.90561E-01 -4.31852E-02
    9075.127     81.835   4.800  9.49929E-01  9.91264E-01 -4.13354E-02
    9076.596     83.304   4.840  9.52611E-01  9.91978E-01 -3.93670E-02
    9078.077     84.786   4.880  9.55628E-01  9.92721E-01 -3.70928E-02
    9079.570     86.279   4.920  9.59186E-01  9.93469E-01 -3.42826E-02
    9081.076     87.785   4.960  9.63463E-01  9.94218E-01 -3.07548E-02
    9082.594     89.303   5.000  9.68558E-01  9.94966E-01 -2.64079E-02
    9084.124     90.833   5.040  9.74349E-01  9.95713E-01 -2.13642E-02
    9085.666     92.375   5.080  9.80425E-01  9.96456E-01 -1.60315E-02
    9087.221     93.930   5.120  9.86179E-01  9.97192E-01 -1.10130E-02
    9088.788     95.496   5.160  9.91044E-01  9.97896E-01 -6.85112E-03
    9090.366     97.075   5.200  9.94796E-01  9.98564E-01 -3.76808E-03
    9091.958     98.666   5.240  9.97588E-01  9.99216E-01 -1.62868E-03
    9093.561    100.270   5.280  9.99726E-01  9.99806E-01 -8.02963E-05
    9095.176    101.885   5.320  1.00159E+00  1.00038E+00  1.20914E-03
    9096.804    103.513   5.360  1.00327E+00  1.00088E+00  2.38527E-03
    9098.444    105.152   5.400  1.00473E+00  1.00134E+00  3.39085E-03
    9100.096    106.804   5.440  1.00583E+00  1.00176E+00  4.06896E-03
    9101.760    108.469   5.480  1.00651E+00  1.00213E+00  4.37462E-03
    9103.436    110.145   5.520  1.00699E+00  1.00243E+00  4.55648E-03
    9105.125    111.834   5.560  1.00782E+00  1.00268E+00  5.14150E-03
    9106.826    113.534   5.600  1.00955E+00  1.00286E+00  6.69070E-03
    9108.539    115.247   5.640  1.01248E+00  1.00299E+00  9.49390E-03
    9110.264    116.972   5.680  1.01649E+00  1.00304E+00  1.34453E-02
    9112.001    118.710   5.720  1.02114E+00  1.00302E+00  1.81195E-02
    9113.751    120.459   5.760  1.02588E+00  1.00295E+00  2.29331E-02
    9115.512    122.221   5.800  1.03012E+00  1.00281E+00  2.73145E-02
    9117.286    123.995   5.840  1.03346E+00  1.00262E+00  3.08420E-02
    9119.072    125.781   5.880  1.03565E+00  1.00235E+00  3.33003E-02
    9120.871    127.579   5.920  1.03668E+00  1.00202E+00  3.46626E-02
    9122.681    129.390   5.960  1.03654E+00  1.00163E+00  3.49130E-02
    9124.504    131.213   6.000  1.03486E+00  1.00113E+00  3.37342E-02
