# # comment:                                                     FEFF 9.9.1  
# # Source:
# # Structure
# # Reduced
# # space
# # abc:
# # angles:
# # sites:
# # POT  SCF 100  7.0000   0, screened core-hole, AFOLP (folp(0)= 1.150)
# # Abs   Z=29 Rmt= 1.225 Rnm= 1.310 K  shell
# # Pot 1 Z=12 Rmt= 1.386 Rnm= 1.461
# # Pot 2 Z=29 Rmt= 1.226 Rnm= 1.310
# # Pot 3 Z= 8 Rmt= 1.006 Rnm= 1.100
# # Gam_ch=1.729E+00 H-L exch Vi= 0.000E+00 Vr= 0.000E+00
# # Mu=-8.581E+00eV kf=2.127E+00 Vint=-1.725E+01eV Rs_int= 1.705
# FMS rfms= 9.0000
# # PATH  Rmax=-1.000,  Keep_limit= 0.00, Heap_limit 0.00  Pwcrit= 2.50%
#  S02=0.950  Temp=   0.00  Debye_temp=   0.00  Global_sig2= 0.00000
#  Energy zero shift, vr, vi    0.00000E+00   0.00000E+00
#  Curved wave amplitude ratio filter   4.000%
#     file         sig2 tot  cw amp ratio   deg  nlegs   reff  inp sig2
#     0/   0 paths used
#  xsedge+ 50, used to normalize mu           2.4567E-04
#  -----------------------------------------------------------------------
#  omega    e    k    mu    mu0     chi     @#
    8984.413    -12.391  -1.000  3.83691E-02  5.49785E-02 -1.66094E-02
    8984.712    -12.093  -0.960  4.03119E-02  5.89889E-02 -1.86771E-02
    8984.999    -11.806  -0.920  4.23840E-02  6.34459E-02 -2.10619E-02
    8985.273    -11.532  -0.880  4.45956E-02  6.84151E-02 -2.38195E-02
    8985.535    -11.270  -0.840  4.69575E-02  7.39729E-02 -2.70154E-02
    8985.785    -11.020  -0.800  4.94810E-02  8.02080E-02 -3.07270E-02
    8986.023    -10.782  -0.760  5.21779E-02  8.72219E-02 -3.50440E-02
    8986.248    -10.557  -0.720  5.50600E-02  9.51294E-02 -4.00695E-02
    8986.462    -10.343  -0.680  5.81387E-02  1.04057E-01 -4.59184E-02
    8986.663    -10.142  -0.640  6.14241E-02  1.14138E-01 -5.27141E-02
    8986.852     -9.953  -0.600  6.49230E-02  1.25504E-01 -6.05808E-02
    8987.029     -9.776  -0.560  6.86370E-02  1.38266E-01 -6.96287E-02
    8987.193     -9.612  -0.520  7.25584E-02  1.52490E-01 -7.99318E-02
    8987.346     -9.459  -0.480  7.66660E-02  1.68162E-01 -9.14965E-02
    8987.486     -9.319  -0.440  8.09197E-02  1.85145E-01 -1.04225E-01
    8987.614     -9.191  -0.400  8.52568E-02  2.03142E-01 -1.17885E-01
    8987.730     -9.075  -0.360  8.95911E-02  2.21690E-01 -1.32099E-01
    8987.833     -8.972  -0.320  9.38188E-02  2.40185E-01 -1.46367E-01
    8987.925     -8.880  -0.280  9.78280E-02  2.57958E-01 -1.60130E-01
    8988.004     -8.801  -0.240  1.01511E-01  2.74364E-01 -1.72853E-01
    8988.071     -8.734  -0.200  1.04775E-01  2.88864E-01 -1.84088E-01
    8988.126     -8.679  -0.160  1.07544E-01  3.01061E-01 -1.93517E-01
    8988.169     -8.636  -0.120  1.09758E-01  3.10704E-01 -2.00946E-01
    8988.199     -8.606  -0.080  1.11371E-01  3.17651E-01 -2.06280E-01
    8988.223     -8.581   0.000  1.12685E-01  3.23232E-01 -2.10547E-01
    8988.278     -8.527   0.120  1.15866E-01  3.35826E-01 -2.19960E-01
    8988.321     -8.484   0.160  1.18321E-01  3.45614E-01 -2.27293E-01
    8988.376     -8.429   0.200  1.21502E-01  3.58103E-01 -2.36601E-01
    8988.443     -8.362   0.240  1.25447E-01  3.73126E-01 -2.47680E-01
    8988.522     -8.283   0.280  1.30245E-01  3.90407E-01 -2.60162E-01
    8988.614     -8.191   0.320  1.35932E-01  4.09469E-01 -2.73536E-01
    8988.717     -8.088   0.360  1.42695E-01  4.29769E-01 -2.87074E-01
    8988.833     -7.972   0.400  1.50743E-01  4.50732E-01 -2.99989E-01
    8988.961     -7.844   0.440  1.60451E-01  4.71830E-01 -3.11379E-01
    8989.101     -7.704   0.480  1.72280E-01  4.92636E-01 -3.20356E-01
    8989.254     -7.551   0.520  1.86931E-01  5.12889E-01 -3.25958E-01
    8989.418     -7.387   0.560  2.05205E-01  5.32428E-01 -3.27223E-01
    8989.595     -7.210   0.600  2.28154E-01  5.51240E-01 -3.23086E-01
    8989.784     -7.021   0.640  2.56911E-01  5.69382E-01 -3.12471E-01
    8989.985     -6.820   0.680  2.92211E-01  5.86927E-01 -2.94716E-01
    8990.199     -6.606   0.720  3.33505E-01  6.03942E-01 -2.70438E-01
    8990.424     -6.381   0.760  3.77618E-01  6.20532E-01 -2.42914E-01
    8990.662     -6.143   0.800  4.18828E-01  6.36773E-01 -2.17945E-01
    8990.912     -5.893   0.840  4.52810E-01  6.52727E-01 -1.99917E-01
    8991.174     -5.631   0.880  4.81176E-01  6.68422E-01 -1.87246E-01
    8991.448     -5.357   0.920  5.08725E-01  6.83913E-01 -1.75188E-01
    8991.735     -5.070   0.960  5.35753E-01  6.99224E-01 -1.63471E-01
    8992.033     -4.771   1.000  5.55425E-01  7.14345E-01 -1.58920E-01
    8992.344     -4.461   1.040  5.59550E-01  7.29299E-01 -1.69749E-01
    8992.667     -4.137   1.080  5.47013E-01  7.44041E-01 -1.97028E-01
    8993.003     -3.802   1.120  5.26195E-01  7.58582E-01 -2.32386E-01
    8993.350     -3.455   1.160  5.09584E-01  7.72903E-01 -2.63319E-01
    8993.710     -3.095   1.200  5.05926E-01  7.86986E-01 -2.81060E-01
    8994.082     -2.723   1.240  5.15852E-01  8.00767E-01 -2.84915E-01
    8994.466     -2.339   1.280  5.33218E-01  8.14261E-01 -2.81043E-01
    8994.862     -1.943   1.320  5.51888E-01  8.27443E-01 -2.75555E-01
    8995.270     -1.534   1.360  5.72377E-01  8.40264E-01 -2.67888E-01
    8995.691     -1.114   1.400  5.98958E-01  8.52695E-01 -2.53737E-01
    8996.124     -0.681   1.440  6.35462E-01  8.64729E-01 -2.29267E-01
    8996.569     -0.236   1.480  6.83512E-01  8.76319E-01 -1.92807E-01
    8997.026      0.221   1.520  7.40923E-01  8.87477E-01 -1.46554E-01
    8997.495      0.691   1.560  8.04887E-01  8.98176E-01 -9.32893E-02
    8997.977      1.172   1.600  8.73032E-01  9.08393E-01 -3.53603E-02
    8998.471      1.666   1.640  9.42286E-01  9.18101E-01  2.41854E-02
    8998.977      2.172   1.680  1.02003E+00  9.27318E-01  9.27086E-02
    8999.495      2.690   1.720  1.11672E+00  9.36024E-01  1.80700E-01
    9000.025      3.220   1.760  1.22156E+00  9.44218E-01  2.77344E-01
    9000.568      3.763   1.800  1.30740E+00  9.51899E-01  3.55499E-01
    9001.123      4.318   1.840  1.36659E+00  9.59070E-01  4.07517E-01
    9001.689      4.885   1.880  1.40016E+00  9.65736E-01  4.34426E-01
    9002.269      5.464   1.920  1.39484E+00  9.71899E-01  4.22944E-01
    9002.860      6.055   1.960  1.36726E+00  9.77564E-01  3.89696E-01
    9003.463      6.659   2.000  1.35221E+00  9.82760E-01  3.69449E-01
    9004.079      7.274   2.040  1.34615E+00  9.87494E-01  3.58653E-01
    9004.707      7.902   2.080  1.32386E+00  9.91772E-01  3.32089E-01
    9005.347      8.542   2.120  1.27143E+00  9.95606E-01  2.75828E-01
    9005.999      9.194   2.160  1.19988E+00  9.99042E-01  2.00840E-01
    9006.664      9.859   2.200  1.13409E+00  1.00207E+00  1.32017E-01
    9007.340     10.536   2.240  1.09166E+00  1.00472E+00  8.69405E-02
    9008.029     11.224   2.280  1.07262E+00  1.00701E+00  6.56180E-02
    9008.730     11.925   2.320  1.06990E+00  1.00895E+00  6.09418E-02
    9009.444     12.639   2.360  1.07439E+00  1.01058E+00  6.38129E-02
    9010.169     13.364   2.400  1.08092E+00  1.01190E+00  6.90134E-02
    9010.907     14.102   2.440  1.09172E+00  1.01296E+00  7.87544E-02
    9011.656     14.852   2.480  1.10708E+00  1.01375E+00  9.33254E-02
    9012.418     15.613   2.520  1.11827E+00  1.01429E+00  1.03974E-01
    9013.193     16.388   2.560  1.10820E+00  1.01462E+00  9.35812E-02
    9013.979     17.174   2.600  1.08425E+00  1.01475E+00  6.94991E-02
    9014.777     17.973   2.640  1.05617E+00  1.01470E+00  4.14680E-02
    9015.588     18.783   2.680  1.02951E+00  1.01448E+00  1.50242E-02
    9016.411     19.606   2.720  1.00622E+00  1.01413E+00 -7.90870E-03
    9017.246     20.442   2.760  9.85954E-01  1.01363E+00 -2.76789E-02
    9018.094     21.289   2.800  9.67426E-01  1.01303E+00 -4.56081E-02
    9018.953     22.148   2.840  9.50140E-01  1.01232E+00 -6.21815E-02
    9019.825     23.020   2.880  9.34504E-01  1.01152E+00 -7.70175E-02
    9020.709     23.904   2.920  9.20954E-01  1.01065E+00 -8.96917E-02
    9021.605     24.800   2.960  9.09871E-01  1.00972E+00 -9.98477E-02
    9022.513     25.708   3.000  9.01547E-01  1.00877E+00 -1.07220E-01
    9023.434     26.629   3.040  8.95932E-01  1.00776E+00 -1.11824E-01
    9024.366     27.562   3.080  8.92858E-01  1.00671E+00 -1.13852E-01
    9025.311     28.506   3.120  8.91897E-01  1.00568E+00 -1.13779E-01
    9026.268     29.464   3.160  8.92116E-01  1.00462E+00 -1.12501E-01
    9027.238     30.433   3.200  8.92734E-01  1.00356E+00 -1.10825E-01
    9028.219     31.414   3.240  8.93377E-01  1.00253E+00 -1.09149E-01
    9029.213     32.408   3.280  8.93993E-01  1.00150E+00 -1.07507E-01
    9030.219     33.414   3.320  8.94740E-01  1.00051E+00 -1.05765E-01
    9031.237     34.432   3.360  8.96044E-01  9.99548E-01 -1.03504E-01
    9032.267     35.462   3.400  8.98459E-01  9.98606E-01 -1.00147E-01
    9033.309     36.504   3.440  9.02393E-01  9.97724E-01 -9.53315E-02
    9034.364     37.559   3.480  9.08074E-01  9.96885E-01 -8.88107E-02
    9035.431     38.626   3.520  9.15562E-01  9.96089E-01 -8.05267E-02
    9036.510     39.705   3.560  9.24621E-01  9.95337E-01 -7.07158E-02
    9037.601     40.796   3.600  9.34711E-01  9.94654E-01 -5.99424E-02
    9038.704     41.899   3.640  9.45298E-01  9.94018E-01 -4.87198E-02
    9039.820     43.015   3.680  9.55936E-01  9.93451E-01 -3.75149E-02
    9040.948     44.143   3.720  9.66241E-01  9.92933E-01 -2.66920E-02
    9042.087     45.283   3.760  9.76133E-01  9.92463E-01 -1.63296E-02
    9043.240     46.435   3.800  9.85899E-01  9.92064E-01 -6.16481E-03
    9044.404     47.599   3.840  9.96012E-01  9.91736E-01  4.27604E-03
    9045.580     48.776   3.880  1.00697E+00  9.91461E-01  1.55091E-02
    9046.769     49.964   3.920  1.01899E+00  9.91258E-01  2.77329E-02
    9047.970     51.165   3.960  1.03148E+00  9.91124E-01  4.03550E-02
    9049.183     52.378   4.000  1.04306E+00  9.91018E-01  5.20383E-02
    9050.408     53.604   4.040  1.05227E+00  9.91002E-01  6.12693E-02
    9051.646     54.841   4.080  1.05804E+00  9.91013E-01  6.70251E-02
    9052.896     56.091   4.120  1.06038E+00  9.91091E-01  6.92872E-02
    9054.157     57.353   4.160  1.06022E+00  9.91236E-01  6.89883E-02
    9055.432     58.627   4.200  1.05887E+00  9.91406E-01  6.74638E-02
    9056.718     59.913   4.240  1.05757E+00  9.91639E-01  6.59334E-02
    9058.016     61.211   4.280  1.05710E+00  9.91914E-01  6.51904E-02
    9059.327     62.522   4.320  1.05768E+00  9.92233E-01  6.54449E-02
    9060.650     63.845   4.360  1.05878E+00  9.92590E-01  6.61915E-02
    9061.985     65.180   4.400  1.05954E+00  9.92985E-01  6.65509E-02
    9063.332     66.527   4.440  1.05918E+00  9.93419E-01  6.57595E-02
    9064.691     67.886   4.480  1.05737E+00  9.93887E-01  6.34833E-02
    9066.063     69.258   4.520  1.05423E+00  9.94367E-01  5.98624E-02
    9067.447     70.642   4.560  1.05022E+00  9.94877E-01  5.53435E-02
    9068.843     72.038   4.600  1.04584E+00  9.95396E-01  5.04490E-02
    9070.251     73.446   4.640  1.04154E+00  9.95944E-01  4.55977E-02
    9071.671     74.866   4.680  1.03748E+00  9.96495E-01  4.09881E-02
    9073.104     76.299   4.720  1.03352E+00  9.97049E-01  3.64740E-02
    9074.549     77.744   4.760  1.02918E+00  9.97606E-01  3.15766E-02
    9076.005     79.201   4.800  1.02391E+00  9.98184E-01  2.57269E-02
    9077.475     80.670   4.840  1.01724E+00  9.98739E-01  1.85050E-02
    9078.956     82.151   4.880  1.00908E+00  9.99290E-01  9.79041E-03
    9080.449     83.645   4.920  9.99647E-01  9.99838E-01 -1.91434E-04
    9081.955     85.150   4.960  9.89457E-01  1.00038E+00 -1.09222E-02
    9083.473     86.668   5.000  9.79242E-01  1.00089E+00 -2.16497E-02
    9085.003     88.198   5.040  9.69776E-01  1.00140E+00 -3.16202E-02
    9086.545     89.741   5.080  9.61562E-01  1.00189E+00 -4.03276E-02
    9088.100     91.295   5.120  9.54695E-01  1.00235E+00 -4.76555E-02
    9089.667     92.862   5.160  9.48976E-01  1.00277E+00 -5.37979E-02
    9091.245     94.441   5.200  9.44204E-01  1.00316E+00 -5.89576E-02
    9092.836     96.032   5.240  9.40376E-01  1.00354E+00 -6.31595E-02
    9094.440     97.635   5.280  9.37797E-01  1.00387E+00 -6.60742E-02
    9096.055     99.250   5.320  9.37193E-01  1.00417E+00 -6.69745E-02
    9097.683    100.878   5.360  9.39501E-01  1.00442E+00 -6.49225E-02
    9099.323    102.518   5.400  9.45328E-01  1.00464E+00 -5.93107E-02
    9100.975    104.170   5.440  9.54389E-01  1.00481E+00 -5.04246E-02
    9102.639    105.834   5.480  9.65358E-01  1.00495E+00 -3.95887E-02
    9104.315    107.510   5.520  9.76450E-01  1.00504E+00 -2.85874E-02
    9106.004    109.199   5.560  9.86318E-01  1.00509E+00 -1.87704E-02
    9107.705    110.900   5.600  9.94404E-01  1.00510E+00 -1.06944E-02
    9109.417    112.613   5.640  1.00056E+00  1.00506E+00 -4.50146E-03
    9111.143    114.338   5.680  1.00464E+00  1.00499E+00 -3.52506E-04
    9112.880    116.075   5.720  1.00655E+00  1.00487E+00  1.67137E-03
    9114.630    117.825   5.760  1.00671E+00  1.00469E+00  2.01831E-03
    9116.391    119.586   5.800  1.00626E+00  1.00450E+00  1.76815E-03
    9118.165    121.360   5.840  1.00653E+00  1.00426E+00  2.27228E-03
    9119.951    123.146   5.880  1.00849E+00  1.00396E+00  4.52706E-03
    9121.750    124.945   5.920  1.01228E+00  1.00365E+00  8.62662E-03
    9123.560    126.755   5.960  1.01698E+00  1.00330E+00  1.36762E-02
    9125.383    128.578   6.000  1.02118E+00  1.00286E+00  1.83134E-02
