# # comment:                                                     FEFF 9.9.1  
# # Source:
# # Structure
# # Reduced
# # space
# # abc:
# # angles:
# # sites:
# # POT  SCF 100  7.0000   0, screened core-hole, AFOLP (folp(0)= 1.150)
# # Abs   Z=29 Rmt= 1.289 Rnm= 1.360 K  shell
# # Pot 1 Z=31 Rmt= 1.303 Rnm= 1.398
# # Pot 2 Z=29 Rmt= 1.281 Rnm= 1.356
# # Pot 3 Z=34 Rmt= 1.129 Rnm= 1.345
# # Pot 4 Z= 8 Rmt= 0.959 Rnm= 1.072
# # Gam_ch=1.729E+00 H-L exch Vi= 0.000E+00 Vr= 0.000E+00
# # Mu=-4.987E+00eV kf=2.305E+00 Vint=-1.566E+01eV Rs_int= 1.574
# FMS rfms= 9.0000
# # PATH  Rmax=-1.000,  Keep_limit= 0.00, Heap_limit 0.00  Pwcrit= 2.50%
#  S02=0.950  Temp=   0.00  Debye_temp=   0.00  Global_sig2= 0.00000
#  Energy zero shift, vr, vi    0.00000E+00   0.00000E+00
#  Curved wave amplitude ratio filter   4.000%
#     file         sig2 tot  cw amp ratio   deg  nlegs   reff  inp sig2
#     0/   0 paths used
#  xsedge+ 50, used to normalize mu           2.4649E-04
#  -----------------------------------------------------------------------
#  omega    e    k    mu    mu0     chi     @#
    8983.287     -8.797  -1.000  4.50006E-02  5.71579E-02 -1.21573E-02
    8983.586     -8.498  -0.960  4.77251E-02  6.14367E-02 -1.37117E-02
    8983.872     -8.212  -0.920  5.07117E-02  6.62036E-02 -1.54919E-02
    8984.146     -7.937  -0.880  5.39983E-02  7.15315E-02 -1.75331E-02
    8984.409     -7.675  -0.840  5.76294E-02  7.75056E-02 -1.98761E-02
    8984.658     -7.425  -0.800  6.16571E-02  8.42247E-02 -2.25676E-02
    8984.896     -7.188  -0.760  6.61419E-02  9.18025E-02 -2.56606E-02
    8985.122     -6.962  -0.720  7.11531E-02  1.00367E-01 -2.92142E-02
    8985.335     -6.749  -0.680  7.67682E-02  1.10061E-01 -3.32929E-02
    8985.536     -6.548  -0.640  8.30695E-02  1.21034E-01 -3.79641E-02
    8985.725     -6.359  -0.600  9.01390E-02  1.33432E-01 -4.32935E-02
    8985.902     -6.182  -0.560  9.80470E-02  1.47384E-01 -4.93371E-02
    8986.067     -6.017  -0.520  1.06835E-01  1.62965E-01 -5.61299E-02
    8986.219     -5.865  -0.480  1.16491E-01  1.80159E-01 -6.36688E-02
    8986.359     -5.725  -0.440  1.26922E-01  1.98817E-01 -7.18946E-02
    8986.487     -5.597  -0.400  1.37933E-01  2.18608E-01 -8.06753E-02
    8986.603     -5.481  -0.360  1.49218E-01  2.39017E-01 -8.97999E-02
    8986.707     -5.377  -0.320  1.60385E-01  2.59373E-01 -9.89883E-02
    8986.798     -5.286  -0.280  1.71009E-01  2.78930E-01 -1.07920E-01
    8986.877     -5.206  -0.240  1.80699E-01  2.96973E-01 -1.16274E-01
    8986.944     -5.139  -0.200  1.89148E-01  3.12908E-01 -1.23761E-01
    8986.999     -5.084  -0.160  1.96154E-01  3.26302E-01 -1.30148E-01
    8987.042     -5.042  -0.120  2.01616E-01  3.36881E-01 -1.35265E-01
    8987.072     -5.011  -0.080  2.05500E-01  3.44497E-01 -1.38997E-01
    8987.097     -4.987   0.000  2.08568E-01  3.50612E-01 -1.42044E-01
    8987.152     -4.932   0.120  2.15431E-01  3.64391E-01 -1.48960E-01
    8987.194     -4.889   0.160  2.20676E-01  3.75080E-01 -1.54404E-01
    8987.249     -4.835   0.200  2.27233E-01  3.88700E-01 -1.61467E-01
    8987.316     -4.768   0.240  2.34911E-01  4.05067E-01 -1.70155E-01
    8987.396     -4.688   0.280  2.43392E-01  4.23807E-01 -1.80415E-01
    8987.487     -4.597   0.320  2.52251E-01  4.44389E-01 -1.92138E-01
    8987.591     -4.493   0.360  2.61073E-01  4.66182E-01 -2.05109E-01
    8987.706     -4.377   0.400  2.69554E-01  4.88536E-01 -2.18982E-01
    8987.834     -4.249   0.440  2.77501E-01  5.10799E-01 -2.33298E-01
    8987.975     -4.109   0.480  2.85046E-01  5.32501E-01 -2.47455E-01
    8988.127     -3.957   0.520  2.92573E-01  5.53342E-01 -2.60769E-01
    8988.292     -3.792   0.560  3.00640E-01  5.73165E-01 -2.72525E-01
    8988.468     -3.615   0.600  3.09739E-01  5.91937E-01 -2.82198E-01
    8988.657     -3.426   0.640  3.20112E-01  6.09723E-01 -2.89611E-01
    8988.859     -3.225   0.680  3.31532E-01  6.26617E-01 -2.95084E-01
    8989.072     -3.012   0.720  3.43431E-01  6.42747E-01 -2.99317E-01
    8989.298     -2.786   0.760  3.55177E-01  6.58201E-01 -3.03024E-01
    8989.535     -2.549   0.800  3.66765E-01  6.73097E-01 -3.06332E-01
    8989.785     -2.299   0.840  3.79289E-01  6.87517E-01 -3.08228E-01
    8990.047     -2.037   0.880  3.94524E-01  7.01550E-01 -3.07026E-01
    8990.322     -1.762   0.920  4.14212E-01  7.15207E-01 -3.00995E-01
    8990.608     -1.476   0.960  4.39771E-01  7.28589E-01 -2.88818E-01
    8990.907     -1.177   1.000  4.71226E-01  7.41682E-01 -2.70456E-01
    8991.218     -0.866   1.040  5.06871E-01  7.54502E-01 -2.47631E-01
    8991.541     -0.543   1.080  5.44366E-01  7.67100E-01 -2.22733E-01
    8991.876     -0.208   1.120  5.81409E-01  7.79434E-01 -1.98025E-01
    8992.224      0.140   1.160  6.16045E-01  7.91542E-01 -1.75496E-01
    8992.583      0.499   1.200  6.48343E-01  8.03374E-01 -1.55032E-01
    8992.955      0.871   1.240  6.80689E-01  8.14979E-01 -1.34290E-01
    8993.339      1.255   1.280  7.12883E-01  8.26298E-01 -1.13415E-01
    8993.735      1.652   1.320  7.39378E-01  8.37315E-01 -9.79369E-02
    8994.144      2.060   1.360  7.58698E-01  8.48050E-01 -8.93512E-02
    8994.564      2.481   1.400  7.79392E-01  8.58482E-01 -7.90905E-02
    8994.997      2.913   1.440  8.08888E-01  8.68569E-01 -5.96804E-02
    8995.442      3.358   1.480  8.51256E-01  8.78329E-01 -2.70731E-02
    8995.899      3.816   1.520  9.12131E-01  8.87740E-01  2.43904E-02
    8996.369      4.285   1.560  9.94526E-01  8.96780E-01  9.77461E-02
    8996.850      4.767   1.600  1.09697E+00  9.05425E-01  1.91547E-01
    8997.344      5.260   1.640  1.21353E+00  9.13717E-01  2.99810E-01
    8997.850      5.766   1.680  1.33170E+00  9.21613E-01  4.10085E-01
    8998.368      6.285   1.720  1.43667E+00  9.29113E-01  5.07558E-01
    8998.899      6.815   1.760  1.51859E+00  9.36238E-01  5.82356E-01
    8999.441      7.357   1.800  1.57226E+00  9.42948E-01  6.29313E-01
    8999.996      7.912   1.840  1.59324E+00  9.49263E-01  6.43975E-01
    9000.563      8.479   1.880  1.57803E+00  9.55189E-01  6.22840E-01
    9001.142      9.058   1.920  1.52823E+00  9.60707E-01  5.67519E-01
    9001.733      9.649   1.960  1.44609E+00  9.65861E-01  4.80232E-01
    9002.337     10.253   2.000  1.34343E+00  9.70636E-01  3.72792E-01
    9002.953     10.869   2.040  1.24334E+00  9.75058E-01  2.68284E-01
    9003.580     11.497   2.080  1.15947E+00  9.79090E-01  1.80375E-01
    9004.220     12.137   2.120  1.09315E+00  9.82800E-01  1.10354E-01
    9004.873     12.789   2.160  1.04249E+00  9.86152E-01  5.63387E-02
    9005.537     13.453   2.200  1.00587E+00  9.89196E-01  1.66699E-02
    9006.214     14.130   2.240  9.82833E-01  9.91938E-01 -9.10523E-03
    9006.903     14.819   2.280  9.72324E-01  9.94363E-01 -2.20394E-02
    9007.604     15.520   2.320  9.70043E-01  9.96502E-01 -2.64591E-02
    9008.317     16.233   2.360  9.69670E-01  9.98402E-01 -2.87320E-02
    9009.042     16.959   2.400  9.67632E-01  1.00003E+00 -3.23958E-02
    9009.780     17.696   2.440  9.65383E-01  1.00141E+00 -3.60261E-02
    9010.530     18.446   2.480  9.65037E-01  1.00257E+00 -3.75379E-02
    9011.292     19.208   2.520  9.67132E-01  1.00353E+00 -3.63998E-02
    9012.066     19.982   2.560  9.70489E-01  1.00431E+00 -3.38174E-02
    9012.852     20.769   2.600  9.71774E-01  1.00489E+00 -3.31142E-02
    9013.651     21.567   2.640  9.66934E-01  1.00530E+00 -3.83696E-02
    9014.462     22.378   2.680  9.53880E-01  1.00556E+00 -5.16787E-02
    9015.285     23.201   2.720  9.36320E-01  1.00570E+00 -6.93828E-02
    9016.120     24.036   2.760  9.21662E-01  1.00570E+00 -8.40392E-02
    9016.967     24.883   2.800  9.10795E-01  1.00560E+00 -9.48045E-02
    9017.827     25.743   2.840  9.02791E-01  1.00539E+00 -1.02594E-01
    9018.698     26.615   2.880  8.97070E-01  1.00508E+00 -1.08014E-01
    9019.582     27.498   2.920  8.93398E-01  1.00470E+00 -1.11304E-01
    9020.478     28.395   2.960  8.91931E-01  1.00426E+00 -1.12332E-01
    9021.387     29.303   3.000  8.92449E-01  1.00376E+00 -1.11307E-01
    9022.307     30.223   3.040  8.94157E-01  1.00322E+00 -1.09066E-01
    9023.240     31.156   3.080  8.96073E-01  1.00263E+00 -1.06556E-01
    9024.185     32.101   3.120  8.97757E-01  1.00202E+00 -1.04261E-01
    9025.142     33.058   3.160  8.99075E-01  1.00138E+00 -1.02300E-01
    9026.111     34.027   3.200  9.00730E-01  1.00072E+00 -9.99947E-02
    9027.093     35.009   3.240  9.03594E-01  1.00007E+00 -9.64742E-02
    9028.086     36.002   3.280  9.08177E-01  9.99412E-01 -9.12351E-02
    9029.092     37.008   3.320  9.14650E-01  9.98758E-01 -8.41071E-02
    9030.110     38.026   3.360  9.22951E-01  9.98128E-01 -7.51776E-02
    9031.140     39.056   3.400  9.32697E-01  9.97506E-01 -6.48086E-02
    9032.183     40.099   3.440  9.43206E-01  9.96892E-01 -5.36856E-02
    9033.237     41.153   3.480  9.53983E-01  9.96330E-01 -4.23470E-02
    9034.304     42.220   3.520  9.64584E-01  9.95781E-01 -3.11970E-02
    9035.383     43.299   3.560  9.74872E-01  9.95245E-01 -2.03732E-02
    9036.474     44.390   3.600  9.85059E-01  9.94767E-01 -9.70727E-03
    9037.578     45.494   3.640  9.95426E-01  9.94306E-01  1.11981E-03
    9038.693     46.609   3.680  1.00622E+00  9.93905E-01  1.23194E-02
    9039.821     47.737   3.720  1.01741E+00  9.93544E-01  2.38675E-02
    9040.961     48.877   3.760  1.02876E+00  9.93200E-01  3.55572E-02
    9042.113     50.029   3.800  1.03983E+00  9.92917E-01  4.69177E-02
    9043.277     51.194   3.840  1.05001E+00  9.92676E-01  5.73370E-02
    9044.454     52.370   3.880  1.05875E+00  9.92453E-01  6.62941E-02
    9045.643     53.559   3.920  1.06567E+00  9.92293E-01  7.33745E-02
    9046.844     54.760   3.960  1.07044E+00  9.92175E-01  7.82675E-02
    9048.057     55.973   4.000  1.07306E+00  9.92120E-01  8.09386E-02
    9049.282     57.198   4.040  1.07367E+00  9.92083E-01  8.15847E-02
    9050.519     58.436   4.080  1.07261E+00  9.92085E-01  8.05252E-02
    9051.769     59.685   4.120  1.07020E+00  9.92126E-01  7.80687E-02
    9053.031     60.947   4.160  1.06673E+00  9.92207E-01  7.45274E-02
    9054.305     62.221   4.200  1.06234E+00  9.92348E-01  6.99952E-02
    9055.591     63.507   4.240  1.05693E+00  9.92504E-01  6.44215E-02
    9056.890     64.806   4.280  1.05041E+00  9.92673E-01  5.77353E-02
    9058.200     66.116   4.320  1.04286E+00  9.92899E-01  4.99628E-02
    9059.523     67.439   4.360  1.03446E+00  9.93138E-01  4.13257E-02
    9060.858     68.774   4.400  1.02572E+00  9.93411E-01  3.23094E-02
    9062.205     70.122   4.440  1.01725E+00  9.93717E-01  2.35330E-02
    9063.565     71.481   4.480  1.00951E+00  9.94032E-01  1.54744E-02
    9064.936     72.853   4.520  1.00277E+00  9.94375E-01  8.39820E-03
    9066.320     74.236   4.560  9.97032E-01  9.94725E-01  2.30648E-03
    9067.716     75.632   4.600  9.92095E-01  9.95078E-01 -2.98337E-03
    9069.124     77.040   4.640  9.87781E-01  9.95435E-01 -7.65380E-03
    9070.545     78.461   4.680  9.84071E-01  9.95818E-01 -1.17474E-02
    9071.977     79.893   4.720  9.81050E-01  9.96204E-01 -1.51543E-02
    9073.422     81.338   4.760  9.78898E-01  9.96590E-01 -1.76918E-02
    9074.879     82.795   4.800  9.77703E-01  9.96975E-01 -1.92722E-02
    9076.348     84.264   4.840  9.77328E-01  9.97359E-01 -2.00315E-02
    9077.829     85.746   4.880  9.77410E-01  9.97741E-01 -2.03313E-02
    9079.323     87.239   4.920  9.77439E-01  9.98117E-01 -2.06775E-02
    9080.829     88.745   4.960  9.76944E-01  9.98465E-01 -2.15208E-02
    9082.346     90.263   5.000  9.75737E-01  9.98806E-01 -2.30696E-02
    9083.877     91.793   5.040  9.73917E-01  9.99139E-01 -2.52221E-02
    9085.419     93.335   5.080  9.71803E-01  9.99443E-01 -2.76392E-02
    9086.973     94.889   5.120  9.69812E-01  9.99735E-01 -2.99230E-02
    9088.540     96.456   5.160  9.68176E-01  9.99993E-01 -3.18166E-02
    9090.119     98.035   5.200  9.66989E-01  1.00022E+00 -3.32285E-02
    9091.710     99.626   5.240  9.66283E-01  1.00043E+00 -3.41478E-02
    9093.313    101.229   5.280  9.66163E-01  1.00063E+00 -3.44688E-02
    9094.929    102.845   5.320  9.66821E-01  1.00078E+00 -3.39548E-02
    9096.556    104.472   5.360  9.68559E-01  1.00090E+00 -3.23437E-02
    9098.196    106.112   5.400  9.71487E-01  1.00099E+00 -2.95070E-02
    9099.848    107.764   5.440  9.75517E-01  1.00105E+00 -2.55323E-02
    9101.512    109.428   5.480  9.80372E-01  1.00109E+00 -2.07158E-02
    9103.189    111.105   5.520  9.85571E-01  1.00107E+00 -1.54948E-02
    9104.877    112.793   5.560  9.90628E-01  1.00103E+00 -1.04016E-02
    9106.578    114.494   5.600  9.95004E-01  1.00096E+00 -5.95300E-03
    9108.291    116.207   5.640  9.98258E-01  1.00085E+00 -2.58919E-03
    9110.016    117.932   5.680  1.00014E+00  1.00072E+00 -5.81442E-04
    9111.753    119.670   5.720  1.00059E+00  1.00053E+00  5.44516E-05
    9113.503    121.419   5.760  9.99975E-01  1.00031E+00 -3.33215E-04
    9115.265    123.181   5.800  9.98966E-01  1.00007E+00 -1.10462E-03
    9117.039    124.955   5.840  9.98232E-01  9.99798E-01 -1.56623E-03
    9118.825    126.741   5.880  9.98251E-01  9.99493E-01 -1.24194E-03
    9120.623    128.539   5.920  9.99139E-01  9.99178E-01 -3.83868E-05
    9122.434    130.350   5.960  1.00057E+00  9.98806E-01  1.76138E-03
    9124.256    132.172   6.000  1.00208E+00  9.98404E-01  3.67672E-03
