# # comment:                                                     FEFF 9.9.1  
# # Source:
# # Structure
# # Reduced
# # space
# # abc:
# # angles:
# # sites:
# # POT  SCF 100  7.0000   0, screened core-hole, AFOLP (folp(0)= 1.150)
# # Abs   Z=29 Rmt= 1.286 Rnm= 1.342 K  shell
# # Pot 1 Z=29 Rmt= 1.295 Rnm= 1.355
# # Pot 2 Z=16 Rmt= 0.889 Rnm= 1.103
# # Pot 3 Z= 8 Rmt= 0.867 Rnm= 1.020
# # Gam_ch=1.729E+00 H-L exch Vi= 0.000E+00 Vr= 0.000E+00
# # Mu=-4.991E+00eV kf=2.633E+00 Vint=-1.770E+01eV Rs_int= 1.378
# FMS rfms= 9.0000
# # PATH  Rmax=-1.000,  Keep_limit= 0.00, Heap_limit 0.00  Pwcrit= 2.50%
#  S02=0.950  Temp=   0.00  Debye_temp=   0.00  Global_sig2= 0.00000
#  Energy zero shift, vr, vi    0.00000E+00   0.00000E+00
#  Curved wave amplitude ratio filter   4.000%
#     file         sig2 tot  cw amp ratio   deg  nlegs   reff  inp sig2
#     0/   0 paths used
#  xsedge+ 50, used to normalize mu           2.4916E-04
#  -----------------------------------------------------------------------
#  omega    e    k    mu    mu0     chi     @#
    8983.227     -8.801  -1.000  4.41784E-02  5.51257E-02 -1.09473E-02
    8983.526     -8.503  -0.960  4.65445E-02  5.92270E-02 -1.26825E-02
    8983.812     -8.216  -0.920  4.90745E-02  6.37962E-02 -1.47217E-02
    8984.087     -7.942  -0.880  5.17822E-02  6.89035E-02 -1.71213E-02
    8984.349     -7.680  -0.840  5.46824E-02  7.46310E-02 -1.99485E-02
    8984.599     -7.430  -0.800  5.77913E-02  8.10737E-02 -2.32824E-02
    8984.836     -7.192  -0.760  6.11258E-02  8.83410E-02 -2.72153E-02
    8985.062     -6.966  -0.720  6.47036E-02  9.65570E-02 -3.18534E-02
    8985.275     -6.753  -0.680  6.85423E-02  1.05858E-01 -3.73159E-02
    8985.476     -6.552  -0.640  7.26584E-02  1.16389E-01 -4.37309E-02
    8985.665     -6.363  -0.600  7.70652E-02  1.28293E-01 -5.12278E-02
    8985.842     -6.186  -0.560  8.17695E-02  1.41691E-01 -5.99218E-02
    8986.007     -6.022  -0.520  8.67676E-02  1.56658E-01 -6.98903E-02
    8986.159     -5.869  -0.480  9.20391E-02  1.73179E-01 -8.11401E-02
    8986.299     -5.729  -0.440  9.75405E-02  1.91109E-01 -9.35686E-02
    8986.427     -5.601  -0.400  1.03199E-01  2.10131E-01 -1.06932E-01
    8986.543     -5.485  -0.360  1.08913E-01  2.29748E-01 -1.20835E-01
    8986.647     -5.381  -0.320  1.14549E-01  2.49311E-01 -1.34762E-01
    8986.738     -5.290  -0.280  1.19960E-01  2.68104E-01 -1.48144E-01
    8986.818     -5.211  -0.240  1.24994E-01  2.85439E-01 -1.60445E-01
    8986.885     -5.144  -0.200  1.29508E-01  3.00744E-01 -1.71236E-01
    8986.939     -5.089  -0.160  1.33378E-01  3.13604E-01 -1.80226E-01
    8986.982     -5.046  -0.120  1.36502E-01  3.23758E-01 -1.87256E-01
    8987.013     -5.016  -0.080  1.38802E-01  3.31066E-01 -1.92264E-01
    8987.037     -4.991   0.000  1.40711E-01  3.36931E-01 -1.96220E-01
    8987.092     -4.936   0.120  1.45035E-01  3.50146E-01 -2.05111E-01
    8987.135     -4.894   0.160  1.48409E-01  3.60402E-01 -2.11993E-01
    8987.189     -4.839   0.200  1.52848E-01  3.73466E-01 -2.20618E-01
    8987.256     -4.772   0.240  1.58356E-01  3.89116E-01 -2.30760E-01
    8987.336     -4.693   0.280  1.65083E-01  4.07041E-01 -2.41958E-01
    8987.427     -4.601   0.320  1.73077E-01  4.26702E-01 -2.53625E-01
    8987.531     -4.498   0.360  1.82441E-01  4.47479E-01 -2.65038E-01
    8987.647     -4.382   0.400  1.93318E-01  4.68737E-01 -2.75419E-01
    8987.775     -4.254   0.440  2.05815E-01  4.89844E-01 -2.84029E-01
    8987.915     -4.114   0.480  2.20116E-01  5.10357E-01 -2.90242E-01
    8988.067     -3.961   0.520  2.36377E-01  5.29988E-01 -2.93611E-01
    8988.232     -3.797   0.560  2.54686E-01  5.48564E-01 -2.93879E-01
    8988.409     -3.620   0.600  2.75221E-01  5.66096E-01 -2.90874E-01
    8988.598     -3.431   0.640  2.98189E-01  5.82653E-01 -2.84464E-01
    8988.799     -3.230   0.680  3.23821E-01  5.98309E-01 -2.74488E-01
    8989.012     -3.016   0.720  3.52415E-01  6.13194E-01 -2.60779E-01
    8989.238     -2.791   0.760  3.84097E-01  6.27437E-01 -2.43340E-01
    8989.475     -2.553   0.800  4.18533E-01  6.41160E-01 -2.22627E-01
    8989.725     -2.303   0.840  4.54923E-01  6.54428E-01 -1.99505E-01
    8989.987     -2.041   0.880  4.92318E-01  6.67352E-01 -1.75034E-01
    8990.262     -1.767   0.920  5.29897E-01  6.79970E-01 -1.50074E-01
    8990.548     -1.480   0.960  5.67815E-01  6.92365E-01 -1.24550E-01
    8990.847     -1.181   1.000  6.07350E-01  7.04549E-01 -9.71992E-02
    8991.158     -0.870   1.040  6.50081E-01  7.16543E-01 -6.64621E-02
    8991.481     -0.547   1.080  6.96452E-01  7.28401E-01 -3.19492E-02
    8991.816     -0.212   1.120  7.44768E-01  7.40129E-01  4.63873E-03
    8992.164      0.135   1.160  7.90417E-01  7.51704E-01  3.87129E-02
    8992.523      0.495   1.200  8.27279E-01  7.63163E-01  6.41154E-02
    8992.895      0.867   1.240  8.51123E-01  7.74477E-01  7.66464E-02
    8993.279      1.251   1.280  8.62819E-01  7.85650E-01  7.71692E-02
    8993.676      1.647   1.320  8.70253E-01  7.96667E-01  7.35856E-02
    8994.084      2.056   1.360  8.87490E-01  8.07530E-01  7.99596E-02
    8994.505      2.476   1.400  9.27502E-01  8.18201E-01  1.09301E-01
    8994.937      2.909   1.440  9.91615E-01  8.28697E-01  1.62918E-01
    8995.382      3.354   1.480  1.06907E+00  8.38995E-01  2.30070E-01
    8995.840      3.811   1.520  1.14595E+00  8.49073E-01  2.96876E-01
    8996.309      4.281   1.560  1.21333E+00  8.58925E-01  3.54408E-01
    8996.791      4.762   1.600  1.27213E+00  8.68509E-01  4.03620E-01
    8997.284      5.256   1.640  1.32138E+00  8.77838E-01  4.43541E-01
    8997.790      5.762   1.680  1.35190E+00  8.86909E-01  4.64995E-01
    8998.308      6.280   1.720  1.36272E+00  8.95677E-01  4.67045E-01
    8998.839      6.810   1.760  1.36343E+00  9.04138E-01  4.59293E-01
    8999.381      7.353   1.800  1.35755E+00  9.12288E-01  4.45266E-01
    8999.936      7.908   1.840  1.34186E+00  9.20125E-01  4.21738E-01
    9000.503      8.475   1.880  1.31178E+00  9.27624E-01  3.84152E-01
    9001.082      9.054   1.920  1.26695E+00  9.34804E-01  3.32150E-01
    9001.673      9.645   1.960  1.22046E+00  9.41622E-01  2.78840E-01
    9002.277     10.249   2.000  1.19000E+00  9.48099E-01  2.41900E-01
    9002.893     10.864   2.040  1.18150E+00  9.54232E-01  2.27270E-01
    9003.521     11.492   2.080  1.19246E+00  9.60022E-01  2.32434E-01
    9004.161     12.132   2.120  1.21174E+00  9.65449E-01  2.46286E-01
    9004.813     12.785   2.160  1.21499E+00  9.70535E-01  2.44455E-01
    9005.477     13.449   2.200  1.18474E+00  9.75260E-01  2.09482E-01
    9006.154     14.126   2.240  1.13035E+00  9.79667E-01  1.50685E-01
    9006.843     14.814   2.280  1.07217E+00  9.83719E-01  8.84466E-02
    9007.544     15.516   2.320  1.02624E+00  9.87420E-01  3.88221E-02
    9008.257     16.229   2.360  1.00263E+00  9.90813E-01  1.18133E-02
    9008.983     16.954   2.400  1.00144E+00  9.93904E-01  7.53560E-03
    9009.720     17.692   2.440  1.01345E+00  9.96655E-01  1.67994E-02
    9010.470     18.442   2.480  1.02709E+00  9.99132E-01  2.79553E-02
    9011.232     19.204   2.520  1.03388E+00  1.00130E+00  3.25816E-02
    9012.006     19.978   2.560  1.03115E+00  1.00321E+00  2.79447E-02
    9012.792     20.764   2.600  1.02065E+00  1.00484E+00  1.58139E-02
    9013.591     21.563   2.640  1.00516E+00  1.00622E+00 -1.05847E-03
    9014.402     22.374   2.680  9.84412E-01  1.00738E+00 -2.29632E-02
    9015.225     23.196   2.720  9.57319E-01  1.00827E+00 -5.09552E-02
    9016.060     24.032   2.760  9.24516E-01  1.00896E+00 -8.44427E-02
    9016.907     24.879   2.800  8.86702E-01  1.00944E+00 -1.22737E-01
    9017.767     25.738   2.840  8.46759E-01  1.00974E+00 -1.62983E-01
    9018.639     26.610   2.880  8.09375E-01  1.00985E+00 -2.00477E-01
    9019.522     27.494   2.920  7.78752E-01  1.00980E+00 -2.31045E-01
    9020.419     28.390   2.960  7.57674E-01  1.00958E+00 -2.51909E-01
    9021.327     29.299   3.000  7.50011E-01  1.00924E+00 -2.59226E-01
    9022.247     30.219   3.040  7.55731E-01  1.00876E+00 -2.53033E-01
    9023.180     31.152   3.080  7.65697E-01  1.00817E+00 -2.42474E-01
    9024.125     32.097   3.120  7.78535E-01  1.00749E+00 -2.28951E-01
    9025.082     33.054   3.160  7.94075E-01  1.00669E+00 -2.12615E-01
    9026.051     34.023   3.200  8.12335E-01  1.00581E+00 -1.93475E-01
    9027.033     35.004   3.240  8.33336E-01  1.00485E+00 -1.71516E-01
    9028.026     35.998   3.280  8.57132E-01  1.00384E+00 -1.46711E-01
    9029.032     37.004   3.320  8.83040E-01  1.00279E+00 -1.19748E-01
    9030.050     38.022   3.360  9.09914E-01  1.00169E+00 -9.17750E-02
    9031.080     39.052   3.400  9.36750E-01  1.00055E+00 -6.38029E-02
    9032.123     40.095   3.440  9.62495E-01  9.99381E-01 -3.68865E-02
    9033.177     41.149   3.480  9.86244E-01  9.98201E-01 -1.19573E-02
    9034.244     42.216   3.520  1.00768E+00  9.97016E-01  1.06593E-02
    9035.323     43.295   3.560  1.02658E+00  9.95831E-01  3.07505E-02
    9036.414     44.386   3.600  1.04290E+00  9.94648E-01  4.82513E-02
    9037.518     45.489   3.640  1.05697E+00  9.93490E-01  6.34812E-02
    9038.633     46.605   3.680  1.06907E+00  9.92341E-01  7.67313E-02
    9039.761     47.733   3.720  1.07915E+00  9.91222E-01  8.79243E-02
    9040.901     48.873   3.760  1.08707E+00  9.90116E-01  9.69587E-02
    9042.053     50.025   3.800  1.09265E+00  9.89046E-01  1.03602E-01
    9043.218     51.189   3.840  1.09570E+00  9.88034E-01  1.07671E-01
    9044.394     52.366   3.880  1.09629E+00  9.87042E-01  1.09246E-01
    9045.583     53.554   3.920  1.09475E+00  9.86113E-01  1.08638E-01
    9046.784     54.755   3.960  1.09148E+00  9.85205E-01  1.06278E-01
    9047.997     55.968   4.000  1.08697E+00  9.84362E-01  1.02604E-01
    9049.222     57.194   4.040  1.08179E+00  9.83588E-01  9.82036E-02
    9050.460     58.431   4.080  1.07630E+00  9.82861E-01  9.34443E-02
    9051.709     59.681   4.120  1.07071E+00  9.82179E-01  8.85296E-02
    9052.971     60.943   4.160  1.06509E+00  9.81567E-01  8.35219E-02
    9054.245     62.217   4.200  1.05934E+00  9.81003E-01  7.83367E-02
    9055.531     63.503   4.240  1.05328E+00  9.80507E-01  7.27697E-02
    9056.830     64.801   4.280  1.04670E+00  9.80062E-01  6.66351E-02
    9058.140     66.112   4.320  1.03953E+00  9.79685E-01  5.98476E-02
    9059.463     67.435   4.360  1.03167E+00  9.79358E-01  5.23167E-02
    9060.798     68.770   4.400  1.02317E+00  9.79100E-01  4.40663E-02
    9062.146     70.117   4.440  1.01416E+00  9.78889E-01  3.52665E-02
    9063.505     71.477   4.480  1.00493E+00  9.78748E-01  2.61775E-02
    9064.877     72.848   4.520  9.95737E-01  9.78653E-01  1.70836E-02
    9066.260     74.232   4.560  9.86816E-01  9.78603E-01  8.21294E-03
    9067.656     75.628   4.600  9.78273E-01  9.78620E-01 -3.46761E-04
    9069.064     77.036   4.640  9.70047E-01  9.78681E-01 -8.63389E-03
    9070.485     78.456   4.680  9.62075E-01  9.78786E-01 -1.67113E-02
    9071.917     79.889   4.720  9.54299E-01  9.78954E-01 -2.46550E-02
    9073.362     81.334   4.760  9.46703E-01  9.79141E-01 -3.24377E-02
    9074.819     82.791   4.800  9.39517E-01  9.79367E-01 -3.98501E-02
    9076.288     84.260   4.840  9.33096E-01  9.79651E-01 -4.65549E-02
    9077.769     85.741   4.880  9.27828E-01  9.79953E-01 -5.21250E-02
    9079.263     87.235   4.920  9.24095E-01  9.80288E-01 -5.61927E-02
    9080.769     88.740   4.960  9.21970E-01  9.80634E-01 -5.86641E-02
    9082.287     90.258   5.000  9.21342E-01  9.81033E-01 -5.96913E-02
    9083.817     91.788   5.040  9.21786E-01  9.81420E-01 -5.96341E-02
    9085.359     93.331   5.080  9.22938E-01  9.81836E-01 -5.88982E-02
    9086.913     94.885   5.120  9.24513E-01  9.82279E-01 -5.77659E-02
    9088.480     96.452   5.160  9.26296E-01  9.82704E-01 -5.64081E-02
    9090.059     98.031   5.200  9.28315E-01  9.83153E-01 -5.48385E-02
    9091.650     99.622   5.240  9.30600E-01  9.83605E-01 -5.30052E-02
    9093.253    101.225   5.280  9.33294E-01  9.84056E-01 -5.07620E-02
    9094.869    102.840   5.320  9.36624E-01  9.84505E-01 -4.78812E-02
    9096.496    104.468   5.360  9.40857E-01  9.84950E-01 -4.40927E-02
    9098.136    106.108   5.400  9.46164E-01  9.85365E-01 -3.92005E-02
    9099.788    107.760   5.440  9.52577E-01  9.85771E-01 -3.31944E-02
    9101.452    109.424   5.480  9.59852E-01  9.86147E-01 -2.62947E-02
    9103.129    111.100   5.520  9.67575E-01  9.86513E-01 -1.89381E-02
    9104.817    112.789   5.560  9.75186E-01  9.86847E-01 -1.16610E-02
    9106.518    114.490   5.600  9.82248E-01  9.87169E-01 -4.92150E-03
    9108.231    116.203   5.640  9.88482E-01  9.87457E-01  1.02528E-03
    9109.956    117.928   5.680  9.93835E-01  9.87708E-01  6.12689E-03
    9111.694    119.665   5.720  9.98398E-01  9.87944E-01  1.04537E-02
    9113.443    121.415   5.760  1.00229E+00  9.88119E-01  1.41703E-02
    9115.205    123.177   5.800  1.00576E+00  9.88253E-01  1.75021E-02
    9116.979    124.950   5.840  1.00904E+00  9.88371E-01  2.06715E-02
    9118.765    126.737   5.880  1.01223E+00  9.88428E-01  2.37999E-02
    9120.563    128.535   5.920  1.01534E+00  9.88466E-01  2.68732E-02
    9122.374    130.345   5.960  1.01819E+00  9.88434E-01  2.97576E-02
    9124.196    132.168   6.000  1.02062E+00  9.88334E-01  3.22843E-02
