# # comment:                                                     FEFF 9.9.1  
# # Source:
# # Structure
# # Reduced
# # space
# # abc:
# # angles:
# # sites:
# # POT  SCF 100  7.0000   0, screened core-hole, AFOLP (folp(0)= 1.150)
# # Abs   Z=29 Rmt= 1.226 Rnm= 1.341 K  shell
# # Pot 1 Z=29 Rmt= 1.226 Rnm= 1.341
# # Pot 2 Z=80 Rmt= 1.440 Rnm= 1.585
# # Pot 3 Z= 8 Rmt= 1.017 Rnm= 1.127
# # Gam_ch=1.729E+00 H-L exch Vi= 0.000E+00 Vr= 0.000E+00
# # Mu=-5.812E+00eV kf=2.016E+00 Vint=-1.342E+01eV Rs_int= 1.799
# FMS rfms= 9.0000
# # PATH  Rmax=-1.000,  Keep_limit= 0.00, Heap_limit 0.00  Pwcrit= 2.50%
#  S02=0.950  Temp=   0.00  Debye_temp=   0.00  Global_sig2= 0.00000
#  Energy zero shift, vr, vi    0.00000E+00   0.00000E+00
#  Curved wave amplitude ratio filter   4.000%
#     file         sig2 tot  cw amp ratio   deg  nlegs   reff  inp sig2
#     0/   0 paths used
#  xsedge+ 50, used to normalize mu           2.4178E-04
#  -----------------------------------------------------------------------
#  omega    e    k    mu    mu0     chi     @#
    8983.352     -9.622  -1.000  4.33136E-02  5.85525E-02 -1.52389E-02
    8983.651     -9.324  -0.960  4.59144E-02  6.28744E-02 -1.69600E-02
    8983.937     -9.037  -0.920  4.87568E-02  6.76783E-02 -1.89215E-02
    8984.212     -8.763  -0.880  5.18718E-02  7.30350E-02 -2.11631E-02
    8984.474     -8.501  -0.840  5.52952E-02  7.90265E-02 -2.37313E-02
    8984.724     -8.251  -0.800  5.90673E-02  8.57481E-02 -2.66808E-02
    8984.962     -8.013  -0.760  6.32337E-02  9.33089E-02 -3.00752E-02
    8985.187     -7.787  -0.720  6.78445E-02  1.01832E-01 -3.39873E-02
    8985.400     -7.574  -0.680  7.29539E-02  1.11452E-01 -3.84986E-02
    8985.602     -7.373  -0.640  7.86173E-02  1.22314E-01 -4.36964E-02
    8985.791     -7.184  -0.600  8.48879E-02  1.34556E-01 -4.96678E-02
    8985.967     -7.007  -0.560  9.18092E-02  1.48298E-01 -5.64886E-02
    8986.132     -6.843  -0.520  9.94053E-02  1.63611E-01 -6.42056E-02
    8986.284     -6.690  -0.480  1.07667E-01  1.80478E-01 -7.28117E-02
    8986.425     -6.550  -0.440  1.16535E-01  1.98753E-01 -8.22182E-02
    8986.553     -6.422  -0.400  1.25886E-01  2.18117E-01 -9.22313E-02
    8986.668     -6.306  -0.360  1.35526E-01  2.38074E-01 -1.02548E-01
    8986.772     -6.202  -0.320  1.45197E-01  2.57977E-01 -1.12779E-01
    8986.863     -6.111  -0.280  1.54595E-01  2.77106E-01 -1.22511E-01
    8986.943     -6.032  -0.240  1.63407E-01  2.94771E-01 -1.31364E-01
    8987.010     -5.965  -0.200  1.71339E-01  3.10389E-01 -1.39050E-01
    8987.065     -5.910  -0.160  1.78144E-01  3.23534E-01 -1.45390E-01
    8987.107     -5.867  -0.120  1.83630E-01  3.33930E-01 -1.50300E-01
    8987.138     -5.837  -0.080  1.87661E-01  3.41424E-01 -1.53763E-01
    8987.162     -5.812   0.000  1.90997E-01  3.47447E-01 -1.56450E-01
    8987.217     -5.757   0.120  1.98373E-01  3.61029E-01 -1.62656E-01
    8987.260     -5.715   0.160  2.04179E-01  3.71599E-01 -1.67420E-01
    8987.315     -5.660   0.200  2.11703E-01  3.85089E-01 -1.73386E-01
    8987.382     -5.593   0.240  2.21005E-01  4.01349E-01 -1.80344E-01
    8987.461     -5.514   0.280  2.32025E-01  4.20050E-01 -1.88025E-01
    8987.552     -5.422   0.320  2.44673E-01  4.40737E-01 -1.96064E-01
    8987.656     -5.319   0.360  2.58726E-01  4.62822E-01 -2.04096E-01
    8987.772     -5.203   0.400  2.73832E-01  4.85676E-01 -2.11844E-01
    8987.900     -5.075   0.440  2.89661E-01  5.08765E-01 -2.19104E-01
    8988.040     -4.935   0.480  3.05896E-01  5.31615E-01 -2.25719E-01
    8988.192     -4.782   0.520  3.22533E-01  5.53928E-01 -2.31395E-01
    8988.357     -4.618   0.560  3.40069E-01  5.75574E-01 -2.35505E-01
    8988.534     -4.441   0.600  3.59341E-01  5.96492E-01 -2.37151E-01
    8988.723     -4.252   0.640  3.80873E-01  6.16736E-01 -2.35863E-01
    8988.924     -4.051   0.680  4.03448E-01  6.36356E-01 -2.32908E-01
    8989.137     -3.837   0.720  4.23170E-01  6.55437E-01 -2.32267E-01
    8989.363     -3.612   0.760  4.35110E-01  6.74060E-01 -2.38950E-01
    8989.601     -3.374   0.800  4.37536E-01  6.92256E-01 -2.54720E-01
    8989.851     -3.124   0.840  4.33868E-01  7.10123E-01 -2.76256E-01
    8990.113     -2.862   0.880  4.29111E-01  7.27642E-01 -2.98531E-01
    8990.387     -2.588   0.920  4.26395E-01  7.44861E-01 -3.18466E-01
    8990.673     -2.301   0.960  4.26995E-01  7.61774E-01 -3.34779E-01
    8990.972     -2.002   1.000  4.32572E-01  7.78365E-01 -3.45793E-01
    8991.283     -1.691   1.040  4.45638E-01  7.94629E-01 -3.48991E-01
    8991.606     -1.368   1.080  4.67890E-01  8.10533E-01 -3.42642E-01
    8991.941     -1.033   1.120  4.98091E-01  8.26037E-01 -3.27946E-01
    8992.289     -0.686   1.160  5.30910E-01  8.41143E-01 -3.10233E-01
    8992.649     -0.326   1.200  5.57645E-01  8.55781E-01 -2.98136E-01
    8993.020      0.046   1.240  5.72479E-01  8.69925E-01 -2.97445E-01
    8993.404      0.430   1.280  5.79228E-01  8.83568E-01 -3.04340E-01
    8993.801      0.826   1.320  5.87800E-01  8.96660E-01 -3.08861E-01
    8994.209      1.235   1.360  6.05909E-01  9.09173E-01 -3.03264E-01
    8994.630      1.655   1.400  6.35154E-01  9.21080E-01 -2.85927E-01
    8995.063      2.088   1.440  6.70915E-01  9.32353E-01 -2.61438E-01
    8995.508      2.533   1.480  7.06453E-01  9.43010E-01 -2.36557E-01
    8995.965      2.990   1.520  7.40780E-01  9.53006E-01 -2.12226E-01
    8996.434      3.460   1.560  7.80949E-01  9.62339E-01 -1.81390E-01
    8996.916      3.941   1.600  8.33194E-01  9.71012E-01 -1.37817E-01
    8997.410      4.435   1.640  8.95571E-01  9.79006E-01 -8.34349E-02
    8997.915      4.941   1.680  9.65102E-01  9.86368E-01 -2.12663E-02
    8998.434      5.459   1.720  1.04651E+00  9.93084E-01  5.34307E-02
    8998.964      5.989   1.760  1.14948E+00  9.99160E-01  1.50317E-01
    8999.507      6.532   1.800  1.26864E+00  1.00461E+00  2.64033E-01
    9000.061      7.087   1.840  1.36425E+00  1.00948E+00  3.54770E-01
    9000.628      7.654   1.880  1.40051E+00  1.01376E+00  3.86753E-01
    9001.207      8.233   1.920  1.39725E+00  1.01749E+00  3.79760E-01
    9001.799      8.824   1.960  1.39887E+00  1.02071E+00  3.78162E-01
    9002.402      9.428   2.000  1.42720E+00  1.02344E+00  4.03762E-01
    9003.018     10.043   2.040  1.46497E+00  1.02568E+00  4.39286E-01
    9003.646     10.671   2.080  1.48068E+00  1.02749E+00  4.53190E-01
    9004.286     11.311   2.120  1.47099E+00  1.02889E+00  4.42100E-01
    9004.938     11.964   2.160  1.44240E+00  1.02990E+00  4.12508E-01
    9005.603     12.628   2.200  1.40690E+00  1.03054E+00  3.76359E-01
    9006.279     13.305   2.240  1.37931E+00  1.03089E+00  3.48423E-01
    9006.968     13.993   2.280  1.35306E+00  1.03093E+00  3.22132E-01
    9007.669     14.695   2.320  1.30234E+00  1.03068E+00  2.71660E-01
    9008.382     15.408   2.360  1.21715E+00  1.03023E+00  1.86919E-01
    9009.108     16.133   2.400  1.11460E+00  1.02955E+00  8.50514E-02
    9009.845     16.871   2.440  1.03322E+00  1.02866E+00  4.55814E-03
    9010.595     17.621   2.480  9.93286E-01  1.02763E+00 -3.43408E-02
    9011.357     18.383   2.520  9.77499E-01  1.02646E+00 -4.89606E-02
    9012.131     19.157   2.560  9.70781E-01  1.02517E+00 -5.43878E-02
    9012.918     19.943   2.600  9.66369E-01  1.02376E+00 -5.73942E-02
    9013.716     20.742   2.640  9.61947E-01  1.02229E+00 -6.03478E-02
    9014.527     21.552   2.680  9.56679E-01  1.02075E+00 -6.40717E-02
    9015.350     22.375   2.720  9.50537E-01  1.01916E+00 -6.86250E-02
    9016.185     23.211   2.760  9.44085E-01  1.01754E+00 -7.34523E-02
    9017.032     24.058   2.800  9.38215E-01  1.01592E+00 -7.77098E-02
    9017.892     24.917   2.840  9.33459E-01  1.01429E+00 -8.08297E-02
    9018.764     25.789   2.880  9.29676E-01  1.01268E+00 -8.30021E-02
    9019.648     26.673   2.920  9.26093E-01  1.01108E+00 -8.49865E-02
    9020.544     27.569   2.960  9.22075E-01  1.00952E+00 -8.74423E-02
    9021.452     28.478   3.000  9.17310E-01  1.00802E+00 -9.07068E-02
    9022.373     29.398   3.040  9.12327E-01  1.00654E+00 -9.42141E-02
    9023.305     30.331   3.080  9.08688E-01  1.00516E+00 -9.64701E-02
    9024.250     31.276   3.120  9.07120E-01  1.00383E+00 -9.67082E-02
    9025.207     32.233   3.160  9.07126E-01  1.00255E+00 -9.54261E-02
    9026.176     33.202   3.200  9.07442E-01  1.00138E+00 -9.39370E-02
    9027.158     34.183   3.240  9.06690E-01  1.00029E+00 -9.35984E-02
    9028.152     35.177   3.280  9.04002E-01  9.99282E-01 -9.52809E-02
    9029.157     36.183   3.320  8.99600E-01  9.98362E-01 -9.87622E-02
    9030.175     37.201   3.360  8.94796E-01  9.97550E-01 -1.02754E-01
    9031.206     38.231   3.400  8.90999E-01  9.96805E-01 -1.05807E-01
    9032.248     39.273   3.440  8.89408E-01  9.96192E-01 -1.06784E-01
    9033.303     40.328   3.480  8.90792E-01  9.95669E-01 -1.04877E-01
    9034.369     41.395   3.520  8.95623E-01  9.95235E-01 -9.96119E-02
    9035.448     42.474   3.560  9.03987E-01  9.94890E-01 -9.09030E-02
    9036.540     43.565   3.600  9.15702E-01  9.94657E-01 -7.89547E-02
    9037.643     44.668   3.640  9.30075E-01  9.94536E-01 -6.44613E-02
    9038.759     45.784   3.680  9.45847E-01  9.94504E-01 -4.86573E-02
    9039.886     46.912   3.720  9.61503E-01  9.94559E-01 -3.30564E-02
    9041.026     48.052   3.760  9.75666E-01  9.94702E-01 -1.90357E-02
    9042.178     49.204   3.800  9.87558E-01  9.94952E-01 -7.39365E-03
    9043.343     50.368   3.840  9.97301E-01  9.95286E-01  2.01430E-03
    9044.519     51.545   3.880  1.00575E+00  9.95703E-01  1.00468E-02
    9045.708     52.733   3.920  1.01388E+00  9.96200E-01  1.76801E-02
    9046.909     53.934   3.960  1.02242E+00  9.96756E-01  2.56670E-02
    9048.122     55.147   4.000  1.03196E+00  9.97409E-01  3.45531E-02
    9049.347     56.373   4.040  1.04280E+00  9.98118E-01  4.46776E-02
    9050.585     57.610   4.080  1.05481E+00  9.98900E-01  5.59136E-02
    9051.834     58.860   4.120  1.06738E+00  9.99732E-01  6.76436E-02
    9053.096     60.122   4.160  1.07946E+00  1.00063E+00  7.88253E-02
    9054.370     61.396   4.200  1.08976E+00  1.00158E+00  8.81770E-02
    9055.657     62.682   4.240  1.09717E+00  1.00257E+00  9.46007E-02
    9056.955     63.980   4.280  1.10117E+00  1.00359E+00  9.75766E-02
    9058.266     65.291   4.320  1.10187E+00  1.00463E+00  9.72356E-02
    9059.588     66.614   4.360  1.09987E+00  1.00573E+00  9.41387E-02
    9060.923     67.949   4.400  1.09586E+00  1.00684E+00  8.90194E-02
    9062.271     69.296   4.440  1.09054E+00  1.00795E+00  8.25866E-02
    9063.630     70.656   4.480  1.08441E+00  1.00909E+00  7.53212E-02
    9065.002     72.027   4.520  1.07776E+00  1.01024E+00  6.75223E-02
    9066.385     73.411   4.560  1.07080E+00  1.01136E+00  5.94454E-02
    9067.781     74.807   4.600  1.06391E+00  1.01249E+00  5.14161E-02
    9069.190     76.215   4.640  1.05740E+00  1.01363E+00  4.37717E-02
    9070.610     77.635   4.680  1.05139E+00  1.01470E+00  3.66845E-02
    9072.043     79.068   4.720  1.04578E+00  1.01580E+00  2.99897E-02
    9073.487     80.513   4.760  1.04015E+00  1.01685E+00  2.33009E-02
    9074.944     81.970   4.800  1.03406E+00  1.01787E+00  1.61945E-02
    9076.413     83.439   4.840  1.02722E+00  1.01884E+00  8.37326E-03
    9077.895     84.920   4.880  1.01981E+00  1.01978E+00  3.11145E-05
    9079.388     86.414   4.920  1.01258E+00  1.02067E+00 -8.08836E-03
    9080.894     87.919   4.960  1.00645E+00  1.02151E+00 -1.50579E-02
    9082.412     89.437   5.000  1.00199E+00  1.02228E+00 -2.02918E-02
    9083.942     90.967   5.040  9.99120E-01  1.02300E+00 -2.38843E-02
    9085.484     92.510   5.080  9.97206E-01  1.02368E+00 -2.64714E-02
    9087.039     94.064   5.120  9.95451E-01  1.02427E+00 -2.88237E-02
    9088.605     95.631   5.160  9.93284E-01  1.02480E+00 -3.15130E-02
    9090.184     97.210   5.200  9.90544E-01  1.02526E+00 -3.47210E-02
    9091.775     98.801   5.240  9.87368E-01  1.02566E+00 -3.82904E-02
    9093.378    100.404   5.280  9.84064E-01  1.02600E+00 -4.19325E-02
    9094.994    102.019   5.320  9.80703E-01  1.02626E+00 -4.55539E-02
    9096.621    103.647   5.360  9.77282E-01  1.02644E+00 -4.91559E-02
    9098.261    105.287   5.400  9.74029E-01  1.02654E+00 -5.25100E-02
    9099.913    106.939   5.440  9.71757E-01  1.02658E+00 -5.48277E-02
    9101.578    108.603   5.480  9.71538E-01  1.02653E+00 -5.49907E-02
    9103.254    110.279   5.520  9.74317E-01  1.02642E+00 -5.21020E-02
    9104.943    111.968   5.560  9.80209E-01  1.02626E+00 -4.60479E-02
    9106.643    113.669   5.600  9.88429E-01  1.02602E+00 -3.75888E-02
    9108.356    115.382   5.640  9.97680E-01  1.02570E+00 -2.80228E-02
    9110.081    117.107   5.680  1.00659E+00  1.02531E+00 -1.87188E-02
    9111.819    118.844   5.720  1.01400E+00  1.02487E+00 -1.08703E-02
    9113.568    120.594   5.760  1.01895E+00  1.02439E+00 -5.43640E-03
    9115.330    122.356   5.800  1.02068E+00  1.02383E+00 -3.14643E-03
    9117.104    124.129   5.840  1.01885E+00  1.02323E+00 -4.38132E-03
    9118.890    125.916   5.880  1.01373E+00  1.02260E+00 -8.86504E-03
    9120.688    127.714   5.920  1.00644E+00  1.02193E+00 -1.54912E-02
    9122.499    129.524   5.960  9.98799E-01  1.02122E+00 -2.24240E-02
    9124.322    131.347   6.000  9.92960E-01  1.02041E+00 -2.74551E-02
