# # comment:                                                     FEFF 9.9.1  
# # Source:
# # Structure
# # Reduced
# # space
# # abc:
# # angles:
# # sites:
# # POT  SCF 100  7.0000   0, screened core-hole, AFOLP (folp(0)= 1.150)
# # Abs   Z=29 Rmt= 1.208 Rnm= 1.328 K  shell
# # Pot 1 Z= 3 Rmt= 1.227 Rnm= 1.295
# # Pot 2 Z=29 Rmt= 1.255 Rnm= 1.341
# # Pot 3 Z= 8 Rmt= 0.992 Rnm= 1.098
# # Gam_ch=1.729E+00 H-L exch Vi= 0.000E+00 Vr= 0.000E+00
# # Mu=-7.047E+00eV kf=2.092E+00 Vint=-1.616E+01eV Rs_int= 1.734
# FMS rfms= 9.0000
# # PATH  Rmax=-1.000,  Keep_limit= 0.00, Heap_limit 0.00  Pwcrit= 2.50%
#  S02=0.950  Temp=   0.00  Debye_temp=   0.00  Global_sig2= 0.00000
#  Energy zero shift, vr, vi    0.00000E+00   0.00000E+00
#  Curved wave amplitude ratio filter   4.000%
#     file         sig2 tot  cw amp ratio   deg  nlegs   reff  inp sig2
#     0/   0 paths used
#  xsedge+ 50, used to normalize mu           2.4404E-04
#  -----------------------------------------------------------------------
#  omega    e    k    mu    mu0     chi     @#
    8984.280    -10.857  -1.000  4.82646E-02  5.91906E-02 -1.09259E-02
    8984.579    -10.558  -0.960  5.14989E-02  6.36257E-02 -1.21268E-02
    8984.865    -10.272  -0.920  5.50770E-02  6.85640E-02 -1.34870E-02
    8985.140     -9.997  -0.880  5.90495E-02  7.40804E-02 -1.50309E-02
    8985.402     -9.735  -0.840  6.34753E-02  8.02620E-02 -1.67867E-02
    8985.652     -9.485  -0.800  6.84225E-02  8.72098E-02 -1.87873E-02
    8985.889     -9.247  -0.760  7.39697E-02  9.50398E-02 -2.10702E-02
    8986.115     -9.022  -0.720  8.02054E-02  1.03883E-01 -2.36779E-02
    8986.328     -8.809  -0.680  8.72273E-02  1.13885E-01 -2.66575E-02
    8986.530     -8.607  -0.640  9.51385E-02  1.25197E-01 -3.00585E-02
    8986.718     -8.418  -0.600  1.04040E-01  1.37970E-01 -3.39298E-02
    8986.895     -8.242  -0.560  1.14019E-01  1.52333E-01 -3.83135E-02
    8987.060     -8.077  -0.520  1.25126E-01  1.68361E-01 -4.32349E-02
    8987.212     -7.925  -0.480  1.37351E-01  1.86041E-01 -4.86897E-02
    8987.352     -7.784  -0.440  1.50587E-01  2.05215E-01 -5.46280E-02
    8987.480     -7.656  -0.400  1.64607E-01  2.25549E-01 -6.09417E-02
    8987.596     -7.541  -0.360  1.79053E-01  2.46514E-01 -6.74601E-02
    8987.700     -7.437  -0.320  1.93462E-01  2.67424E-01 -7.39619E-02
    8987.791     -7.346  -0.280  2.07315E-01  2.87517E-01 -8.02019E-02
    8987.871     -7.266  -0.240  2.20115E-01  3.06062E-01 -8.59467E-02
    8987.938     -7.199  -0.200  2.31443E-01  3.22447E-01 -9.10044E-02
    8987.993     -7.144  -0.160  2.40986E-01  3.36225E-01 -9.52392E-02
    8988.035     -7.102  -0.120  2.48542E-01  3.47113E-01 -9.85714E-02
    8988.066     -7.071  -0.080  2.53989E-01  3.54955E-01 -1.00965E-01
    8988.090     -7.047   0.000  2.58353E-01  3.61253E-01 -1.02900E-01
    8988.145     -6.992   0.120  2.68221E-01  3.75442E-01 -1.07221E-01
    8988.188     -6.949   0.160  2.75941E-01  3.86464E-01 -1.10523E-01
    8988.242     -6.894   0.200  2.85855E-01  4.00539E-01 -1.14684E-01
    8988.310     -6.827   0.240  2.97843E-01  4.17449E-01 -1.19606E-01
    8988.389     -6.748   0.280  3.11730E-01  4.36845E-01 -1.25115E-01
    8988.480     -6.657   0.320  3.27202E-01  4.58199E-01 -1.30997E-01
    8988.584     -6.553   0.360  3.43891E-01  4.80881E-01 -1.36990E-01
    8988.700     -6.437   0.400  3.61372E-01  5.04221E-01 -1.42849E-01
    8988.828     -6.309   0.440  3.79148E-01  5.27587E-01 -1.48440E-01
    8988.968     -6.169   0.480  3.96653E-01  5.50486E-01 -1.53833E-01
    8989.120     -6.017   0.520  4.13195E-01  5.72594E-01 -1.59398E-01
    8989.285     -5.852   0.560  4.28040E-01  5.93790E-01 -1.65751E-01
    8989.462     -5.675   0.600  4.40439E-01  6.14017E-01 -1.73579E-01
    8989.651     -5.486   0.640  4.50036E-01  6.33299E-01 -1.83263E-01
    8989.852     -5.285   0.680  4.57207E-01  6.51762E-01 -1.94555E-01
    8990.065     -5.072   0.720  4.62784E-01  6.69489E-01 -2.06705E-01
    8990.291     -4.846   0.760  4.67710E-01  6.86581E-01 -2.18871E-01
    8990.528     -4.608   0.800  4.72553E-01  7.03129E-01 -2.30576E-01
    8990.778     -4.359   0.840  4.77673E-01  7.19209E-01 -2.41536E-01
    8991.041     -4.096   0.880  4.83546E-01  7.34879E-01 -2.51333E-01
    8991.315     -3.822   0.920  4.90853E-01  7.50167E-01 -2.59313E-01
    8991.601     -3.536   0.960  5.00185E-01  7.65100E-01 -2.64916E-01
    8991.900     -3.237   1.000  5.11978E-01  7.79700E-01 -2.67722E-01
    8992.211     -2.926   1.040  5.26606E-01  7.93955E-01 -2.67349E-01
    8992.534     -2.603   1.080  5.44078E-01  8.07907E-01 -2.63829E-01
    8992.869     -2.268   1.120  5.63589E-01  8.21489E-01 -2.57900E-01
    8993.217     -1.920   1.160  5.84229E-01  8.34731E-01 -2.50502E-01
    8993.576     -1.560   1.200  6.05429E-01  8.47598E-01 -2.42168E-01
    8993.948     -1.189   1.240  6.27678E-01  8.60092E-01 -2.32413E-01
    8994.332     -0.805   1.280  6.53049E-01  8.72152E-01 -2.19102E-01
    8994.729     -0.408   1.320  6.83997E-01  8.83796E-01 -1.99799E-01
    8995.137      0.000   1.360  7.19780E-01  8.94981E-01 -1.75201E-01
    8995.558      0.421   1.400  7.56345E-01  9.05686E-01 -1.49341E-01
    8995.990      0.854   1.440  7.90150E-01  9.15929E-01 -1.25779E-01
    8996.435      1.299   1.480  8.20767E-01  9.25685E-01 -1.04919E-01
    8996.893      1.756   1.520  8.50388E-01  9.34913E-01 -8.45247E-02
    8997.362      2.225   1.560  8.82009E-01  9.43654E-01 -6.16447E-02
    8997.844      2.707   1.600  9.17904E-01  9.51846E-01 -3.39418E-02
    8998.337      3.200   1.640  9.58262E-01  9.59531E-01 -1.26878E-03
    8998.843      3.706   1.680  1.00135E+00  9.66692E-01  3.46555E-02
    8999.362      4.225   1.720  1.04627E+00  9.73354E-01  7.29203E-02
    8999.892      4.755   1.760  1.09271E+00  9.79478E-01  1.13231E-01
    9000.434      5.298   1.800  1.14124E+00  9.85112E-01  1.56131E-01
    9000.989      5.852   1.840  1.18971E+00  9.90262E-01  1.99449E-01
    9001.556      6.419   1.880  1.22955E+00  9.94917E-01  2.34633E-01
    9002.135      6.998   1.920  1.25134E+00  9.99102E-01  2.52235E-01
    9002.727      7.590   1.960  1.25170E+00  1.00285E+00  2.48847E-01
    9003.330      8.193   2.000  1.23555E+00  1.00617E+00  2.29382E-01
    9003.946      8.809   2.040  1.21224E+00  1.00907E+00  2.03172E-01
    9004.574      9.437   2.080  1.19001E+00  1.01158E+00  1.78424E-01
    9005.214     10.077   2.120  1.17507E+00  1.01370E+00  1.61368E-01
    9005.866     10.729   2.160  1.16934E+00  1.01549E+00  1.53853E-01
    9006.530     11.393   2.200  1.16771E+00  1.01695E+00  1.50763E-01
    9007.207     12.070   2.240  1.16257E+00  1.01808E+00  1.44484E-01
    9007.896     12.759   2.280  1.15207E+00  1.01895E+00  1.33124E-01
    9008.597     13.460   2.320  1.13989E+00  1.01953E+00  1.20360E-01
    9009.310     14.173   2.360  1.12821E+00  1.01988E+00  1.08329E-01
    9010.036     14.899   2.400  1.11676E+00  1.02000E+00  9.67598E-02
    9010.773     15.636   2.440  1.10483E+00  1.01993E+00  8.48989E-02
    9011.523     16.386   2.480  1.09226E+00  1.01966E+00  7.25933E-02
    9012.285     17.148   2.520  1.08138E+00  1.01923E+00  6.21534E-02
    9013.059     17.922   2.560  1.07473E+00  1.01866E+00  5.60733E-02
    9013.846     18.709   2.600  1.06958E+00  1.01796E+00  5.16170E-02
    9014.644     19.507   2.640  1.06297E+00  1.01714E+00  4.58336E-02
    9015.455     20.318   2.680  1.05336E+00  1.01623E+00  3.71265E-02
    9016.278     21.141   2.720  1.04084E+00  1.01526E+00  2.55774E-02
    9017.113     21.976   2.760  1.02675E+00  1.01420E+00  1.25564E-02
    9017.960     22.823   2.800  1.01240E+00  1.01310E+00 -6.98064E-04
    9018.820     23.683   2.840  9.98630E-01  1.01197E+00 -1.33369E-02
    9019.692     24.555   2.880  9.86044E-01  1.01080E+00 -2.47521E-02
    9020.576     25.439   2.920  9.74833E-01  1.00961E+00 -3.47821E-02
    9021.472     26.335   2.960  9.65079E-01  1.00841E+00 -4.33298E-02
    9022.380     27.243   3.000  9.57011E-01  1.00723E+00 -5.02141E-02
    9023.300     28.164   3.040  9.50507E-01  1.00607E+00 -5.55604E-02
    9024.233     29.096   3.080  9.45292E-01  1.00492E+00 -5.96284E-02
    9025.178     30.041   3.120  9.41401E-01  1.00381E+00 -6.24071E-02
    9026.135     30.998   3.160  9.38885E-01  1.00271E+00 -6.38254E-02
    9027.104     31.967   3.200  9.37813E-01  1.00167E+00 -6.38596E-02
    9028.086     32.949   3.240  9.38132E-01  1.00068E+00 -6.25494E-02
    9029.079     33.942   3.280  9.39687E-01  9.99756E-01 -6.00689E-02
    9030.085     34.948   3.320  9.41940E-01  9.98858E-01 -5.69176E-02
    9031.103     35.966   3.360  9.44454E-01  9.98051E-01 -5.35975E-02
    9032.134     36.997   3.400  9.46720E-01  9.97295E-01 -5.05759E-02
    9033.176     38.039   3.440  9.48350E-01  9.96592E-01 -4.82413E-02
    9034.231     39.094   3.480  9.49275E-01  9.95985E-01 -4.67097E-02
    9035.297     40.160   3.520  9.49624E-01  9.95433E-01 -4.58093E-02
    9036.376     41.239   3.560  9.49770E-01  9.94956E-01 -4.51866E-02
    9037.467     42.331   3.600  9.49948E-01  9.94556E-01 -4.46080E-02
    9038.571     43.434   3.640  9.50469E-01  9.94211E-01 -4.37421E-02
    9039.686     44.549   3.680  9.51575E-01  9.93964E-01 -4.23886E-02
    9040.814     45.677   3.720  9.53296E-01  9.93773E-01 -4.04775E-02
    9041.954     46.817   3.760  9.55626E-01  9.93657E-01 -3.80308E-02
    9043.106     47.969   3.800  9.58519E-01  9.93596E-01 -3.50772E-02
    9044.271     49.134   3.840  9.61961E-01  9.93631E-01 -3.16701E-02
    9045.447     50.310   3.880  9.65840E-01  9.93719E-01 -2.78793E-02
    9046.636     51.499   3.920  9.70119E-01  9.93882E-01 -2.37624E-02
    9047.837     52.700   3.960  9.74654E-01  9.94095E-01 -1.94407E-02
    9049.050     53.913   4.000  9.79274E-01  9.94379E-01 -1.51051E-02
    9050.275     55.138   4.040  9.83829E-01  9.94712E-01 -1.08825E-02
    9051.513     56.376   4.080  9.88263E-01  9.95113E-01 -6.84932E-03
    9052.762     57.625   4.120  9.92513E-01  9.95559E-01 -3.04576E-03
    9054.024     58.887   4.160  9.96627E-01  9.96048E-01  5.78628E-04
    9055.298     60.161   4.200  1.00072E+00  9.96579E-01  4.14559E-03
    9056.584     61.448   4.240  1.00494E+00  9.97152E-01  7.78742E-03
    9057.883     62.746   4.280  1.00934E+00  9.97784E-01  1.15569E-02
    9059.194     64.057   4.320  1.01389E+00  9.98432E-01  1.54566E-02
    9060.516     65.379   4.360  1.01854E+00  9.99091E-01  1.94509E-02
    9061.851     66.714   4.400  1.02336E+00  9.99803E-01  2.35594E-02
    9063.199     68.062   4.440  1.02834E+00  1.00050E+00  2.78384E-02
    9064.558     69.421   4.480  1.03349E+00  1.00126E+00  3.22361E-02
    9065.930     70.793   4.520  1.03845E+00  1.00199E+00  3.64613E-02
    9067.313     72.176   4.560  1.04279E+00  1.00275E+00  4.00434E-02
    9068.709     73.572   4.600  1.04612E+00  1.00351E+00  4.26110E-02
    9070.118     74.981   4.640  1.04836E+00  1.00427E+00  4.40918E-02
    9071.538     76.401   4.680  1.04980E+00  1.00500E+00  4.47983E-02
    9072.970     77.834   4.720  1.05101E+00  1.00575E+00  4.52586E-02
    9074.415     79.278   4.760  1.05241E+00  1.00648E+00  4.59397E-02
    9075.872     80.735   4.800  1.05421E+00  1.00719E+00  4.70218E-02
    9077.341     82.204   4.840  1.05625E+00  1.00787E+00  4.83793E-02
    9078.823     83.686   4.880  1.05815E+00  1.00854E+00  4.96098E-02
    9080.316     85.179   4.920  1.05940E+00  1.00917E+00  5.02299E-02
    9081.822     86.685   4.960  1.05955E+00  1.00977E+00  4.97778E-02
    9083.340     88.203   5.000  1.05810E+00  1.01032E+00  4.77785E-02
    9084.870     89.733   5.040  1.05463E+00  1.01086E+00  4.37641E-02
    9086.412     91.275   5.080  1.04881E+00  1.01134E+00  3.74734E-02
    9087.967     92.830   5.120  1.04095E+00  1.01180E+00  2.91516E-02
    9089.533     94.396   5.160  1.03176E+00  1.01219E+00  1.95743E-02
    9091.112     95.975   5.200  1.02222E+00  1.01253E+00  9.69209E-03
    9092.703     97.566   5.240  1.01310E+00  1.01286E+00  2.41161E-04
    9094.306     99.169   5.280  1.00471E+00  1.01309E+00 -8.38470E-03
    9095.922    100.785   5.320  9.97277E-01  1.01330E+00 -1.60269E-02
    9097.549    102.412   5.360  9.90804E-01  1.01347E+00 -2.26665E-02
    9099.189    104.052   5.400  9.85173E-01  1.01357E+00 -2.83944E-02
    9100.841    105.704   5.440  9.80241E-01  1.01362E+00 -3.33748E-02
    9102.505    107.368   5.480  9.75856E-01  1.01359E+00 -3.77379E-02
    9104.182    109.045   5.520  9.71985E-01  1.01353E+00 -4.15399E-02
    9105.870    110.733   5.560  9.68617E-01  1.01341E+00 -4.47955E-02
    9107.571    112.434   5.600  9.65746E-01  1.01326E+00 -4.75091E-02
    9109.284    114.147   5.640  9.63442E-01  1.01305E+00 -4.96118E-02
    9111.009    115.872   5.680  9.61903E-01  1.01278E+00 -5.08816E-02
    9112.747    117.610   5.720  9.61504E-01  1.01247E+00 -5.09666E-02
    9114.496    119.359   5.760  9.62639E-01  1.01211E+00 -4.94744E-02
    9116.258    121.121   5.800  9.65658E-01  1.01172E+00 -4.60589E-02
    9118.032    122.895   5.840  9.70736E-01  1.01128E+00 -4.05461E-02
    9119.818    124.681   5.880  9.77712E-01  1.01081E+00 -3.30994E-02
    9121.616    126.479   5.920  9.85972E-01  1.01031E+00 -2.43329E-02
    9123.427    128.290   5.960  9.94517E-01  1.00977E+00 -1.52489E-02
    9125.250    130.113   6.000  1.00228E+00  1.00916E+00 -6.88402E-03
