# # comment:                                                     FEFF 9.9.1  
# # Source:
# # Structure
# # Reduced
# # space
# # abc:
# # angles:
# # sites:
# # POT  SCF 100  7.0000   0, screened core-hole, AFOLP (folp(0)= 1.150)
# # Abs   Z=29 Rmt= 1.248 Rnm= 1.321 K  shell
# # Pot 1 Z=56 Rmt= 2.169 Rnm= 2.208
# # Pot 2 Z=49 Rmt= 1.516 Rnm= 1.582
# # Pot 3 Z=29 Rmt= 1.248 Rnm= 1.321
# # Pot 4 Z= 8 Rmt= 1.042 Rnm= 1.111
# # Gam_ch=1.729E+00 H-L exch Vi= 0.000E+00 Vr= 0.000E+00
# # Mu=-6.869E+00eV kf=2.118E+00 Vint=-1.542E+01eV Rs_int= 1.712
# FMS rfms= 9.0000
# # PATH  Rmax=-1.000,  Keep_limit= 0.00, Heap_limit 0.00  Pwcrit= 2.50%
#  S02=0.950  Temp=   0.00  Debye_temp=   0.00  Global_sig2= 0.00000
#  Energy zero shift, vr, vi    0.00000E+00   0.00000E+00
#  Curved wave amplitude ratio filter   4.000%
#     file         sig2 tot  cw amp ratio   deg  nlegs   reff  inp sig2
#     0/   0 paths used
#  xsedge+ 50, used to normalize mu           2.4400E-04
#  -----------------------------------------------------------------------
#  omega    e    k    mu    mu0     chi     @#
    8984.103    -10.679  -1.000  4.35035E-02  5.87532E-02 -1.52498E-02
    8984.402    -10.380  -0.960  4.61142E-02  6.31548E-02 -1.70406E-02
    8984.688    -10.094  -0.920  4.89664E-02  6.80554E-02 -1.90891E-02
    8984.963     -9.819  -0.880  5.20905E-02  7.35291E-02 -2.14386E-02
    8985.225     -9.557  -0.840  5.55213E-02  7.96622E-02 -2.41409E-02
    8985.475     -9.307  -0.800  5.92980E-02  8.65547E-02 -2.72567E-02
    8985.713     -9.069  -0.760  6.34640E-02  9.43213E-02 -3.08573E-02
    8985.938     -8.844  -0.720  6.80669E-02  1.03092E-01 -3.50250E-02
    8986.151     -8.630  -0.680  7.31571E-02  1.13009E-01 -3.98524E-02
    8986.353     -8.429  -0.640  7.87855E-02  1.24225E-01 -4.54395E-02
    8986.542     -8.240  -0.600  8.50000E-02  1.36887E-01 -5.18869E-02
    8986.718     -8.064  -0.560  9.18387E-02  1.51122E-01 -5.92833E-02
    8986.883     -7.899  -0.520  9.93215E-02  1.67006E-01 -6.76848E-02
    8987.035     -7.747  -0.480  1.07437E-01  1.84524E-01 -7.70866E-02
    8987.176     -7.606  -0.440  1.16131E-01  2.03521E-01 -8.73897E-02
    8987.304     -7.478  -0.400  1.25292E-01  2.23666E-01 -9.83737E-02
    8987.419     -7.363  -0.360  1.34745E-01  2.44435E-01 -1.09691E-01
    8987.523     -7.259  -0.320  1.44257E-01  2.65151E-01 -1.20894E-01
    8987.615     -7.167  -0.280  1.53552E-01  2.85059E-01 -1.31507E-01
    8987.694     -7.088  -0.240  1.62339E-01  3.03435E-01 -1.41096E-01
    8987.761     -7.021  -0.200  1.70327E-01  3.19672E-01 -1.49345E-01
    8987.816     -6.966  -0.160  1.77257E-01  3.33329E-01 -1.56072E-01
    8987.858     -6.924  -0.120  1.82906E-01  3.44122E-01 -1.61216E-01
    8987.889     -6.893  -0.080  1.87097E-01  3.51896E-01 -1.64798E-01
    8987.913     -6.869   0.000  1.90605E-01  3.58139E-01 -1.67534E-01
    8987.968     -6.814   0.120  1.98588E-01  3.72234E-01 -1.73646E-01
    8988.011     -6.771   0.160  2.04899E-01  3.83167E-01 -1.78268E-01
    8988.066     -6.716   0.200  2.13257E-01  3.97117E-01 -1.83860E-01
    8988.133     -6.649   0.240  2.23848E-01  4.13891E-01 -1.90044E-01
    8988.212     -6.570   0.280  2.36849E-01  4.33149E-01 -1.96299E-01
    8988.303     -6.479   0.320  2.52432E-01  4.54371E-01 -2.01940E-01
    8988.407     -6.375   0.360  2.70626E-01  4.76942E-01 -2.06315E-01
    8988.523     -6.259   0.400  2.91244E-01  5.00180E-01 -2.08936E-01
    8988.651     -6.131   0.440  3.13670E-01  5.23466E-01 -2.09796E-01
    8988.791     -5.991   0.480  3.36701E-01  5.46331E-01 -2.09630E-01
    8988.943     -5.839   0.520  3.58447E-01  5.68458E-01 -2.10011E-01
    8989.108     -5.674   0.560  3.76664E-01  5.89685E-01 -2.13020E-01
    8989.285     -5.497   0.600  3.89398E-01  6.09953E-01 -2.20555E-01
    8989.474     -5.308   0.640  3.95962E-01  6.29343E-01 -2.33381E-01
    8989.675     -5.107   0.680  3.97564E-01  6.47917E-01 -2.50353E-01
    8989.888     -4.894   0.720  3.97469E-01  6.65772E-01 -2.68304E-01
    8990.114     -4.668   0.760  3.99842E-01  6.82985E-01 -2.83143E-01
    8990.352     -4.430   0.800  4.07467E-01  6.99661E-01 -2.92194E-01
    8990.602     -4.180   0.840  4.19211E-01  7.15850E-01 -2.96640E-01
    8990.864     -3.918   0.880  4.28510E-01  7.31609E-01 -3.03099E-01
    8991.138     -3.644   0.920  4.26530E-01  7.46958E-01 -3.20429E-01
    8991.424     -3.357   0.960  4.12685E-01  7.61923E-01 -3.49238E-01
    8991.723     -3.059   1.000  3.98954E-01  7.76521E-01 -3.77567E-01
    8992.034     -2.748   1.040  3.99026E-01  7.90759E-01 -3.91733E-01
    8992.357     -2.425   1.080  4.17635E-01  8.04615E-01 -3.86979E-01
    8992.692     -2.090   1.120  4.46784E-01  8.18081E-01 -3.71297E-01
    8993.040     -1.742   1.160  4.67121E-01  8.31145E-01 -3.64025E-01
    8993.400     -1.382   1.200  4.64478E-01  8.43792E-01 -3.79313E-01
    8993.771     -1.011   1.240  4.48118E-01  8.55983E-01 -4.07865E-01
    8994.155     -0.626   1.280  4.40253E-01  8.67738E-01 -4.27485E-01
    8994.552     -0.230   1.320  4.55559E-01  8.78995E-01 -4.23437E-01
    8994.960      0.178   1.360  5.02077E-01  8.89775E-01 -3.87698E-01
    8995.381      0.599   1.400  5.85032E-01  9.00056E-01 -3.15024E-01
    8995.814      1.032   1.440  6.97802E-01  9.09817E-01 -2.12015E-01
    8996.259      1.477   1.480  8.36043E-01  9.19037E-01 -8.29935E-02
    8996.716      1.934   1.520  1.00672E+00  9.27737E-01  7.89796E-02
    8997.185      2.403   1.560  1.16996E+00  9.35900E-01  2.34060E-01
    8997.667      2.885   1.600  1.24350E+00  9.43528E-01  2.99973E-01
    8998.161      3.379   1.640  1.23218E+00  9.50625E-01  2.81558E-01
    8998.667      3.885   1.680  1.21819E+00  9.57195E-01  2.60996E-01
    8999.185      4.403   1.720  1.24972E+00  9.63269E-01  2.86452E-01
    8999.715      4.933   1.760  1.32531E+00  9.68812E-01  3.56498E-01
    9000.258      5.476   1.800  1.40893E+00  9.73892E-01  4.35041E-01
    9000.812      6.030   1.840  1.47472E+00  9.78480E-01  4.96239E-01
    9001.379      6.597   1.880  1.51453E+00  9.82625E-01  5.31906E-01
    9001.958      7.176   1.920  1.50816E+00  9.86337E-01  5.21821E-01
    9002.550      7.768   1.960  1.44419E+00  9.89629E-01  4.54564E-01
    9003.153      8.371   2.000  1.33238E+00  9.92532E-01  3.39850E-01
    9003.769      8.987   2.040  1.21417E+00  9.95056E-01  2.19112E-01
    9004.397      9.615   2.080  1.12583E+00  9.97215E-01  1.28614E-01
    9005.037     10.255   2.120  1.07671E+00  9.99062E-01  7.76456E-02
    9005.689     10.907   2.160  1.06519E+00  1.00061E+00  6.45823E-02
    9006.354     11.572   2.200  1.08373E+00  1.00189E+00  8.18490E-02
    9007.030     12.248   2.240  1.11374E+00  1.00289E+00  1.10849E-01
    9007.719     12.937   2.280  1.13774E+00  1.00364E+00  1.34095E-01
    9008.420     13.638   2.320  1.15529E+00  1.00420E+00  1.51085E-01
    9009.133     14.351   2.360  1.17257E+00  1.00456E+00  1.68006E-01
    9009.859     15.077   2.400  1.18871E+00  1.00473E+00  1.83983E-01
    9010.596     15.814   2.440  1.19437E+00  1.00477E+00  1.89599E-01
    9011.346     16.564   2.480  1.17728E+00  1.00466E+00  1.72619E-01
    9012.108     17.326   2.520  1.12769E+00  1.00443E+00  1.23262E-01
    9012.882     18.100   2.560  1.06249E+00  1.00411E+00  5.83806E-02
    9013.669     18.887   2.600  1.01292E+00  1.00369E+00  9.22406E-03
    9014.467     19.685   2.640  9.79812E-01  1.00320E+00 -2.33905E-02
    9015.278     20.496   2.680  9.58569E-01  1.00266E+00 -4.40918E-02
    9016.101     21.319   2.720  9.45793E-01  1.00208E+00 -5.62837E-02
    9016.936     22.154   2.760  9.38562E-01  1.00148E+00 -6.29142E-02
    9017.783     23.002   2.800  9.32874E-01  1.00084E+00 -6.79691E-02
    9018.643     23.861   2.840  9.25326E-01  1.00020E+00 -7.48784E-02
    9019.515     24.733   2.880  9.14697E-01  9.99563E-01 -8.48660E-02
    9020.399     25.617   2.920  9.02166E-01  9.98927E-01 -9.67614E-02
    9021.295     26.513   2.960  8.90115E-01  9.98319E-01 -1.08205E-01
    9022.203     27.421   3.000  8.80579E-01  9.97742E-01 -1.17163E-01
    9023.124     28.342   3.040  8.74263E-01  9.97179E-01 -1.22916E-01
    9024.056     29.274   3.080  8.70661E-01  9.96655E-01 -1.25994E-01
    9025.001     30.219   3.120  8.68595E-01  9.96194E-01 -1.27600E-01
    9025.958     31.176   3.160  8.66930E-01  9.95775E-01 -1.28845E-01
    9026.927     32.145   3.200  8.65510E-01  9.95401E-01 -1.29891E-01
    9027.909     33.127   3.240  8.64902E-01  9.95072E-01 -1.30170E-01
    9028.903     34.121   3.280  8.65754E-01  9.94810E-01 -1.29057E-01
    9029.908     35.126   3.320  8.68693E-01  9.94599E-01 -1.25906E-01
    9030.926     36.144   3.360  8.74306E-01  9.94457E-01 -1.20151E-01
    9031.957     37.175   3.400  8.82924E-01  9.94364E-01 -1.11439E-01
    9032.999     38.217   3.440  8.94428E-01  9.94340E-01 -9.99128E-02
    9034.054     39.272   3.480  9.08441E-01  9.94369E-01 -8.59279E-02
    9035.120     40.338   3.520  9.24140E-01  9.94467E-01 -7.03270E-02
    9036.199     41.417   3.560  9.40037E-01  9.94616E-01 -5.45795E-02
    9037.291     42.509   3.600  9.54599E-01  9.94836E-01 -4.02367E-02
    9038.394     43.612   3.640  9.66728E-01  9.95124E-01 -2.83966E-02
    9039.510     44.728   3.680  9.76090E-01  9.95439E-01 -1.93492E-02
    9040.637     45.855   3.720  9.83092E-01  9.95822E-01 -1.27298E-02
    9041.777     46.995   3.760  9.88409E-01  9.96270E-01 -7.86076E-03
    9042.929     48.147   3.800  9.92671E-01  9.96741E-01 -4.07007E-03
    9044.094     49.312   3.840  9.96641E-01  9.97278E-01 -6.36933E-04
    9045.270     50.488   3.880  1.00107E+00  9.97856E-01  3.21893E-03
    9046.459     51.677   3.920  1.00657E+00  9.98472E-01  8.10124E-03
    9047.660     52.878   3.960  1.01332E+00  9.99103E-01  1.42209E-02
    9048.873     54.091   4.000  1.02123E+00  9.99791E-01  2.14421E-02
    9050.098     55.316   4.040  1.02993E+00  1.00049E+00  2.94319E-02
    9051.336     56.554   4.080  1.03898E+00  1.00123E+00  3.77500E-02
    9052.585     57.803   4.120  1.04786E+00  1.00197E+00  4.58894E-02
    9053.847     59.065   4.160  1.05622E+00  1.00274E+00  5.34842E-02
    9055.121     60.339   4.200  1.06387E+00  1.00351E+00  6.03538E-02
    9056.408     61.626   4.240  1.07107E+00  1.00429E+00  6.67771E-02
    9057.706     62.924   4.280  1.07849E+00  1.00507E+00  7.34237E-02
    9059.017     64.235   4.320  1.08662E+00  1.00584E+00  8.07757E-02
    9060.339     65.558   4.360  1.09513E+00  1.00661E+00  8.85152E-02
    9061.675     66.893   4.400  1.10297E+00  1.00738E+00  9.55867E-02
    9063.022     68.240   4.440  1.10900E+00  1.00814E+00  1.00861E-01
    9064.381     69.599   4.480  1.11237E+00  1.00887E+00  1.03501E-01
    9065.753     70.971   4.520  1.11268E+00  1.00959E+00  1.03085E-01
    9067.136     72.355   4.560  1.10978E+00  1.01028E+00  9.95004E-02
    9068.532     73.751   4.600  1.10380E+00  1.01093E+00  9.28733E-02
    9069.941     75.159   4.640  1.09508E+00  1.01156E+00  8.35225E-02
    9071.361     76.579   4.680  1.08390E+00  1.01216E+00  7.17432E-02
    9072.794     78.012   4.720  1.07041E+00  1.01272E+00  5.76991E-02
    9074.238     79.456   4.760  1.05479E+00  1.01323E+00  4.15588E-02
    9075.695     80.913   4.800  1.03753E+00  1.01370E+00  2.38248E-02
    9077.164     82.382   4.840  1.01973E+00  1.01413E+00  5.59891E-03
    9078.646     83.864   4.880  1.00256E+00  1.01452E+00 -1.19649E-02
    9080.139     85.357   4.920  9.87063E-01  1.01486E+00 -2.77981E-02
    9081.645     86.863   4.960  9.73983E-01  1.01513E+00 -4.11504E-02
    9083.163     88.381   5.000  9.63715E-01  1.01536E+00 -5.16445E-02
    9084.693     89.911   5.040  9.56306E-01  1.01554E+00 -5.92338E-02
    9086.235     91.453   5.080  9.51786E-01  1.01568E+00 -6.38894E-02
    9087.790     93.008   5.120  9.49847E-01  1.01576E+00 -6.59175E-02
    9089.356     94.574   5.160  9.50290E-01  1.01578E+00 -6.54945E-02
    9090.935     96.153   5.200  9.53132E-01  1.01576E+00 -6.26250E-02
    9092.526     97.744   5.240  9.58449E-01  1.01568E+00 -5.72335E-02
    9094.129     99.348   5.280  9.65894E-01  1.01554E+00 -4.96470E-02
    9095.745    100.963   5.320  9.74261E-01  1.01538E+00 -4.11159E-02
    9097.373    102.591   5.360  9.81501E-01  1.01515E+00 -3.36443E-02
    9099.012    104.230   5.400  9.85803E-01  1.01487E+00 -2.90662E-02
    9100.664    105.882   5.440  9.86597E-01  1.01455E+00 -2.79535E-02
    9102.329    107.547   5.480  9.84827E-01  1.01419E+00 -2.93634E-02
    9104.005    109.223   5.520  9.82323E-01  1.01379E+00 -3.14658E-02
    9105.694    110.912   5.560  9.80725E-01  1.01335E+00 -3.26210E-02
    9107.394    112.612   5.600  9.80736E-01  1.01286E+00 -3.21283E-02
    9109.107    114.325   5.640  9.81997E-01  1.01235E+00 -3.03491E-02
    9110.832    116.050   5.680  9.83797E-01  1.01181E+00 -2.80176E-02
    9112.570    117.788   5.720  9.85853E-01  1.01125E+00 -2.53956E-02
    9114.319    119.537   5.760  9.88933E-01  1.01065E+00 -2.17152E-02
    9116.081    121.299   5.800  9.94356E-01  1.01002E+00 -1.56601E-02
    9117.855    123.073   5.840  1.00289E+00  1.00940E+00 -6.50802E-03
    9119.641    124.859   5.880  1.01376E+00  1.00874E+00  5.01892E-03
    9121.439    126.657   5.920  1.02495E+00  1.00811E+00  1.68435E-02
    9123.250    128.468   5.960  1.03360E+00  1.00745E+00  2.61414E-02
    9125.073    130.291   6.000  1.03669E+00  1.00676E+00  2.99268E-02
