# # comment:                                                     FEFF 9.9.1  
# # Source:
# # Structure
# # Reduced
# # space
# # abc:
# # angles:
# # sites:
# # POT  SCF 100  7.0000   0, screened core-hole, AFOLP (folp(0)= 1.150)
# # Abs   Z=29 Rmt= 1.284 Rnm= 1.368 K  shell
# # Pot 1 Z= 3 Rmt= 1.247 Rnm= 1.305
# # Pot 2 Z=29 Rmt= 1.284 Rnm= 1.368
# # Pot 3 Z= 6 Rmt= 0.709 Rnm= 0.923
# # Pot 4 Z= 8 Rmt= 0.833 Rnm= 1.011
# # Gam_ch=1.729E+00 H-L exch Vi= 0.000E+00 Vr= 0.000E+00
# # Mu=-6.287E+00eV kf=2.601E+00 Vint=-1.800E+01eV Rs_int= 1.395
# FMS rfms= 9.0000
# # PATH  Rmax=-1.000,  Keep_limit= 0.00, Heap_limit 0.00  Pwcrit= 2.50%
#  S02=0.950  Temp=   0.00  Debye_temp=   0.00  Global_sig2= 0.00000
#  Energy zero shift, vr, vi    0.00000E+00   0.00000E+00
#  Curved wave amplitude ratio filter   4.000%
#     file         sig2 tot  cw amp ratio   deg  nlegs   reff  inp sig2
#     0/   0 paths used
#  xsedge+ 50, used to normalize mu           2.4981E-04
#  -----------------------------------------------------------------------
#  omega    e    k    mu    mu0     chi     @#
    8983.369    -10.097  -1.000  5.13864E-02  5.36538E-02 -2.26738E-03
    8983.667     -9.799  -0.960  5.50121E-02  5.75830E-02 -2.57082E-03
    8983.954     -9.512  -0.920  5.90384E-02  6.19547E-02 -2.91629E-03
    8984.228     -9.238  -0.880  6.35256E-02  6.68349E-02 -3.30929E-03
    8984.490     -8.976  -0.840  6.85446E-02  7.23005E-02 -3.75591E-03
    8984.740     -8.726  -0.800  7.41778E-02  7.84406E-02 -4.26282E-03
    8984.978     -8.488  -0.760  8.05205E-02  8.53577E-02 -4.83722E-03
    8985.203     -8.262  -0.720  8.76811E-02  9.31679E-02 -5.48671E-03
    8985.417     -8.049  -0.680  9.57798E-02  1.01999E-01 -6.21906E-03
    8985.618     -7.848  -0.640  1.04944E-01  1.11986E-01 -7.04184E-03
    8985.807     -7.659  -0.600  1.15300E-01  1.23262E-01 -7.96181E-03
    8985.984     -7.482  -0.560  1.26958E-01  1.35942E-01 -8.98401E-03
    8986.148     -7.318  -0.520  1.39982E-01  1.50092E-01 -1.01105E-02
    8986.301     -7.165  -0.480  1.54362E-01  1.65701E-01 -1.13388E-02
    8986.441     -7.025  -0.440  1.69969E-01  1.82629E-01 -1.26601E-02
    8986.569     -6.897  -0.400  1.86523E-01  2.00580E-01 -1.40577E-02
    8986.685     -6.781  -0.360  2.03581E-01  2.19087E-01 -1.55059E-02
    8986.788     -6.678  -0.320  2.20571E-01  2.37541E-01 -1.69705E-02
    8986.880     -6.586  -0.280  2.36859E-01  2.55270E-01 -1.84107E-02
    8986.959     -6.507  -0.240  2.51844E-01  2.71626E-01 -1.97814E-02
    8987.026     -6.440  -0.200  2.65033E-01  2.86070E-01 -2.10367E-02
    8987.081     -6.385  -0.160  2.76080E-01  2.98211E-01 -2.21317E-02
    8987.124     -6.342  -0.120  2.84776E-01  3.07801E-01 -2.30248E-02
    8987.154     -6.312  -0.080  2.91021E-01  3.14705E-01 -2.36840E-02
    8987.179     -6.287   0.000  2.96014E-01  3.20248E-01 -2.42341E-02
    8987.233     -6.233   0.120  3.06910E-01  3.32742E-01 -2.58323E-02
    8987.276     -6.190   0.160  3.15404E-01  3.42428E-01 -2.70231E-02
    8987.331     -6.135   0.200  3.26216E-01  3.54797E-01 -2.85810E-02
    8987.398     -6.068   0.240  3.39100E-01  3.69623E-01 -3.05227E-02
    8987.477     -5.989   0.280  3.53779E-01  3.86628E-01 -3.28487E-02
    8987.569     -5.897   0.320  3.69742E-01  4.05311E-01 -3.55684E-02
    8987.672     -5.794   0.360  3.86445E-01  4.25119E-01 -3.86744E-02
    8987.788     -5.678   0.400  4.03289E-01  4.45429E-01 -4.21398E-02
    8987.916     -5.550   0.440  4.19756E-01  4.65691E-01 -4.59354E-02
    8988.056     -5.410   0.480  4.35484E-01  4.85502E-01 -5.00185E-02
    8988.209     -5.257   0.520  4.50220E-01  5.04532E-01 -5.43119E-02
    8988.373     -5.093   0.560  4.64053E-01  5.22698E-01 -5.86458E-02
    8988.550     -4.916   0.600  4.77165E-01  5.39975E-01 -6.28097E-02
    8988.739     -4.727   0.640  4.89697E-01  5.56405E-01 -6.67079E-02
    8988.940     -4.526   0.680  5.01579E-01  5.72094E-01 -7.05152E-02
    8989.154     -4.312   0.720  5.12613E-01  5.87162E-01 -7.45489E-02
    8989.379     -4.087   0.760  5.22762E-01  6.01688E-01 -7.89254E-02
    8989.617     -3.849   0.800  5.32268E-01  6.15823E-01 -8.35554E-02
    8989.867     -3.599   0.840  5.41388E-01  6.29606E-01 -8.82179E-02
    8990.129     -3.337   0.880  5.51243E-01  6.43138E-01 -9.18953E-02
    8990.403     -3.063   0.920  5.63242E-01  6.56469E-01 -9.32271E-02
    8990.690     -2.776   0.960  5.76333E-01  6.69615E-01 -9.32822E-02
    8990.988     -2.477   1.000  5.86755E-01  6.82664E-01 -9.59098E-02
    8991.299     -2.166   1.040  5.92767E-01  6.95592E-01 -1.02826E-01
    8991.622     -1.843   1.080  5.97752E-01  7.08426E-01 -1.10674E-01
    8991.958     -1.508   1.120  6.06841E-01  7.21188E-01 -1.14347E-01
    8992.305     -1.161   1.160  6.24292E-01  7.33853E-01 -1.09561E-01
    8992.665     -0.801   1.200  6.53222E-01  7.46432E-01 -9.32099E-02
    8993.037     -0.429   1.240  6.94867E-01  7.58912E-01 -6.40444E-02
    8993.421     -0.045   1.280  7.48755E-01  7.71295E-01 -2.25398E-02
    8993.817      0.351   1.320  8.11885E-01  7.83562E-01  2.83229E-02
    8994.225      0.760   1.360  8.74869E-01  7.95672E-01  7.91973E-02
    8994.646      1.180   1.400  9.25299E-01  8.07620E-01  1.17678E-01
    8995.079      1.613   1.440  9.61258E-01  8.19403E-01  1.41854E-01
    8995.524      2.058   1.480  9.92081E-01  8.30974E-01  1.61107E-01
    8995.981      2.515   1.520  1.02126E+00  8.42326E-01  1.78938E-01
    8996.450      2.985   1.560  1.03741E+00  8.53454E-01  1.83952E-01
    8996.932      3.466   1.600  1.03657E+00  8.64309E-01  1.72265E-01
    8997.426      3.960   1.640  1.03259E+00  8.74883E-01  1.57711E-01
    8997.932      4.466   1.680  1.03167E+00  8.85149E-01  1.46520E-01
    8998.450      4.984   1.720  1.03182E+00  8.95119E-01  1.36706E-01
    8998.980      5.514   1.760  1.03663E+00  9.04727E-01  1.31903E-01
    8999.523      6.057   1.800  1.04219E+00  9.14007E-01  1.28178E-01
    9000.078      6.612   1.840  1.03220E+00  9.22914E-01  1.09285E-01
    9000.645      7.179   1.880  9.98726E-01  9.31441E-01  6.72854E-02
    9001.224      7.758   1.920  9.55165E-01  9.39584E-01  1.55807E-02
    9001.815      8.349   1.960  9.24008E-01  9.47319E-01 -2.33118E-02
    9002.418      8.953   2.000  9.15699E-01  9.54666E-01 -3.89668E-02
    9003.034      9.568   2.040  9.25001E-01  9.61600E-01 -3.65985E-02
    9003.662     10.196   2.080  9.46840E-01  9.68120E-01 -2.12798E-02
    9004.302     10.836   2.120  9.78468E-01  9.74226E-01  4.24212E-03
    9004.954     11.488   2.160  1.01514E+00  9.79899E-01  3.52368E-02
    9005.619     12.153   2.200  1.05111E+00  9.85181E-01  6.59287E-02
    9006.295     12.830   2.240  1.08184E+00  9.90052E-01  9.17859E-02
    9006.984     13.518   2.280  1.10826E+00  9.94517E-01  1.13746E-01
    9007.685     14.219   2.320  1.13243E+00  9.98576E-01  1.33859E-01
    9008.399     14.933   2.360  1.15066E+00  1.00224E+00  1.48428E-01
    9009.124     15.658   2.400  1.15914E+00  1.00552E+00  1.53615E-01
    9009.862     16.396   2.440  1.15951E+00  1.00844E+00  1.51078E-01
    9010.611     17.146   2.480  1.15419E+00  1.01099E+00  1.43205E-01
    9011.373     17.908   2.520  1.14318E+00  1.01320E+00  1.29973E-01
    9012.148     18.682   2.560  1.12749E+00  1.01507E+00  1.12424E-01
    9012.934     19.468   2.600  1.11097E+00  1.01660E+00  9.43653E-02
    9013.733     20.267   2.640  1.09432E+00  1.01785E+00  7.64723E-02
    9014.543     21.077   2.680  1.07404E+00  1.01880E+00  5.52309E-02
    9015.366     21.900   2.720  1.05003E+00  1.01948E+00  3.05528E-02
    9016.201     22.736   2.760  1.02839E+00  1.01988E+00  8.51226E-03
    9017.049     23.583   2.800  1.01570E+00  1.02006E+00 -4.35514E-03
    9017.908     24.442   2.840  1.01148E+00  1.01998E+00 -8.49768E-03
    9018.780     25.314   2.880  1.00756E+00  1.01971E+00 -1.21466E-02
    9019.664     26.198   2.920  9.96771E-01  1.01924E+00 -2.24678E-02
    9020.560     27.094   2.960  9.76554E-01  1.01858E+00 -4.20229E-02
    9021.468     28.002   3.000  9.52691E-01  1.01775E+00 -6.50591E-02
    9022.389     28.923   3.040  9.34561E-01  1.01679E+00 -8.22268E-02
    9023.322     29.856   3.080  9.23534E-01  1.01567E+00 -9.21402E-02
    9024.266     30.801   3.120  9.18674E-01  1.01444E+00 -9.57657E-02
    9025.223     31.758   3.160  9.18137E-01  1.01311E+00 -9.49751E-02
    9026.193     32.727   3.200  9.20287E-01  1.01170E+00 -9.14078E-02
    9027.174     33.708   3.240  9.24041E-01  1.01018E+00 -8.61357E-02
    9028.168     34.702   3.280  9.28745E-01  1.00860E+00 -7.98600E-02
    9029.174     35.708   3.320  9.33640E-01  1.00698E+00 -7.33421E-02
    9030.192     36.726   3.360  9.37882E-01  1.00530E+00 -6.74160E-02
    9031.222     37.756   3.400  9.40898E-01  1.00360E+00 -6.27002E-02
    9032.264     38.798   3.440  9.42459E-01  1.00189E+00 -5.94295E-02
    9033.319     39.853   3.480  9.42658E-01  1.00015E+00 -5.74957E-02
    9034.386     40.920   3.520  9.42094E-01  9.98436E-01 -5.63420E-02
    9035.465     41.999   3.560  9.41458E-01  9.96701E-01 -5.52428E-02
    9036.556     43.090   3.600  9.41467E-01  9.94993E-01 -5.35252E-02
    9037.659     44.193   3.640  9.42626E-01  9.93318E-01 -5.06921E-02
    9038.775     45.309   3.680  9.45231E-01  9.91678E-01 -4.64472E-02
    9039.903     46.437   3.720  9.49289E-01  9.90055E-01 -4.07661E-02
    9041.043     47.577   3.760  9.54638E-01  9.88496E-01 -3.38580E-02
    9042.195     48.729   3.800  9.61053E-01  9.86981E-01 -2.59276E-02
    9043.359     49.893   3.840  9.68257E-01  9.85533E-01 -1.72755E-02
    9044.536     51.070   3.880  9.75901E-01  9.84134E-01 -8.23236E-03
    9045.724     52.258   3.920  9.83633E-01  9.82786E-01  8.47028E-04
    9046.925     53.459   3.960  9.91135E-01  9.81533E-01  9.60159E-03
    9048.138     54.672   4.000  9.98001E-01  9.80337E-01  1.76640E-02
    9049.364     55.898   4.040  1.00405E+00  9.79237E-01  2.48133E-02
    9050.601     57.135   4.080  1.00914E+00  9.78196E-01  3.09468E-02
    9051.851     58.385   4.120  1.01333E+00  9.77233E-01  3.61011E-02
    9053.113     59.647   4.160  1.01689E+00  9.76371E-01  4.05230E-02
    9054.387     60.921   4.200  1.02010E+00  9.75568E-01  4.45276E-02
    9055.673     62.207   4.240  1.02315E+00  9.74845E-01  4.83094E-02
    9056.971     63.505   4.280  1.02611E+00  9.74223E-01  5.18821E-02
    9058.282     64.816   4.320  1.02885E+00  9.73684E-01  5.51611E-02
    9059.605     66.139   4.360  1.03116E+00  9.73204E-01  5.79541E-02
    9060.940     67.474   4.400  1.03284E+00  9.72824E-01  6.00161E-02
    9062.287     68.821   4.440  1.03364E+00  9.72526E-01  6.11093E-02
    9063.646     70.181   4.480  1.03330E+00  9.72308E-01  6.09962E-02
    9065.018     71.552   4.520  1.03169E+00  9.72168E-01  5.95245E-02
    9066.402     72.936   4.560  1.02878E+00  9.72103E-01  5.66760E-02
    9067.798     74.332   4.600  1.02460E+00  9.72094E-01  5.25055E-02
    9069.206     75.740   4.640  1.01923E+00  9.72159E-01  4.70664E-02
    9070.626     77.160   4.680  1.01276E+00  9.72319E-01  4.04450E-02
    9072.059     78.593   4.720  1.00532E+00  9.72510E-01  3.28091E-02
    9073.504     80.038   4.760  9.97200E-01  9.72771E-01  2.44290E-02
    9074.961     81.495   4.800  9.88783E-01  9.73101E-01  1.56819E-02
    9076.430     82.964   4.840  9.80453E-01  9.73477E-01  6.97618E-03
    9077.911     84.445   4.880  9.72594E-01  9.73897E-01 -1.30359E-03
    9079.405     85.939   4.920  9.65547E-01  9.74381E-01 -8.83421E-03
    9080.910     87.444   4.960  9.59449E-01  9.74884E-01 -1.54350E-02
    9082.428     88.962   5.000  9.54342E-01  9.75424E-01 -2.10812E-02
    9083.958     90.492   5.040  9.50125E-01  9.76020E-01 -2.58959E-02
    9085.500     92.035   5.080  9.46537E-01  9.76610E-01 -3.00730E-02
    9087.055     93.589   5.120  9.43465E-01  9.77252E-01 -3.37865E-02
    9088.622     95.156   5.160  9.40732E-01  9.77903E-01 -3.71702E-02
    9090.200     96.735   5.200  9.38310E-01  9.78557E-01 -4.02476E-02
    9091.792     98.326   5.240  9.36261E-01  9.79215E-01 -4.29547E-02
    9093.395     99.929   5.280  9.34783E-01  9.79899E-01 -4.51153E-02
    9095.010    101.544   5.320  9.34118E-01  9.80582E-01 -4.64641E-02
    9096.638    103.172   5.360  9.34573E-01  9.81238E-01 -4.66654E-02
    9098.278    104.812   5.400  9.36494E-01  9.81889E-01 -4.53954E-02
    9099.930    106.464   5.440  9.40084E-01  9.82533E-01 -4.24488E-02
    9101.594    108.128   5.480  9.45315E-01  9.83147E-01 -3.78319E-02
    9103.270    109.804   5.520  9.51975E-01  9.83749E-01 -3.17746E-02
    9104.959    111.493   5.560  9.59638E-01  9.84318E-01 -2.46801E-02
    9106.660    113.194   5.600  9.67838E-01  9.84848E-01 -1.70108E-02
    9108.373    114.907   5.640  9.76106E-01  9.85341E-01 -9.23469E-03
    9110.098    116.632   5.680  9.84024E-01  9.85816E-01 -1.79280E-03
    9111.835    118.369   5.720  9.91160E-01  9.86229E-01  4.93160E-03
    9113.585    120.119   5.760  9.97272E-01  9.86598E-01  1.06742E-02
    9115.346    121.880   5.800  1.00220E+00  9.86924E-01  1.52759E-02
    9117.120    123.654   5.840  1.00580E+00  9.87205E-01  1.85949E-02
    9118.906    125.441   5.880  1.00787E+00  9.87417E-01  2.04573E-02
    9120.705    127.239   5.920  1.00833E+00  9.87579E-01  2.07519E-02
    9122.515    129.049   5.960  1.00726E+00  9.87686E-01  1.95742E-02
    9124.338    130.872   6.000  1.00484E+00  9.87686E-01  1.71579E-02
