# # comment:                                                     FEFF 9.9.1  
# # Source:
# # Structure
# # Reduced
# # space
# # abc:
# # angles:
# # sites:
# # POT  SCF 100  7.0000   0, screened core-hole, AFOLP (folp(0)= 1.150)
# # Abs   Z=29 Rmt= 1.124 Rnm= 1.265 K  shell
# # Pot 1 Z=29 Rmt= 1.124 Rnm= 1.265
# # Pot 2 Z= 8 Rmt= 0.998 Rnm= 1.124
# # Gam_ch=1.729E+00 H-L exch Vi= 0.000E+00 Vr= 0.000E+00
# # Mu=-6.927E+00eV kf=2.175E+00 Vint=-1.456E+01eV Rs_int= 1.668
# FMS rfms= 9.0000
# # PATH  Rmax=-1.000,  Keep_limit= 0.00, Heap_limit 0.00  Pwcrit= 2.50%
#  S02=0.950  Temp=   0.00  Debye_temp=   0.00  Global_sig2= 0.00000
#  Energy zero shift, vr, vi    0.00000E+00   0.00000E+00
#  Curved wave amplitude ratio filter   4.000%
#     file         sig2 tot  cw amp ratio   deg  nlegs   reff  inp sig2
#     0/   0 paths used
#  xsedge+ 50, used to normalize mu           2.4248E-04
#  -----------------------------------------------------------------------
#  omega    e    k    mu    mu0     chi     @#
    8983.507    -10.737  -1.000  3.52013E-02  5.65870E-02 -2.13857E-02
    8983.806    -10.439  -0.960  3.69682E-02  6.06984E-02 -2.37302E-02
    8984.093    -10.152  -0.920  3.88653E-02  6.52632E-02 -2.63979E-02
    8984.367     -9.878  -0.880  4.09063E-02  7.03473E-02 -2.94411E-02
    8984.629     -9.616  -0.840  4.31066E-02  7.60276E-02 -3.29211E-02
    8984.879     -9.366  -0.800  4.54837E-02  8.23930E-02 -3.69093E-02
    8985.117     -9.128  -0.760  4.80571E-02  8.95452E-02 -4.14881E-02
    8985.342     -8.903  -0.720  5.08485E-02  9.75991E-02 -4.67507E-02
    8985.556     -8.689  -0.680  5.38807E-02  1.06681E-01 -5.28004E-02
    8985.757     -8.488  -0.640  5.71773E-02  1.16925E-01 -5.97472E-02
    8985.946     -8.299  -0.600  6.07598E-02  1.28460E-01 -6.76998E-02
    8986.122     -8.122  -0.560  6.46444E-02  1.41398E-01 -7.67533E-02
    8986.287     -7.958  -0.520  6.88356E-02  1.55804E-01 -8.69685E-02
    8986.439     -7.805  -0.480  7.33188E-02  1.71663E-01 -9.83442E-02
    8986.580     -7.665  -0.440  7.80510E-02  1.88836E-01 -1.10785E-01
    8986.708     -7.537  -0.400  8.29536E-02  2.07025E-01 -1.24072E-01
    8986.824     -7.421  -0.360  8.79111E-02  2.25766E-01 -1.37855E-01
    8986.927     -7.318  -0.320  9.27790E-02  2.44453E-01 -1.51674E-01
    8987.019     -7.226  -0.280  9.74017E-02  2.62414E-01 -1.65012E-01
    8987.098     -7.147  -0.240  1.01633E-01  2.78999E-01 -1.77366E-01
    8987.165     -7.080  -0.200  1.05355E-01  2.93666E-01 -1.88311E-01
    8987.220     -7.025  -0.160  1.08481E-01  3.06011E-01 -1.97530E-01
    8987.262     -6.982  -0.120  1.10959E-01  3.15777E-01 -2.04818E-01
    8987.293     -6.952  -0.080  1.12755E-01  3.22817E-01 -2.10062E-01
    8987.317     -6.927   0.000  1.14226E-01  3.28477E-01 -2.14251E-01
    8987.372     -6.873   0.120  1.17536E-01  3.41234E-01 -2.23698E-01
    8987.415     -6.830   0.160  1.20054E-01  3.51173E-01 -2.31119E-01
    8987.470     -6.775   0.200  1.23267E-01  3.63871E-01 -2.40604E-01
    8987.537     -6.708   0.240  1.27107E-01  3.79172E-01 -2.52064E-01
    8987.616     -6.629   0.280  1.31557E-01  3.96790E-01 -2.65233E-01
    8987.707     -6.537   0.320  1.36557E-01  4.16285E-01 -2.79728E-01
    8987.811     -6.434   0.360  1.42058E-01  4.37130E-01 -2.95072E-01
    8987.927     -6.318   0.400  1.48098E-01  4.58762E-01 -3.10664E-01
    8988.055     -6.190   0.440  1.54762E-01  4.80647E-01 -3.25884E-01
    8988.195     -6.050   0.480  1.62245E-01  5.02363E-01 -3.40118E-01
    8988.348     -5.897   0.520  1.70793E-01  5.23676E-01 -3.52883E-01
    8988.512     -5.733   0.560  1.80599E-01  5.44404E-01 -3.63805E-01
    8988.689     -5.556   0.600  1.91830E-01  5.64552E-01 -3.72722E-01
    8988.878     -5.367   0.640  2.04706E-01  5.84132E-01 -3.79426E-01
    8989.079     -5.166   0.680  2.19883E-01  6.03210E-01 -3.83327E-01
    8989.292     -4.952   0.720  2.38946E-01  6.21886E-01 -3.82939E-01
    8989.518     -4.727   0.760  2.64349E-01  6.40195E-01 -3.75846E-01
    8989.756     -4.489   0.800  2.99019E-01  6.58224E-01 -3.59205E-01
    8990.006     -4.239   0.840  3.45139E-01  6.76027E-01 -3.30888E-01
    8990.268     -3.977   0.880  4.02049E-01  6.93621E-01 -2.91572E-01
    8990.542     -3.703   0.920  4.63627E-01  7.11011E-01 -2.47384E-01
    8990.829     -3.416   0.960  5.18067E-01  7.28230E-01 -2.10163E-01
    8991.127     -3.117   1.000  5.52858E-01  7.45239E-01 -1.92381E-01
    8991.438     -2.807   1.040  5.61215E-01  7.62030E-01 -2.00815E-01
    8991.761     -2.483   1.080  5.46256E-01  7.78570E-01 -2.32314E-01
    8992.097     -2.148   1.120  5.20961E-01  7.94857E-01 -2.73896E-01
    8992.444     -1.801   1.160  4.98334E-01  8.10827E-01 -3.12494E-01
    8992.804     -1.441   1.200  4.81162E-01  8.26452E-01 -3.45290E-01
    8993.176     -1.069   1.240  4.64115E-01  8.41679E-01 -3.77565E-01
    8993.560     -0.685   1.280  4.45945E-01  8.56499E-01 -4.10555E-01
    8993.956     -0.289   1.320  4.32451E-01  8.70837E-01 -4.38386E-01
    8994.364      0.120   1.360  4.26814E-01  8.84700E-01 -4.57885E-01
    8994.785      0.540   1.400  4.26208E-01  8.98017E-01 -4.71809E-01
    8995.218      0.973   1.440  4.29050E-01  9.10775E-01 -4.81725E-01
    8995.663      1.418   1.480  4.39087E-01  9.22945E-01 -4.83858E-01
    8996.120      1.875   1.520  4.60251E-01  9.34497E-01 -4.74246E-01
    8996.589      2.345   1.560  4.92866E-01  9.45426E-01 -4.52560E-01
    8997.071      2.826   1.600  5.33885E-01  9.55707E-01 -4.21822E-01
    8997.565      3.320   1.640  5.80930E-01  9.65337E-01 -3.84406E-01
    8998.071      3.826   1.680  6.35894E-01  9.74315E-01 -3.38421E-01
    8998.589      4.344   1.720  7.02391E-01  9.82643E-01 -2.80253E-01
    8999.119      4.874   1.760  7.81370E-01  9.90303E-01 -2.08933E-01
    8999.662      5.417   1.800  8.68755E-01  9.97341E-01 -1.28586E-01
    9000.216      5.972   1.840  9.56373E-01  1.00372E+00 -4.73499E-02
    9000.783      6.539   1.880  1.03690E+00  1.00950E+00  2.74050E-02
    9001.362      7.118   1.920  1.11036E+00  1.01465E+00  9.57041E-02
    9001.954      7.709   1.960  1.18433E+00  1.01922E+00  1.65115E-01
    9002.557      8.313   2.000  1.26689E+00  1.02323E+00  2.43662E-01
    9003.173      8.928   2.040  1.36102E+00  1.02672E+00  3.34296E-01
    9003.801      9.556   2.080  1.46721E+00  1.02968E+00  4.37535E-01
    9004.441     10.196   2.120  1.57810E+00  1.03216E+00  5.45941E-01
    9005.093     10.848   2.160  1.65886E+00  1.03417E+00  6.24690E-01
    9005.758     11.513   2.200  1.67056E+00  1.03576E+00  6.34797E-01
    9006.434     12.190   2.240  1.62156E+00  1.03693E+00  5.84637E-01
    9007.123     12.878   2.280  1.54588E+00  1.03774E+00  5.08139E-01
    9007.824     13.579   2.320  1.46875E+00  1.03821E+00  4.30544E-01
    9008.537     14.293   2.360  1.39980E+00  1.03835E+00  3.61450E-01
    9009.263     15.018   2.400  1.33858E+00  1.03819E+00  3.00390E-01
    9010.000     15.756   2.440  1.28209E+00  1.03778E+00  2.44309E-01
    9010.750     16.506   2.480  1.22010E+00  1.03712E+00  1.82974E-01
    9011.512     17.268   2.520  1.14879E+00  1.03625E+00  1.12543E-01
    9012.286     18.042   2.560  1.08797E+00  1.03518E+00  5.27892E-02
    9013.073     18.828   2.600  1.06380E+00  1.03396E+00  2.98359E-02
    9013.871     19.627   2.640  1.05969E+00  1.03259E+00  2.71012E-02
    9014.682     20.437   2.680  1.05957E+00  1.03108E+00  2.84849E-02
    9015.505     21.260   2.720  1.05891E+00  1.02949E+00  2.94252E-02
    9016.340     22.096   2.760  1.05654E+00  1.02778E+00  2.87589E-02
    9017.188     22.943   2.800  1.05243E+00  1.02602E+00  2.64107E-02
    9018.047     23.802   2.840  1.04703E+00  1.02421E+00  2.28194E-02
    9018.919     24.674   2.880  1.04095E+00  1.02239E+00  1.85626E-02
    9019.803     25.558   2.920  1.03435E+00  1.02051E+00  1.38413E-02
    9020.699     26.454   2.960  1.02710E+00  1.01865E+00  8.45107E-03
    9021.607     27.362   3.000  1.01859E+00  1.01679E+00  1.80030E-03
    9022.528     28.283   3.040  1.00794E+00  1.01493E+00 -6.99148E-03
    9023.460     29.216   3.080  9.94663E-01  1.01311E+00 -1.84476E-02
    9024.405     30.160   3.120  9.79210E-01  1.01133E+00 -3.21197E-02
    9025.362     31.118   3.160  9.62648E-01  1.00961E+00 -4.69651E-02
    9026.332     32.087   3.200  9.46184E-01  1.00792E+00 -6.17366E-02
    9027.313     33.068   3.240  9.30920E-01  1.00630E+00 -7.53797E-02
    9028.307     34.062   3.280  9.17118E-01  1.00475E+00 -8.76362E-02
    9029.312     35.068   3.320  9.04693E-01  1.00329E+00 -9.85942E-02
    9030.330     36.086   3.360  8.93563E-01  1.00190E+00 -1.08337E-01
    9031.361     37.116   3.400  8.83571E-01  1.00057E+00 -1.17002E-01
    9032.403     38.158   3.440  8.74797E-01  9.99352E-01 -1.24555E-01
    9033.458     39.213   3.480  8.67488E-01  9.98239E-01 -1.30751E-01
    9034.525     40.280   3.520  8.62005E-01  9.97192E-01 -1.35187E-01
    9035.603     41.359   3.560  8.58524E-01  9.96254E-01 -1.37730E-01
    9036.695     42.450   3.600  8.57214E-01  9.95406E-01 -1.38192E-01
    9037.798     43.553   3.640  8.58257E-01  9.94671E-01 -1.36414E-01
    9038.914     44.669   3.680  8.61661E-01  9.94049E-01 -1.32387E-01
    9040.041     45.797   3.720  8.67270E-01  9.93497E-01 -1.26226E-01
    9041.181     46.937   3.760  8.74984E-01  9.93077E-01 -1.18094E-01
    9042.333     48.089   3.800  8.84504E-01  9.92749E-01 -1.08245E-01
    9043.498     49.253   3.840  8.95390E-01  9.92510E-01 -9.71200E-02
    9044.674     50.430   3.880  9.07379E-01  9.92382E-01 -8.50027E-02
    9045.863     51.618   3.920  9.20314E-01  9.92343E-01 -7.20288E-02
    9047.064     52.819   3.960  9.34145E-01  9.92392E-01 -5.82467E-02
    9048.277     54.032   4.000  9.48870E-01  9.92549E-01 -4.36789E-02
    9049.502     55.258   4.040  9.64404E-01  9.92792E-01 -2.83881E-02
    9050.740     56.495   4.080  9.80471E-01  9.93120E-01 -1.26486E-02
    9051.989     57.745   4.120  9.96655E-01  9.93528E-01  3.12672E-03
    9053.251     59.007   4.160  1.01252E+00  9.94019E-01  1.84983E-02
    9054.525     60.281   4.200  1.02757E+00  9.94589E-01  3.29828E-02
    9055.812     61.567   4.240  1.04115E+00  9.95237E-01  4.59089E-02
    9057.110     62.865   4.280  1.05259E+00  9.95938E-01  5.66550E-02
    9058.421     64.176   4.320  1.06148E+00  9.96714E-01  6.47652E-02
    9059.744     65.499   4.360  1.06770E+00  9.97561E-01  7.01425E-02
    9061.079     66.834   4.400  1.07156E+00  9.98458E-01  7.30993E-02
    9062.426     68.181   4.440  1.07356E+00  9.99400E-01  7.41554E-02
    9063.785     69.540   4.480  1.07416E+00  1.00041E+00  7.37591E-02
    9065.157     70.912   4.520  1.07361E+00  1.00143E+00  7.21793E-02
    9066.541     72.296   4.560  1.07214E+00  1.00249E+00  6.96525E-02
    9067.937     73.692   4.600  1.06995E+00  1.00359E+00  6.63637E-02
    9069.345     75.100   4.640  1.06727E+00  1.00472E+00  6.25511E-02
    9070.765     76.520   4.680  1.06432E+00  1.00586E+00  5.84607E-02
    9072.198     77.953   4.720  1.06126E+00  1.00700E+00  5.42610E-02
    9073.642     79.398   4.760  1.05816E+00  1.00817E+00  4.99920E-02
    9075.099     80.855   4.800  1.05505E+00  1.00932E+00  4.57295E-02
    9076.568     82.324   4.840  1.05211E+00  1.01048E+00  4.16240E-02
    9078.050     83.805   4.880  1.04966E+00  1.01163E+00  3.80333E-02
    9079.543     85.299   4.920  1.04822E+00  1.01276E+00  3.54600E-02
    9081.049     86.804   4.960  1.04820E+00  1.01389E+00  3.43123E-02
    9082.567     88.322   5.000  1.04967E+00  1.01498E+00  3.46876E-02
    9084.097     89.852   5.040  1.05234E+00  1.01603E+00  3.63117E-02
    9085.639     91.395   5.080  1.05566E+00  1.01707E+00  3.85866E-02
    9087.194     92.949   5.120  1.05875E+00  1.01804E+00  4.07042E-02
    9088.760     94.516   5.160  1.06070E+00  1.01898E+00  4.17239E-02
    9090.339     96.095   5.200  1.06065E+00  1.01989E+00  4.07686E-02
    9091.930     97.686   5.240  1.05800E+00  1.02073E+00  3.72726E-02
    9093.534     99.289   5.280  1.05267E+00  1.02150E+00  3.11698E-02
    9095.149    100.904   5.320  1.04524E+00  1.02224E+00  2.30023E-02
    9096.777    102.532   5.360  1.03666E+00  1.02288E+00  1.37770E-02
    9098.416    104.172   5.400  1.02811E+00  1.02348E+00  4.63043E-03
    9100.068    105.824   5.440  1.02048E+00  1.02401E+00 -3.53514E-03
    9101.733    107.488   5.480  1.01414E+00  1.02445E+00 -1.03113E-02
    9103.409    109.164   5.520  1.00896E+00  1.02484E+00 -1.58812E-02
    9105.098    110.853   5.560  1.00432E+00  1.02517E+00 -2.08522E-02
    9106.798    112.554   5.600  9.99495E-01  1.02539E+00 -2.58995E-02
    9108.511    114.267   5.640  9.94030E-01  1.02554E+00 -3.15101E-02
    9110.237    115.992   5.680  9.87790E-01  1.02563E+00 -3.78408E-02
    9111.974    117.729   5.720  9.80947E-01  1.02564E+00 -4.46968E-02
    9113.723    119.479   5.760  9.74035E-01  1.02558E+00 -5.15422E-02
    9115.485    121.240   5.800  9.67847E-01  1.02543E+00 -5.75858E-02
    9117.259    123.014   5.840  9.63334E-01  1.02521E+00 -6.18758E-02
    9119.045    124.801   5.880  9.61336E-01  1.02494E+00 -6.35996E-02
    9120.844    126.599   5.920  9.62156E-01  1.02459E+00 -6.24304E-02
    9122.654    128.409   5.960  9.65481E-01  1.02415E+00 -5.86714E-02
    9124.477    130.232   6.000  9.70614E-01  1.02358E+00 -5.29652E-02
