# # comment:                                                     FEFF 9.9.1  
# # Source:
# # Structure
# # Reduced
# # space
# # abc:
# # angles:
# # sites:
# # POT  SCF 100  7.0000   0, screened core-hole, AFOLP (folp(0)= 1.150)
# # Abs   Z=29 Rmt= 1.308 Rnm= 1.373 K  shell
# # Pot 1 Z= 3 Rmt= 1.334 Rnm= 1.402
# # Pot 2 Z=29 Rmt= 1.273 Rnm= 1.336
# # Pot 3 Z=15 Rmt= 0.937 Rnm= 1.152
# # Pot 4 Z= 8 Rmt= 0.876 Rnm= 1.040
# # Gam_ch=1.729E+00 H-L exch Vi= 0.000E+00 Vr= 0.000E+00
# # Mu=-5.715E+00eV kf=2.456E+00 Vint=-1.698E+01eV Rs_int= 1.476
# FMS rfms= 9.0000
# # PATH  Rmax=-1.000,  Keep_limit= 0.00, Heap_limit 0.00  Pwcrit= 2.50%
#  S02=0.950  Temp=   0.00  Debye_temp=   0.00  Global_sig2= 0.00000
#  Energy zero shift, vr, vi    0.00000E+00   0.00000E+00
#  Curved wave amplitude ratio filter   4.000%
#     file         sig2 tot  cw amp ratio   deg  nlegs   reff  inp sig2
#     0/   0 paths used
#  xsedge+ 50, used to normalize mu           2.4654E-04
#  -----------------------------------------------------------------------
#  omega    e    k    mu    mu0     chi     @#
    8983.426     -9.525  -1.000  4.87963E-02  5.63467E-02 -7.55031E-03
    8983.724     -9.226  -0.960  5.16801E-02  6.05263E-02 -8.84614E-03
    8984.011     -8.940  -0.920  5.47954E-02  6.51798E-02 -1.03844E-02
    8984.285     -8.665  -0.880  5.81653E-02  7.03779E-02 -1.22126E-02
    8984.547     -8.403  -0.840  6.18158E-02  7.62030E-02 -1.43872E-02
    8984.797     -8.153  -0.800  6.57753E-02  8.27510E-02 -1.69756E-02
    8985.035     -7.915  -0.760  7.00748E-02  9.01316E-02 -2.00568E-02
    8985.261     -7.690  -0.720  7.47475E-02  9.84694E-02 -2.37219E-02
    8985.474     -7.477  -0.680  7.98276E-02  1.07902E-01 -2.80740E-02
    8985.675     -7.275  -0.640  8.53487E-02  1.18573E-01 -3.32245E-02
    8985.864     -7.086  -0.600  9.13403E-02  1.30627E-01 -3.92868E-02
    8986.041     -6.910  -0.560  9.78221E-02  1.44186E-01 -4.63634E-02
    8986.205     -6.745  -0.520  1.04796E-01  1.59322E-01 -5.45260E-02
    8986.358     -6.593  -0.480  1.12235E-01  1.76022E-01 -6.37872E-02
    8986.498     -6.452  -0.440  1.20070E-01  1.94138E-01 -7.40680E-02
    8986.626     -6.324  -0.400  1.28183E-01  2.13352E-01 -8.51694E-02
    8986.742     -6.209  -0.360  1.36399E-01  2.33163E-01 -9.67638E-02
    8986.846     -6.105  -0.320  1.44502E-01  2.52920E-01 -1.08418E-01
    8986.937     -6.014  -0.280  1.52253E-01  2.71900E-01 -1.19648E-01
    8987.016     -5.934  -0.240  1.59417E-01  2.89412E-01 -1.29995E-01
    8987.083     -5.867  -0.200  1.65790E-01  3.04878E-01 -1.39088E-01
    8987.138     -5.812  -0.160  1.71205E-01  3.17877E-01 -1.46672E-01
    8987.181     -5.770  -0.120  1.75539E-01  3.28145E-01 -1.52606E-01
    8987.211     -5.739  -0.080  1.78702E-01  3.35536E-01 -1.56835E-01
    8987.236     -5.715   0.000  1.81287E-01  3.41471E-01 -1.60184E-01
    8987.291     -5.660   0.120  1.87152E-01  3.54847E-01 -1.67695E-01
    8987.333     -5.617   0.160  1.91736E-01  3.65214E-01 -1.73478E-01
    8987.388     -5.562   0.200  1.97758E-01  3.78457E-01 -1.80699E-01
    8987.455     -5.495   0.240  2.05235E-01  3.94337E-01 -1.89103E-01
    8987.534     -5.416   0.280  2.14283E-01  4.12532E-01 -1.98248E-01
    8987.626     -5.325   0.320  2.25044E-01  4.32545E-01 -2.07500E-01
    8987.729     -5.221   0.360  2.37670E-01  4.53725E-01 -2.16055E-01
    8987.845     -5.105   0.400  2.52499E-01  4.75466E-01 -2.22968E-01
    8987.973     -4.977   0.440  2.69908E-01  4.97138E-01 -2.27230E-01
    8988.113     -4.837   0.480  2.90410E-01  5.18284E-01 -2.27874E-01
    8988.266     -4.685   0.520  3.14557E-01  5.38615E-01 -2.24058E-01
    8988.430     -4.520   0.560  3.42743E-01  5.57979E-01 -2.15236E-01
    8988.607     -4.343   0.600  3.75028E-01  5.76385E-01 -2.01357E-01
    8988.796     -4.154   0.640  4.10656E-01  5.93862E-01 -1.83206E-01
    8988.997     -3.953   0.680  4.48057E-01  6.10500E-01 -1.62443E-01
    8989.211     -3.740   0.720  4.85270E-01  6.26444E-01 -1.41174E-01
    8989.436     -3.514   0.760  5.20434E-01  6.41779E-01 -1.21346E-01
    8989.674     -3.276   0.800  5.52547E-01  6.56644E-01 -1.04098E-01
    8989.924     -3.027   0.840  5.82065E-01  6.71099E-01 -8.90343E-02
    8990.186     -2.764   0.880  6.11096E-01  6.85210E-01 -7.41140E-02
    8990.460     -2.490   0.920  6.41427E-01  6.99049E-01 -5.76213E-02
    8990.747     -2.204   0.960  6.72452E-01  7.12655E-01 -4.02028E-02
    8991.046     -1.905   1.000  7.02182E-01  7.26055E-01 -2.38737E-02
    8991.357     -1.594   1.040  7.29711E-01  7.39267E-01 -9.55599E-03
    8991.680     -1.271   1.080  7.57059E-01  7.52316E-01  4.74282E-03
    8992.015     -0.936   1.120  7.88785E-01  7.65205E-01  2.35809E-02
    8992.362     -0.588   1.160  8.29080E-01  7.77906E-01  5.11738E-02
    8992.722     -0.228   1.200  8.79241E-01  7.90452E-01  8.87892E-02
    8993.094      0.143   1.240  9.34381E-01  8.02787E-01  1.31595E-01
    8993.478      0.527   1.280  9.83575E-01  8.14935E-01  1.68639E-01
    8993.874      0.924   1.320  1.02088E+00  8.26854E-01  1.94023E-01
    8994.283      1.332   1.360  1.05092E+00  8.38544E-01  2.12377E-01
    8994.703      1.753   1.400  1.07889E+00  8.49960E-01  2.28928E-01
    8995.136      2.186   1.440  1.10465E+00  8.61119E-01  2.43531E-01
    8995.581      2.631   1.480  1.12638E+00  8.71996E-01  2.54388E-01
    8996.038      3.088   1.520  1.14363E+00  8.82543E-01  2.61087E-01
    8996.508      3.557   1.560  1.15587E+00  8.92755E-01  2.63116E-01
    8996.989      4.039   1.600  1.16473E+00  9.02606E-01  2.62128E-01
    8997.483      4.532   1.640  1.17545E+00  9.12112E-01  2.63334E-01
    8997.989      5.038   1.680  1.18441E+00  9.21247E-01  2.63164E-01
    8998.507      5.557   1.720  1.18471E+00  9.29966E-01  2.54740E-01
    8999.037      6.087   1.760  1.18106E+00  9.38286E-01  2.42777E-01
    8999.580      6.630   1.800  1.18203E+00  9.46205E-01  2.35821E-01
    9000.135      7.184   1.840  1.18691E+00  9.53719E-01  2.33188E-01
    9000.702      7.751   1.880  1.18811E+00  9.60787E-01  2.27328E-01
    9001.281      8.330   1.920  1.18628E+00  9.67430E-01  2.18848E-01
    9001.872      8.922   1.960  1.18639E+00  9.73648E-01  2.12737E-01
    9002.476      9.525   2.000  1.18341E+00  9.79461E-01  2.03954E-01
    9003.091     10.141   2.040  1.16974E+00  9.84831E-01  1.84906E-01
    9003.719     10.769   2.080  1.14587E+00  9.89783E-01  1.56082E-01
    9004.359     11.409   2.120  1.11616E+00  9.94319E-01  1.21841E-01
    9005.012     12.061   2.160  1.08636E+00  9.98464E-01  8.78922E-02
    9005.676     12.725   2.200  1.06304E+00  1.00220E+00  6.08399E-02
    9006.353     13.402   2.240  1.04961E+00  1.00556E+00  4.40532E-02
    9007.041     14.091   2.280  1.04393E+00  1.00855E+00  3.53845E-02
    9007.743     14.792   2.320  1.04106E+00  1.01117E+00  2.98975E-02
    9008.456     15.505   2.360  1.03955E+00  1.01345E+00  2.61049E-02
    9009.181     16.231   2.400  1.04071E+00  1.01540E+00  2.53185E-02
    9009.919     16.968   2.440  1.04170E+00  1.01702E+00  2.46769E-02
    9010.669     17.718   2.480  1.03726E+00  1.01837E+00  1.88877E-02
    9011.431     18.480   2.520  1.02617E+00  1.01942E+00  6.75688E-03
    9012.205     19.254   2.560  1.01022E+00  1.02020E+00 -9.98517E-03
    9012.991     20.041   2.600  9.89783E-01  1.02074E+00 -3.09597E-02
    9013.790     20.839   2.640  9.63448E-01  1.02106E+00 -5.76130E-02
    9014.600     21.650   2.680  9.32452E-01  1.02115E+00 -8.86944E-02
    9015.423     22.473   2.720  9.03653E-01  1.02103E+00 -1.17376E-01
    9016.259     23.308   2.760  8.81095E-01  1.02074E+00 -1.39642E-01
    9017.106     24.155   2.800  8.64193E-01  1.02028E+00 -1.56087E-01
    9017.965     25.015   2.840  8.55021E-01  1.01969E+00 -1.64665E-01
    9018.837     25.887   2.880  8.55873E-01  1.01894E+00 -1.63067E-01
    9019.721     26.771   2.920  8.60773E-01  1.01809E+00 -1.57320E-01
    9020.617     27.667   2.960  8.67006E-01  1.01711E+00 -1.50104E-01
    9021.526     28.575   3.000  8.74262E-01  1.01606E+00 -1.41798E-01
    9022.446     29.496   3.040  8.83484E-01  1.01493E+00 -1.31448E-01
    9023.379     30.428   3.080  8.94771E-01  1.01375E+00 -1.18978E-01
    9024.324     31.373   3.120  9.07774E-01  1.01250E+00 -1.04724E-01
    9025.281     32.330   3.160  9.21947E-01  1.01121E+00 -8.92585E-02
    9026.250     33.299   3.200  9.36825E-01  1.00990E+00 -7.30744E-02
    9027.231     34.281   3.240  9.52120E-01  1.00858E+00 -5.64623E-02
    9028.225     35.274   3.280  9.67637E-01  1.00724E+00 -3.96037E-02
    9029.231     36.280   3.320  9.83160E-01  1.00590E+00 -2.27375E-02
    9030.249     37.298   3.360  9.98661E-01  1.00458E+00 -5.91821E-03
    9031.279     38.329   3.400  1.01370E+00  1.00327E+00  1.04292E-02
    9032.321     39.371   3.440  1.02757E+00  1.00199E+00  2.55757E-02
    9033.376     40.426   3.480  1.03960E+00  1.00075E+00  3.88496E-02
    9034.443     41.492   3.520  1.04924E+00  9.99552E-01  4.96916E-02
    9035.522     42.571   3.560  1.05603E+00  9.98392E-01  5.76377E-02
    9036.613     43.663   3.600  1.05984E+00  9.97277E-01  6.25588E-02
    9037.716     44.766   3.640  1.06091E+00  9.96230E-01  6.46785E-02
    9038.832     45.881   3.680  1.05968E+00  9.95233E-01  6.44449E-02
    9039.960     47.009   3.720  1.05677E+00  9.94307E-01  6.24582E-02
    9041.100     48.149   3.760  1.05287E+00  9.93454E-01  5.94124E-02
    9042.252     49.301   3.800  1.04855E+00  9.92654E-01  5.58999E-02
    9043.416     50.466   3.840  1.04419E+00  9.91930E-01  5.22628E-02
    9044.593     51.642   3.880  1.03988E+00  9.91280E-01  4.85998E-02
    9045.781     52.831   3.920  1.03543E+00  9.90687E-01  4.47402E-02
    9046.982     54.032   3.960  1.03064E+00  9.90194E-01  4.04497E-02
    9048.195     55.245   4.000  1.02539E+00  9.89778E-01  3.56090E-02
    9049.421     56.470   4.040  1.01973E+00  9.89418E-01  3.03072E-02
    9050.658     57.708   4.080  1.01385E+00  9.89133E-01  2.47215E-02
    9051.908     58.957   4.120  1.00802E+00  9.88927E-01  1.90934E-02
    9053.170     60.219   4.160  1.00253E+00  9.88798E-01  1.37362E-02
    9054.444     61.493   4.200  9.97717E-01  9.88744E-01  8.97344E-03
    9055.730     62.780   4.240  9.93844E-01  9.88743E-01  5.10131E-03
    9057.028     64.078   4.280  9.91204E-01  9.88815E-01  2.38884E-03
    9058.339     65.389   4.320  9.89995E-01  9.88959E-01  1.03557E-03
    9059.662     66.711   4.360  9.90236E-01  9.89152E-01  1.08398E-03
    9060.997     68.046   4.400  9.91742E-01  9.89392E-01  2.34945E-03
    9062.344     69.394   4.440  9.94084E-01  9.89702E-01  4.38254E-03
    9063.704     70.753   4.480  9.96628E-01  9.90058E-01  6.57082E-03
    9065.075     72.125   4.520  9.98804E-01  9.90478E-01  8.32589E-03
    9066.459     73.508   4.560  1.00017E+00  9.90920E-01  9.25163E-03
    9067.855     74.904   4.600  1.00060E+00  9.91422E-01  9.18057E-03
    9069.263     76.313   4.640  1.00006E+00  9.91940E-01  8.11832E-03
    9070.683     77.733   4.680  9.98709E-01  9.92515E-01  6.19381E-03
    9072.116     79.166   4.720  9.96697E-01  9.93081E-01  3.61587E-03
    9073.561     80.610   4.760  9.94336E-01  9.93700E-01  6.35900E-04
    9075.018     82.067   4.800  9.91824E-01  9.94325E-01 -2.50186E-03
    9076.487     83.536   4.840  9.89291E-01  9.94955E-01 -5.66437E-03
    9077.968     85.018   4.880  9.86755E-01  9.95586E-01 -8.83105E-03
    9079.462     86.511   4.920  9.84180E-01  9.96219E-01 -1.20393E-02
    9080.967     88.017   4.960  9.81575E-01  9.96874E-01 -1.52986E-02
    9082.485     89.535   5.000  9.79022E-01  9.97504E-01 -1.84820E-02
    9084.015     91.065   5.040  9.76811E-01  9.98125E-01 -2.13139E-02
    9085.558     92.607   5.080  9.75267E-01  9.98717E-01 -2.34501E-02
    9087.112     94.162   5.120  9.74636E-01  9.99302E-01 -2.46654E-02
    9088.679     95.728   5.160  9.74806E-01  9.99876E-01 -2.50694E-02
    9090.258     97.307   5.200  9.75313E-01  1.00041E+00 -2.51014E-02
    9091.849     98.898   5.240  9.75604E-01  1.00092E+00 -2.53113E-02
    9093.452    100.501   5.280  9.75387E-01  1.00138E+00 -2.59891E-02
    9095.067    102.117   5.320  9.74822E-01  1.00180E+00 -2.69739E-02
    9096.695    103.744   5.360  9.74466E-01  1.00217E+00 -2.77084E-02
    9098.335    105.384   5.400  9.75015E-01  1.00251E+00 -2.74959E-02
    9099.987    107.036   5.440  9.77011E-01  1.00280E+00 -2.57932E-02
    9101.651    108.701   5.480  9.80656E-01  1.00305E+00 -2.23972E-02
    9103.327    110.377   5.520  9.85722E-01  1.00323E+00 -1.75112E-02
    9105.016    112.065   5.560  9.91715E-01  1.00337E+00 -1.16514E-02
    9106.717    113.766   5.600  9.97985E-01  1.00345E+00 -5.46740E-03
    9108.430    115.479   5.640  1.00392E+00  1.00347E+00  4.47009E-04
    9110.155    117.204   5.680  1.00910E+00  1.00344E+00  5.66281E-03
    9111.892    118.942   5.720  1.01325E+00  1.00334E+00  9.91293E-03
    9113.642    120.691   5.760  1.01628E+00  1.00321E+00  1.30638E-02
    9115.404    122.453   5.800  1.01816E+00  1.00300E+00  1.51575E-02
    9117.177    124.227   5.840  1.01920E+00  1.00276E+00  1.64409E-02
    9118.964    126.013   5.880  1.01971E+00  1.00246E+00  1.72517E-02
    9120.762    127.811   5.920  1.01993E+00  1.00211E+00  1.78205E-02
    9122.572    129.622   5.960  1.01982E+00  1.00170E+00  1.81185E-02
    9124.395    131.445   6.000  1.01907E+00  1.00120E+00  1.78629E-02
