# # comment:                                                     FEFF 9.9.1  
# # Source:
# # Structure
# # Reduced
# # space
# # abc:
# # angles:
# # sites:
# # POT  SCF 100  7.0000   0, screened core-hole, AFOLP (folp(0)= 1.150)
# # Abs   Z=29 Rmt= 1.149 Rnm= 1.254 K  shell
# # Pot 1 Z=13 Rmt= 1.516 Rnm= 1.552
# # Pot 2 Z=29 Rmt= 1.147 Rnm= 1.251
# # Pot 3 Z=28 Rmt= 1.228 Rnm= 1.330
# # Pot 4 Z= 8 Rmt= 0.990 Rnm= 1.082
# # Gam_ch=1.729E+00 H-L exch Vi= 0.000E+00 Vr= 0.000E+00
# # Mu=-9.677E+00eV kf=2.237E+00 Vint=-1.792E+01eV Rs_int= 1.621
# FMS rfms= 9.0000
# # PATH  Rmax=-1.000,  Keep_limit= 0.00, Heap_limit 0.00  Pwcrit= 2.50%
#  S02=0.950  Temp=   0.00  Debye_temp=   0.00  Global_sig2= 0.00000
#  Energy zero shift, vr, vi    0.00000E+00   0.00000E+00
#  Curved wave amplitude ratio filter   4.000%
#     file         sig2 tot  cw amp ratio   deg  nlegs   reff  inp sig2
#     0/   0 paths used
#  xsedge+ 50, used to normalize mu           2.4659E-04
#  -----------------------------------------------------------------------
#  omega    e    k    mu    mu0     chi     @#
    8984.441    -13.487  -1.000  3.33792E-02  5.32627E-02 -1.98835E-02
    8984.739    -13.188  -0.960  3.49377E-02  5.70829E-02 -2.21452E-02
    8985.026    -12.902  -0.920  3.65991E-02  6.13226E-02 -2.47235E-02
    8985.300    -12.627  -0.880  3.83739E-02  6.60429E-02 -2.76691E-02
    8985.562    -12.365  -0.840  4.02741E-02  7.13151E-02 -3.10410E-02
    8985.812    -12.115  -0.800  4.23139E-02  7.72215E-02 -3.49076E-02
    8986.050    -11.877  -0.760  4.45091E-02  8.38566E-02 -3.93476E-02
    8986.276    -11.652  -0.720  4.68776E-02  9.13270E-02 -4.44494E-02
    8986.489    -11.439  -0.680  4.94391E-02  9.97501E-02 -5.03110E-02
    8986.690    -11.237  -0.640  5.22141E-02  1.09250E-01 -5.70355E-02
    8986.879    -11.048  -0.600  5.52218E-02  1.19947E-01 -6.47248E-02
    8987.056    -10.872  -0.560  5.84779E-02  1.31945E-01 -7.34668E-02
    8987.220    -10.707  -0.520  6.19887E-02  1.45305E-01 -8.33160E-02
    8987.373    -10.555  -0.480  6.57452E-02  1.60012E-01 -9.42667E-02
    8987.513    -10.414  -0.440  6.97152E-02  1.75938E-01 -1.06222E-01
    8987.641    -10.286  -0.400  7.38368E-02  1.92806E-01 -1.18969E-01
    8987.757    -10.171  -0.360  7.80171E-02  2.10185E-01 -1.32168E-01
    8987.860    -10.067  -0.320  8.21379E-02  2.27512E-01 -1.45374E-01
    8987.952     -9.976  -0.280  8.60693E-02  2.44162E-01 -1.58093E-01
    8988.031     -9.896  -0.240  8.96869E-02  2.59535E-01 -1.69848E-01
    8988.098     -9.829  -0.200  9.28861E-02  2.73125E-01 -1.80239E-01
    8988.153     -9.774  -0.160  9.55883E-02  2.84561E-01 -1.88973E-01
    8988.196     -9.732  -0.120  9.77395E-02  2.93605E-01 -1.95866E-01
    8988.226     -9.701  -0.080  9.93047E-02  3.00123E-01 -2.00818E-01
    8988.251     -9.677   0.000  1.00586E-01  3.05361E-01 -2.04775E-01
    8988.305     -9.622   0.120  1.03497E-01  3.17185E-01 -2.13688E-01
    8988.348     -9.579   0.160  1.05721E-01  3.26368E-01 -2.20647E-01
    8988.403     -9.524   0.200  1.08561E-01  3.38107E-01 -2.29546E-01
    8988.470     -9.457   0.240  1.12007E-01  3.52251E-01 -2.40244E-01
    8988.549     -9.378   0.280  1.16017E-01  3.68530E-01 -2.52513E-01
    8988.641     -9.287   0.320  1.20495E-01  3.86528E-01 -2.66033E-01
    8988.744     -9.183   0.360  1.25318E-01  4.05749E-01 -2.80431E-01
    8988.860     -9.067   0.400  1.30305E-01  4.25644E-01 -2.95340E-01
    8988.988     -8.939   0.440  1.35256E-01  4.45752E-01 -3.10497E-01
    8989.128     -8.799   0.480  1.39831E-01  4.65679E-01 -3.25848E-01
    8989.281     -8.647   0.520  1.43711E-01  4.85166E-01 -3.41456E-01
    8989.445     -8.482   0.560  1.46707E-01  5.04125E-01 -3.57418E-01
    8989.622     -8.305   0.600  1.48750E-01  5.22483E-01 -3.73733E-01
    8989.811     -8.116   0.640  1.50229E-01  5.40313E-01 -3.90084E-01
    8990.012     -7.915   0.680  1.51819E-01  5.57681E-01 -4.05862E-01
    8990.226     -7.702   0.720  1.54387E-01  5.74665E-01 -4.20279E-01
    8990.451     -7.476   0.760  1.58905E-01  5.91343E-01 -4.32438E-01
    8990.689     -7.238   0.800  1.66367E-01  6.07780E-01 -4.41413E-01
    8990.939     -6.989   0.840  1.77794E-01  6.24051E-01 -4.46257E-01
    8991.201     -6.726   0.880  1.94460E-01  6.40179E-01 -4.45719E-01
    8991.475     -6.452   0.920  2.18282E-01  6.56191E-01 -4.37909E-01
    8991.762     -6.166   0.960  2.52322E-01  6.72085E-01 -4.19763E-01
    8992.061     -5.867   1.000  3.01708E-01  6.87908E-01 -3.86199E-01
    8992.372     -5.556   1.040  3.74459E-01  7.03617E-01 -3.29157E-01
    8992.695     -5.233   1.080  4.81263E-01  7.19223E-01 -2.37960E-01
    8993.030     -4.898   1.120  6.27625E-01  7.34672E-01 -1.07047E-01
    8993.377     -4.550   1.160  7.90446E-01  7.49984E-01  4.04620E-02
    8993.737     -4.190   1.200  9.02307E-01  7.65094E-01  1.37213E-01
    8994.109     -3.819   1.240  9.09569E-01  7.79976E-01  1.29593E-01
    8994.493     -3.435   1.280  8.41564E-01  7.94622E-01  4.69426E-02
    8994.889     -3.038   1.320  7.55441E-01  8.08981E-01 -5.35397E-02
    8995.298     -2.630   1.360  6.68660E-01  8.23021E-01 -1.54361E-01
    8995.718     -2.209   1.400  5.86651E-01  8.36689E-01 -2.50038E-01
    8996.151     -1.776   1.440  5.25859E-01  8.49995E-01 -3.24136E-01
    8996.596     -1.331   1.480  4.99067E-01  8.62867E-01 -3.63800E-01
    8997.053     -0.874   1.520  5.10031E-01  8.75316E-01 -3.65285E-01
    8997.523     -0.405   1.560  5.46763E-01  8.87310E-01 -3.40547E-01
    8998.004      0.077   1.600  5.87470E-01  8.98800E-01 -3.11330E-01
    8998.498      0.570   1.640  6.22039E-01  9.09798E-01 -2.87759E-01
    8999.004      1.076   1.680  6.59043E-01  9.20259E-01 -2.61216E-01
    8999.522      1.595   1.720  7.15282E-01  9.30198E-01 -2.14916E-01
    9000.052      2.125   1.760  7.93199E-01  9.39591E-01 -1.46392E-01
    9000.595      2.668   1.800  8.67301E-01  9.48436E-01 -8.11344E-02
    9001.150      3.222   1.840  9.23528E-01  9.56732E-01 -3.32042E-02
    9001.717      3.789   1.880  9.64050E-01  9.64463E-01 -4.12897E-04
    9002.296      4.368   1.920  9.76857E-01  9.71668E-01  5.18949E-03
    9002.887      4.960   1.960  9.79711E-01  9.78311E-01  1.39961E-03
    9003.491      5.563   2.000  1.01321E+00  9.84440E-01  2.87679E-02
    9004.106      6.179   2.040  1.08407E+00  9.90038E-01  9.40289E-02
    9004.734      6.807   2.080  1.17072E+00  9.95133E-01  1.75583E-01
    9005.374      7.447   2.120  1.23187E+00  9.99713E-01  2.32161E-01
    9006.026      8.099   2.160  1.25846E+00  1.00383E+00  2.54630E-01
    9006.691      8.763   2.200  1.26892E+00  1.00750E+00  2.61419E-01
    9007.368      9.440   2.240  1.26984E+00  1.01071E+00  2.59121E-01
    9008.056     10.129   2.280  1.27727E+00  1.01351E+00  2.63764E-01
    9008.757     10.830   2.320  1.31191E+00  1.01589E+00  2.96017E-01
    9009.471     11.543   2.360  1.38252E+00  1.01793E+00  3.64590E-01
    9010.196     12.269   2.400  1.46609E+00  1.01957E+00  4.46513E-01
    9010.934     13.006   2.440  1.51272E+00  1.02091E+00  4.91809E-01
    9011.684     13.756   2.480  1.49705E+00  1.02190E+00  4.75152E-01
    9012.446     14.518   2.520  1.43569E+00  1.02262E+00  4.13068E-01
    9013.220     15.292   2.560  1.35055E+00  1.02307E+00  3.27480E-01
    9014.006     16.079   2.600  1.26125E+00  1.02326E+00  2.37985E-01
    9014.805     16.877   2.640  1.19401E+00  1.02324E+00  1.70772E-01
    9015.615     17.688   2.680  1.15449E+00  1.02299E+00  1.31505E-01
    9016.438     18.511   2.720  1.11707E+00  1.02256E+00  9.45127E-02
    9017.274     19.346   2.760  1.07208E+00  1.02194E+00  5.01405E-02
    9018.121     20.193   2.800  1.02912E+00  1.02118E+00  7.94335E-03
    9018.980     21.053   2.840  9.96667E-01  1.02029E+00 -2.36236E-02
    9019.852     21.925   2.880  9.76086E-01  1.01928E+00 -4.31956E-02
    9020.736     22.809   2.920  9.63990E-01  1.01816E+00 -5.41676E-02
    9021.632     23.705   2.960  9.56231E-01  1.01695E+00 -6.07170E-02
    9022.540     24.613   3.000  9.48685E-01  1.01568E+00 -6.69956E-02
    9023.461     25.534   3.040  9.38385E-01  1.01434E+00 -7.59575E-02
    9024.394     26.466   3.080  9.24549E-01  1.01296E+00 -8.84087E-02
    9025.339     27.411   3.120  9.08139E-01  1.01154E+00 -1.03397E-01
    9026.296     28.368   3.160  8.90986E-01  1.01010E+00 -1.19115E-01
    9027.265     29.337   3.200  8.75276E-01  1.00864E+00 -1.33360E-01
    9028.246     30.319   3.240  8.63330E-01  1.00719E+00 -1.43860E-01
    9029.240     31.312   3.280  8.55984E-01  1.00572E+00 -1.49741E-01
    9030.246     32.318   3.320  8.53063E-01  1.00428E+00 -1.51221E-01
    9031.264     33.336   3.360  8.53698E-01  1.00286E+00 -1.49157E-01
    9032.294     34.367   3.400  8.56979E-01  1.00148E+00 -1.44503E-01
    9033.336     35.409   3.440  8.62222E-01  1.00012E+00 -1.37903E-01
    9034.391     36.464   3.480  8.69268E-01  9.98807E-01 -1.29539E-01
    9035.458     37.530   3.520  8.77871E-01  9.97552E-01 -1.19681E-01
    9036.537     38.609   3.560  8.87041E-01  9.96322E-01 -1.09281E-01
    9037.628     39.701   3.600  8.95920E-01  9.95180E-01 -9.92593E-02
    9038.731     40.804   3.640  9.04066E-01  9.94066E-01 -8.99999E-02
    9039.847     41.919   3.680  9.11726E-01  9.93023E-01 -8.12970E-02
    9040.975     43.047   3.720  9.19257E-01  9.92053E-01 -7.27962E-02
    9042.115     44.187   3.760  9.26841E-01  9.91157E-01 -6.43165E-02
    9043.267     45.339   3.800  9.34188E-01  9.90316E-01 -5.61271E-02
    9044.431     46.504   3.840  9.41040E-01  9.89549E-01 -4.85086E-02
    9045.608     47.680   3.880  9.47670E-01  9.88859E-01 -4.11896E-02
    9046.796     48.869   3.920  9.54859E-01  9.88247E-01 -3.33889E-02
    9047.997     50.070   3.960  9.63101E-01  9.87711E-01 -2.46101E-02
    9049.210     51.283   4.000  9.72100E-01  9.87229E-01 -1.51296E-02
    9050.436     52.508   4.040  9.80893E-01  9.86823E-01 -5.93014E-03
    9051.673     53.746   4.080  9.88231E-01  9.86494E-01  1.73736E-03
    9052.923     54.995   4.120  9.93191E-01  9.86242E-01  6.94938E-03
    9054.185     56.257   4.160  9.95793E-01  9.86064E-01  9.72911E-03
    9055.459     57.531   4.200  9.97243E-01  9.85941E-01  1.13025E-02
    9056.745     58.818   4.240  9.99531E-01  9.85891E-01  1.36404E-02
    9058.043     60.116   4.280  1.00454E+00  9.85913E-01  1.86270E-02
    9059.354     61.427   4.320  1.01308E+00  9.85983E-01  2.70966E-02
    9060.677     62.749   4.360  1.02442E+00  9.86103E-01  3.83204E-02
    9062.012     64.084   4.400  1.03665E+00  9.86294E-01  5.03585E-02
    9063.359     65.432   4.440  1.04755E+00  9.86554E-01  6.09923E-02
    9064.719     66.791   4.480  1.05563E+00  9.86860E-01  6.87711E-02
    9066.090     68.163   4.520  1.06066E+00  9.87209E-01  7.34533E-02
    9067.474     69.546   4.560  1.06341E+00  9.87599E-01  7.58081E-02
    9068.870     70.942   4.600  1.06449E+00  9.88029E-01  7.64661E-02
    9070.278     72.351   4.640  1.06372E+00  9.88497E-01  7.52190E-02
    9071.698     73.771   4.680  1.06025E+00  9.89001E-01  7.12516E-02
    9073.131     75.204   4.720  1.05365E+00  9.89520E-01  6.41331E-02
    9074.576     76.648   4.760  1.04469E+00  9.90096E-01  5.45926E-02
    9076.033     78.105   4.800  1.03523E+00  9.90682E-01  4.45528E-02
    9077.502     79.574   4.840  1.02760E+00  9.91276E-01  3.63285E-02
    9078.983     81.056   4.880  1.02365E+00  9.91899E-01  3.17504E-02
    9080.477     82.549   4.920  1.02415E+00  9.92527E-01  3.16224E-02
    9081.982     84.055   4.960  1.02878E+00  9.93181E-01  3.55998E-02
    9083.500     85.573   5.000  1.03620E+00  9.93813E-01  4.23881E-02
    9085.030     87.103   5.040  1.04442E+00  9.94467E-01  4.99574E-02
    9086.573     88.645   5.080  1.05104E+00  9.95097E-01  5.59447E-02
    9088.127     90.200   5.120  1.05408E+00  9.95721E-01  5.83614E-02
    9089.694     91.766   5.160  1.05273E+00  9.96341E-01  5.63870E-02
    9091.273     93.345   5.200  1.04750E+00  9.96954E-01  5.05461E-02
    9092.864     94.936   5.240  1.03960E+00  9.97535E-01  4.20690E-02
    9094.467     96.539   5.280  1.03017E+00  9.98083E-01  3.20886E-02
    9096.082     98.155   5.320  1.01983E+00  9.98619E-01  2.12059E-02
    9097.710     99.782   5.360  1.00858E+00  9.99144E-01  9.43448E-03
    9099.350    101.422   5.400  9.96101E-01  9.99611E-01 -3.50909E-03
    9101.002    103.074   5.440  9.82328E-01  1.00006E+00 -1.77305E-02
    9102.666    104.738   5.480  9.67508E-01  1.00045E+00 -3.29374E-02
    9104.342    106.415   5.520  9.52309E-01  1.00082E+00 -4.85065E-02
    9106.031    108.103   5.560  9.37462E-01  1.00115E+00 -6.36835E-02
    9107.732    109.804   5.600  9.23769E-01  1.00143E+00 -7.76648E-02
    9109.445    111.517   5.640  9.12037E-01  1.00166E+00 -8.96197E-02
    9111.170    113.242   5.680  9.03244E-01  1.00186E+00 -9.86137E-02
    9112.907    114.980   5.720  8.98434E-01  1.00199E+00 -1.03560E-01
    9114.657    116.729   5.760  8.98616E-01  1.00209E+00 -1.03470E-01
    9116.418    118.491   5.800  9.04246E-01  1.00213E+00 -9.78884E-02
    9118.192    120.265   5.840  9.15021E-01  1.00214E+00 -8.71184E-02
    9119.979    122.051   5.880  9.30114E-01  1.00208E+00 -7.19628E-02
    9121.777    123.849   5.920  9.48583E-01  1.00197E+00 -5.33848E-02
    9123.587    125.660   5.960  9.69084E-01  1.00181E+00 -3.27261E-02
    9125.410    127.483   6.000  9.89706E-01  1.00158E+00 -1.18698E-02
