# # comment:                                                     FEFF 9.9.1  
# # Source:
# # Structure
# # Reduced
# # space
# # abc:
# # angles:
# # sites:
# # POT  SCF 100  7.0000   0, screened core-hole, AFOLP (folp(0)= 1.150)
# # Abs   Z=29 Rmt= 1.073 Rnm= 1.288 K  shell
# # Pot 1 Z=39 Rmt= 1.577 Rnm= 1.673
# # Pot 2 Z=29 Rmt= 1.135 Rnm= 1.326
# # Pot 3 Z= 8 Rmt= 0.977 Rnm= 1.098
# # Gam_ch=1.729E+00 H-L exch Vi= 0.000E+00 Vr= 0.000E+00
# # Mu=-7.225E+00eV kf=2.095E+00 Vint=-1.574E+01eV Rs_int= 1.731
# FMS rfms= 9.0000
# # PATH  Rmax=-1.000,  Keep_limit= 0.00, Heap_limit 0.00  Pwcrit= 2.50%
#  S02=0.950  Temp=   0.00  Debye_temp=   0.00  Global_sig2= 0.00000
#  Energy zero shift, vr, vi    0.00000E+00   0.00000E+00
#  Curved wave amplitude ratio filter   4.000%
#     file         sig2 tot  cw amp ratio   deg  nlegs   reff  inp sig2
#     0/   0 paths used
#  xsedge+ 50, used to normalize mu           2.4738E-04
#  -----------------------------------------------------------------------
#  omega    e    k    mu    mu0     chi     @#
    8983.573    -11.035  -1.000  4.18899E-02  5.40026E-02 -1.21127E-02
    8983.871    -10.736  -0.960  4.45259E-02  5.78836E-02 -1.33577E-02
    8984.158    -10.450  -0.920  4.74391E-02  6.21914E-02 -1.47523E-02
    8984.432    -10.175  -0.880  5.06728E-02  6.69883E-02 -1.63155E-02
    8984.694     -9.913  -0.840  5.42786E-02  7.23468E-02 -1.80682E-02
    8984.944     -9.663  -0.800  5.83175E-02  7.83509E-02 -2.00334E-02
    8985.182     -9.425  -0.760  6.28609E-02  8.50968E-02 -2.22358E-02
    8985.407     -9.200  -0.720  6.79919E-02  9.26933E-02 -2.47014E-02
    8985.621     -8.987  -0.680  7.38036E-02  1.01260E-01 -2.74563E-02
    8985.822     -8.785  -0.640  8.03965E-02  1.10923E-01 -3.05264E-02
    8986.011     -8.596  -0.600  8.78709E-02  1.21806E-01 -3.39351E-02
    8986.188     -8.420  -0.560  9.63125E-02  1.34015E-01 -3.77021E-02
    8986.352     -8.255  -0.520  1.05770E-01  1.47611E-01 -4.18409E-02
    8986.505     -8.103  -0.480  1.16224E-01  1.62580E-01 -4.63567E-02
    8986.645     -7.962  -0.440  1.27549E-01  1.78792E-01 -5.12429E-02
    8986.773     -7.834  -0.400  1.39488E-01  1.95964E-01 -5.64754E-02
    8986.889     -7.719  -0.360  1.51653E-01  2.13656E-01 -6.20029E-02
    8986.992     -7.615  -0.320  1.63560E-01  2.31295E-01 -6.77351E-02
    8987.084     -7.523  -0.280  1.74712E-01  2.48245E-01 -7.35331E-02
    8987.163     -7.444  -0.240  1.84683E-01  2.63893E-01 -7.92097E-02
    8987.230     -7.377  -0.200  1.93183E-01  2.77725E-01 -8.45423E-02
    8987.285     -7.322  -0.160  2.00066E-01  2.89365E-01 -8.92988E-02
    8987.328     -7.280  -0.120  2.05298E-01  2.98569E-01 -9.32713E-02
    8987.358     -7.249  -0.080  2.08900E-01  3.05202E-01 -9.63013E-02
    8987.383     -7.225   0.000  2.11524E-01  3.10532E-01 -9.90080E-02
    8987.437     -7.170   0.120  2.17810E-01  3.22555E-01 -1.04745E-01
    8987.480     -7.127   0.160  2.22752E-01  3.31906E-01 -1.09154E-01
    8987.535     -7.072   0.200  2.28919E-01  3.43856E-01 -1.14937E-01
    8987.602     -7.005   0.240  2.36027E-01  3.58231E-01 -1.22203E-01
    8987.681     -6.926   0.280  2.43729E-01  3.74773E-01 -1.31043E-01
    8987.773     -6.835   0.320  2.51568E-01  3.93055E-01 -1.41487E-01
    8987.876     -6.731   0.360  2.59099E-01  4.12569E-01 -1.53471E-01
    8987.992     -6.615   0.400  2.65988E-01  4.32755E-01 -1.66767E-01
    8988.120     -6.487   0.440  2.72132E-01  4.53140E-01 -1.81007E-01
    8988.260     -6.347   0.480  2.77627E-01  4.73319E-01 -1.95692E-01
    8988.413     -6.195   0.520  2.82806E-01  4.93031E-01 -2.10225E-01
    8988.577     -6.030   0.560  2.88224E-01  5.12185E-01 -2.23960E-01
    8988.754     -5.853   0.600  2.94510E-01  5.30708E-01 -2.36198E-01
    8988.943     -5.664   0.640  3.02438E-01  5.48675E-01 -2.46237E-01
    8989.144     -5.463   0.680  3.12525E-01  5.66156E-01 -2.53632E-01
    8989.358     -5.250   0.720  3.24831E-01  5.83253E-01 -2.58423E-01
    8989.583     -5.024   0.760  3.38643E-01  6.00006E-01 -2.61362E-01
    8989.821     -4.786   0.800  3.52865E-01  6.16544E-01 -2.63680E-01
    8990.071     -4.536   0.840  3.66362E-01  6.32867E-01 -2.66505E-01
    8990.333     -4.274   0.880  3.78658E-01  6.49079E-01 -2.70421E-01
    8990.607     -4.000   0.920  3.90317E-01  6.65172E-01 -2.74855E-01
    8990.894     -3.713   0.960  4.03528E-01  6.81164E-01 -2.77635E-01
    8991.193     -3.415   1.000  4.21157E-01  6.97065E-01 -2.75908E-01
    8991.503     -3.104   1.040  4.45306E-01  7.12895E-01 -2.67588E-01
    8991.827     -2.781   1.080  4.76881E-01  7.28607E-01 -2.51725E-01
    8992.162     -2.446   1.120  5.16086E-01  7.44207E-01 -2.28121E-01
    8992.509     -2.098   1.160  5.62520E-01  7.59677E-01 -1.97157E-01
    8992.869     -1.738   1.200  6.14198E-01  7.74974E-01 -1.60776E-01
    8993.241     -1.367   1.240  6.64977E-01  7.90051E-01 -1.25074E-01
    8993.625     -0.983   1.280  7.05904E-01  8.04921E-01 -9.90174E-02
    8994.021     -0.586   1.320  7.35067E-01  8.19514E-01 -8.44467E-02
    8994.430     -0.178   1.360  7.58409E-01  8.33817E-01 -7.54085E-02
    8994.850      0.243   1.400  7.77215E-01  8.47779E-01 -7.05640E-02
    8995.283      0.676   1.440  7.90575E-01  8.61388E-01 -7.08124E-02
    8995.728      1.121   1.480  8.03714E-01  8.74591E-01 -7.08771E-02
    8996.185      1.578   1.520  8.22038E-01  8.87377E-01 -6.53388E-02
    8996.655      2.047   1.560  8.43194E-01  8.99694E-01 -5.65003E-02
    8997.136      2.529   1.600  8.58003E-01  9.11552E-01 -5.35489E-02
    8997.630      3.023   1.640  8.58597E-01  9.22902E-01 -6.43045E-02
    8998.136      3.529   1.680  8.45719E-01  9.33735E-01 -8.80164E-02
    8998.654      4.047   1.720  8.25931E-01  9.44027E-01 -1.18096E-01
    8999.184      4.577   1.760  8.05581E-01  9.53793E-01 -1.48212E-01
    8999.727      5.120   1.800  7.89844E-01  9.62987E-01 -1.73143E-01
    9000.282      5.674   1.840  7.82461E-01  9.71629E-01 -1.89168E-01
    9000.849      6.241   1.880  7.84347E-01  9.79697E-01 -1.95349E-01
    9001.428      6.820   1.920  7.95815E-01  9.87192E-01 -1.91376E-01
    9002.019      7.412   1.960  8.18698E-01  9.94157E-01 -1.75460E-01
    9002.623      8.015   2.000  8.53075E-01  1.00054E+00 -1.47461E-01
    9003.238      8.631   2.040  8.94267E-01  1.00639E+00 -1.12125E-01
    9003.866      9.259   2.080  9.35893E-01  1.01169E+00 -7.57979E-02
    9004.506      9.899   2.120  9.75740E-01  1.01648E+00 -4.07409E-02
    9005.158     10.551   2.160  1.01260E+00  1.02075E+00 -8.15350E-03
    9005.823     11.216   2.200  1.04402E+00  1.02452E+00  1.94927E-02
    9006.500     11.892   2.240  1.07267E+00  1.02783E+00  4.48398E-02
    9007.188     12.581   2.280  1.11103E+00  1.03067E+00  8.03631E-02
    9007.889     13.282   2.320  1.17008E+00  1.03308E+00  1.36998E-01
    9008.603     13.995   2.360  1.24421E+00  1.03508E+00  2.09131E-01
    9009.328     14.721   2.400  1.30821E+00  1.03667E+00  2.71543E-01
    9010.066     15.458   2.440  1.34526E+00  1.03789E+00  3.07368E-01
    9010.816     16.208   2.480  1.35965E+00  1.03876E+00  3.20896E-01
    9011.578     16.970   2.520  1.34711E+00  1.03931E+00  3.07806E-01
    9012.352     17.744   2.560  1.32389E+00  1.03954E+00  2.84344E-01
    9013.138     18.531   2.600  1.29835E+00  1.03947E+00  2.58875E-01
    9013.937     19.329   2.640  1.26986E+00  1.03917E+00  2.30693E-01
    9014.747     20.140   2.680  1.23580E+00  1.03859E+00  1.97212E-01
    9015.570     20.963   2.720  1.19548E+00  1.03780E+00  1.57672E-01
    9016.406     21.798   2.760  1.15286E+00  1.03681E+00  1.16049E-01
    9017.253     22.645   2.800  1.11183E+00  1.03565E+00  7.61774E-02
    9018.112     23.505   2.840  1.07533E+00  1.03432E+00  4.10167E-02
    9018.984     24.377   2.880  1.04486E+00  1.03283E+00  1.20314E-02
    9019.868     25.261   2.920  1.02042E+00  1.03122E+00 -1.07983E-02
    9020.764     26.157   2.960  1.00180E+00  1.02949E+00 -2.76905E-02
    9021.672     27.065   3.000  9.88810E-01  1.02767E+00 -3.88572E-02
    9022.593     27.986   3.040  9.80931E-01  1.02576E+00 -4.48332E-02
    9023.526     28.918   3.080  9.77456E-01  1.02379E+00 -4.63300E-02
    9024.471     29.863   3.120  9.77927E-01  1.02178E+00 -4.38556E-02
    9025.428     30.820   3.160  9.81638E-01  1.01972E+00 -3.80780E-02
    9026.397     31.789   3.200  9.87836E-01  1.01763E+00 -2.97977E-02
    9027.378     32.771   3.240  9.95617E-01  1.01552E+00 -1.99067E-02
    9028.372     33.765   3.280  1.00386E+00  1.01341E+00 -9.54608E-03
    9029.378     34.770   3.320  1.01116E+00  1.01131E+00 -1.51669E-04
    9030.396     35.788   3.360  1.01593E+00  1.00921E+00  6.72699E-03
    9031.426     36.819   3.400  1.01697E+00  1.00715E+00  9.81720E-03
    9032.468     37.861   3.440  1.01364E+00  1.00511E+00  8.52699E-03
    9033.523     38.916   3.480  1.00627E+00  1.00311E+00  3.16237E-03
    9034.590     39.982   3.520  9.95874E-01  1.00117E+00 -5.29571E-03
    9035.669     41.061   3.560  9.83629E-01  9.99275E-01 -1.56455E-02
    9036.760     42.153   3.600  9.70482E-01  9.97426E-01 -2.69445E-02
    9037.863     43.256   3.640  9.56963E-01  9.95628E-01 -3.86652E-02
    9038.979     44.372   3.680  9.43412E-01  9.93924E-01 -5.05122E-02
    9040.107     45.499   3.720  9.30088E-01  9.92274E-01 -6.21862E-02
    9041.247     46.639   3.760  9.17558E-01  9.90701E-01 -7.31423E-02
    9042.399     47.791   3.800  9.06606E-01  9.89207E-01 -8.26002E-02
    9043.563     48.956   3.840  8.98037E-01  9.87793E-01 -8.97567E-02
    9044.740     50.132   3.880  8.92316E-01  9.86461E-01 -9.41456E-02
    9045.928     51.321   3.920  8.89711E-01  9.85233E-01 -9.55220E-02
    9047.129     52.522   3.960  8.90278E-01  9.84066E-01 -9.37881E-02
    9048.342     53.735   4.000  8.94047E-01  9.83004E-01 -8.89570E-02
    9049.568     54.960   4.040  9.00882E-01  9.82026E-01 -8.11437E-02
    9050.805     56.198   4.080  9.10508E-01  9.81130E-01 -7.06218E-02
    9052.055     57.447   4.120  9.22280E-01  9.80317E-01 -5.80367E-02
    9053.317     58.709   4.160  9.35180E-01  9.79609E-01 -4.44291E-02
    9054.591     59.983   4.200  9.47968E-01  9.78964E-01 -3.09965E-02
    9055.877     61.270   4.240  9.59629E-01  9.78422E-01 -1.87933E-02
    9057.175     62.568   4.280  9.69479E-01  9.77964E-01 -8.48476E-03
    9058.486     63.879   4.320  9.77372E-01  9.77589E-01 -2.16472E-04
    9059.809     65.201   4.360  9.83601E-01  9.77295E-01  6.30580E-03
    9061.144     66.537   4.400  9.88634E-01  9.77104E-01  1.15301E-02
    9062.491     67.884   4.440  9.92815E-01  9.76971E-01  1.58438E-02
    9063.850     69.243   4.480  9.96325E-01  9.76916E-01  1.94093E-02
    9065.222     70.615   4.520  9.99033E-01  9.76939E-01  2.20948E-02
    9066.606     71.999   4.560  1.00061E+00  9.77038E-01  2.35706E-02
    9068.002     73.394   4.600  1.00070E+00  9.77212E-01  2.34896E-02
    9069.410     74.803   4.640  9.99115E-01  9.77436E-01  2.16798E-02
    9070.830     76.223   4.680  9.95978E-01  9.77710E-01  1.82686E-02
    9072.263     77.656   4.720  9.91785E-01  9.78076E-01  1.37096E-02
    9073.708     79.100   4.760  9.87158E-01  9.78467E-01  8.69065E-03
    9075.165     80.557   4.800  9.82915E-01  9.78925E-01  3.99008E-03
    9076.634     82.026   4.840  9.79742E-01  9.79427E-01  3.14577E-04
    9078.115     83.508   4.880  9.78100E-01  9.79973E-01 -1.87337E-03
    9079.609     85.001   4.920  9.78184E-01  9.80580E-01 -2.39565E-03
    9081.114     86.507   4.960  9.79913E-01  9.81203E-01 -1.29026E-03
    9082.632     88.025   5.000  9.83187E-01  9.81860E-01  1.32679E-03
    9084.162     89.555   5.040  9.87924E-01  9.82528E-01  5.39599E-03
    9085.705     91.097   5.080  9.94165E-01  9.83229E-01  1.09358E-02
    9087.259     92.652   5.120  1.00191E+00  9.83962E-01  1.79441E-02
    9088.826     94.218   5.160  1.01094E+00  9.84700E-01  2.62408E-02
    9090.405     95.797   5.200  1.02080E+00  9.85444E-01  3.53594E-02
    9091.996     97.388   5.240  1.03078E+00  9.86211E-01  4.45727E-02
    9093.599     98.991   5.280  1.04000E+00  9.86958E-01  5.30417E-02
    9095.214    100.607   5.320  1.04774E+00  9.87724E-01  6.00123E-02
    9096.842    102.235   5.360  1.05346E+00  9.88464E-01  6.49984E-02
    9098.482    103.874   5.400  1.05700E+00  9.89197E-01  6.78059E-02
    9100.134    105.526   5.440  1.05828E+00  9.89901E-01  6.83772E-02
    9101.798    107.191   5.480  1.05718E+00  9.90597E-01  6.65860E-02
    9103.474    108.867   5.520  1.05348E+00  9.91284E-01  6.21996E-02
    9105.163    110.556   5.560  1.04693E+00  9.91936E-01  5.49914E-02
    9106.864    112.256   5.600  1.03746E+00  9.92553E-01  4.49097E-02
    9108.577    113.969   5.640  1.02541E+00  9.93155E-01  3.22594E-02
    9110.302    115.694   5.680  1.01145E+00  9.93695E-01  1.77545E-02
    9112.039    117.432   5.720  9.96667E-01  9.94217E-01  2.45023E-03
    9113.789    119.181   5.760  9.82214E-01  9.94676E-01 -1.24619E-02
    9115.550    120.943   5.800  9.69263E-01  9.95114E-01 -2.58513E-02
    9117.324    122.717   5.840  9.58707E-01  9.95486E-01 -3.67790E-02
    9119.111    124.503   5.880  9.51282E-01  9.95810E-01 -4.45284E-02
    9120.909    126.301   5.920  9.47433E-01  9.96086E-01 -4.86529E-02
    9122.719    128.112   5.960  9.47226E-01  9.96278E-01 -4.90522E-02
    9124.542    129.935   6.000  9.50552E-01  9.96392E-01 -4.58398E-02
