# # comment:                                                     FEFF 9.9.1  
# # Source:
# # Structure
# # Reduced
# # space
# # abc:
# # angles:
# # sites:
# # POT  SCF 100  7.0000   0, screened core-hole, AFOLP (folp(0)= 1.150)
# # Abs   Z=29 Rmt= 1.218 Rnm= 1.272 K  shell
# # Pot 1 Z=27 Rmt= 1.225 Rnm= 1.319
# # Pot 2 Z=29 Rmt= 1.218 Rnm= 1.273
# # Pot 3 Z= 8 Rmt= 1.005 Rnm= 1.071
# # Gam_ch=1.729E+00 H-L exch Vi= 0.000E+00 Vr= 0.000E+00
# # Mu=-1.153E+01eV kf=2.308E+00 Vint=-2.015E+01eV Rs_int= 1.571
# FMS rfms= 9.0000
# # PATH  Rmax=-1.000,  Keep_limit= 0.00, Heap_limit 0.00  Pwcrit= 2.50%
#  S02=0.950  Temp=   0.00  Debye_temp=   0.00  Global_sig2= 0.00000
#  Energy zero shift, vr, vi    0.00000E+00   0.00000E+00
#  Curved wave amplitude ratio filter   4.000%
#     file         sig2 tot  cw amp ratio   deg  nlegs   reff  inp sig2
#     0/   0 paths used
#  xsedge+ 50, used to normalize mu           2.5053E-04
#  -----------------------------------------------------------------------
#  omega    e    k    mu    mu0     chi     @#
    8985.080    -15.344  -1.000  2.79044E-02  4.75296E-02 -1.96253E-02
    8985.379    -15.045  -0.960  2.89881E-02  5.08402E-02 -2.18521E-02
    8985.665    -14.758  -0.920  3.01291E-02  5.45092E-02 -2.43801E-02
    8985.940    -14.484  -0.880  3.13331E-02  5.85887E-02 -2.72556E-02
    8986.202    -14.222  -0.840  3.26068E-02  6.31392E-02 -3.05325E-02
    8986.452    -13.972  -0.800  3.39580E-02  6.82311E-02 -3.42731E-02
    8986.689    -13.734  -0.760  3.53960E-02  7.39447E-02 -3.85487E-02
    8986.915    -13.509  -0.720  3.69308E-02  8.03709E-02 -4.34400E-02
    8987.128    -13.295  -0.680  3.85739E-02  8.76095E-02 -4.90356E-02
    8987.330    -13.094  -0.640  4.03371E-02  9.57660E-02 -5.54289E-02
    8987.519    -12.905  -0.600  4.22317E-02  1.04944E-01 -6.27120E-02
    8987.695    -12.728  -0.560  4.42666E-02  1.15230E-01 -7.09639E-02
    8987.860    -12.564  -0.520  4.64452E-02  1.26678E-01 -8.02328E-02
    8988.012    -12.411  -0.480  4.87619E-02  1.39274E-01 -9.05117E-02
    8988.152    -12.271  -0.440  5.11970E-02  1.52907E-01 -1.01710E-01
    8988.281    -12.143  -0.400  5.37134E-02  1.67342E-01 -1.13629E-01
    8988.396    -12.027  -0.360  5.62556E-02  1.82210E-01 -1.25955E-01
    8988.500    -11.924  -0.320  5.87535E-02  1.97031E-01 -1.38277E-01
    8988.591    -11.832  -0.280  6.11311E-02  2.11270E-01 -1.50139E-01
    8988.671    -11.753  -0.240  6.33160E-02  2.24415E-01 -1.61099E-01
    8988.738    -11.686  -0.200  6.52473E-02  2.36034E-01 -1.70787E-01
    8988.793    -11.631  -0.160  6.68785E-02  2.45812E-01 -1.78933E-01
    8988.835    -11.588  -0.120  6.81752E-02  2.53544E-01 -1.85368E-01
    8988.866    -11.558  -0.080  6.91140E-02  2.59116E-01 -1.90002E-01
    8988.890    -11.534   0.000  6.98758E-02  2.63594E-01 -1.93719E-01
    8988.945    -11.479   0.120  7.18018E-02  2.73691E-01 -2.01889E-01
    8988.988    -11.436   0.160  7.32494E-02  2.81550E-01 -2.08300E-01
    8989.043    -11.381   0.200  7.50994E-02  2.91586E-01 -2.16487E-01
    8989.110    -11.314   0.240  7.73463E-02  3.03691E-01 -2.26345E-01
    8989.189    -11.235   0.280  7.99379E-02  3.17592E-01 -2.37654E-01
    8989.280    -11.143   0.320  8.28452E-02  3.32968E-01 -2.50123E-01
    8989.384    -11.040   0.360  8.60453E-02  3.49398E-01 -2.63353E-01
    8989.500    -10.924   0.400  8.94544E-02  3.66429E-01 -2.76975E-01
    8989.628    -10.796   0.440  9.29203E-02  3.83630E-01 -2.90710E-01
    8989.768    -10.656   0.480  9.62616E-02  4.00683E-01 -3.04421E-01
    8989.920    -10.503   0.520  9.92501E-02  4.17385E-01 -3.18135E-01
    8990.085    -10.339   0.560  1.01631E-01  4.33646E-01 -3.32015E-01
    8990.262    -10.162   0.600  1.03254E-01  4.49418E-01 -3.46165E-01
    8990.451     -9.973   0.640  1.04274E-01  4.64793E-01 -3.60518E-01
    8990.652     -9.772   0.680  1.05068E-01  4.79784E-01 -3.74716E-01
    8990.865     -9.558   0.720  1.06296E-01  4.94522E-01 -3.88226E-01
    8991.091     -9.333   0.760  1.08508E-01  5.09034E-01 -4.00526E-01
    8991.328     -9.095   0.800  1.12138E-01  5.23418E-01 -4.11280E-01
    8991.578     -8.845   0.840  1.17320E-01  5.37743E-01 -4.20424E-01
    8991.841     -8.583   0.880  1.23991E-01  5.52008E-01 -4.28017E-01
    8992.115     -8.309   0.920  1.32185E-01  5.66280E-01 -4.34095E-01
    8992.401     -8.022   0.960  1.42315E-01  5.80575E-01 -4.38260E-01
    8992.700     -7.724   1.000  1.55264E-01  5.94899E-01 -4.39635E-01
    8993.011     -7.413   1.040  1.72098E-01  6.09255E-01 -4.37157E-01
    8993.334     -7.090   1.080  1.93568E-01  6.23657E-01 -4.30089E-01
    8993.669     -6.754   1.120  2.19552E-01  6.38071E-01 -4.18519E-01
    8994.017     -6.407   1.160  2.48814E-01  6.52483E-01 -4.03668E-01
    8994.376     -6.047   1.200  2.79304E-01  6.66913E-01 -3.87609E-01
    8994.748     -5.675   1.240  3.09220E-01  6.81277E-01 -3.72057E-01
    8995.132     -5.291   1.280  3.38896E-01  6.95609E-01 -3.56713E-01
    8995.529     -4.895   1.320  3.69498E-01  7.09844E-01 -3.40346E-01
    8995.937     -4.487   1.360  4.02646E-01  7.23972E-01 -3.21325E-01
    8996.358     -4.066   1.400  4.42509E-01  7.37961E-01 -2.95452E-01
    8996.790     -3.633   1.440  4.90770E-01  7.51802E-01 -2.61033E-01
    8997.235     -3.188   1.480  5.45593E-01  7.65422E-01 -2.19829E-01
    8997.693     -2.731   1.520  6.08751E-01  7.78810E-01 -1.70060E-01
    8998.162     -2.262   1.560  6.82584E-01  7.91956E-01 -1.09372E-01
    8998.644     -1.780   1.600  7.54751E-01  8.04824E-01 -5.00737E-02
    8999.137     -1.286   1.640  7.97089E-01  8.17367E-01 -2.02777E-02
    8999.643     -0.780   1.680  8.02185E-01  8.29594E-01 -2.74082E-02
    9000.162     -0.262   1.720  7.99016E-01  8.41472E-01 -4.24569E-02
    9000.692      0.268   1.760  8.31977E-01  8.52976E-01 -2.09984E-02
    9001.234      0.811   1.800  9.22161E-01  8.64076E-01  5.80856E-02
    9001.789      1.366   1.840  1.06837E+00  8.74763E-01  1.93610E-01
    9002.356      1.932   1.880  1.25327E+00  8.85053E-01  3.68221E-01
    9002.935      2.512   1.920  1.43680E+00  8.94881E-01  5.41920E-01
    9003.527      3.103   1.960  1.60376E+00  9.04281E-01  6.99476E-01
    9004.130      3.706   2.000  1.77029E+00  9.13232E-01  8.57058E-01
    9004.746      4.322   2.040  1.88131E+00  9.21731E-01  9.59583E-01
    9005.374      4.950   2.080  1.86601E+00  9.29757E-01  9.36254E-01
    9006.014      5.590   2.120  1.76650E+00  9.37329E-01  8.29171E-01
    9006.666      6.242   2.160  1.62700E+00  9.44451E-01  6.82553E-01
    9007.330      6.907   2.200  1.43166E+00  9.51124E-01  4.80537E-01
    9008.007      7.583   2.240  1.22580E+00  9.57349E-01  2.68451E-01
    9008.696      8.272   2.280  1.07675E+00  9.63111E-01  1.13637E-01
    9009.397      8.973   2.320  9.87583E-01  9.68454E-01  1.91287E-02
    9010.110      9.687   2.360  9.35145E-01  9.73383E-01 -3.82385E-02
    9010.836     10.412   2.400  9.10275E-01  9.77905E-01 -6.76298E-02
    9011.573     11.150   2.440  9.10821E-01  9.82004E-01 -7.11826E-02
    9012.323     11.899   2.480  9.22951E-01  9.85728E-01 -6.27766E-02
    9013.085     12.661   2.520  9.18947E-01  9.89084E-01 -7.01370E-02
    9013.859     13.436   2.560  8.94420E-01  9.92078E-01 -9.76576E-02
    9014.646     14.222   2.600  8.88937E-01  9.94719E-01 -1.05782E-01
    9015.444     15.021   2.640  9.32290E-01  9.97035E-01 -6.47450E-02
    9016.255     15.831   2.680  1.00120E+00  9.99053E-01  2.15096E-03
    9017.078     16.654   2.720  1.03066E+00  1.00076E+00  2.98981E-02
    9017.913     17.489   2.760  1.02604E+00  1.00219E+00  2.38490E-02
    9018.760     18.337   2.800  1.01279E+00  1.00337E+00  9.42279E-03
    9019.620     19.196   2.840  9.93334E-01  1.00430E+00 -1.09619E-02
    9020.492     20.068   2.880  9.68931E-01  1.00499E+00 -3.60585E-02
    9021.376     20.952   2.920  9.41804E-01  1.00545E+00 -6.36510E-02
    9022.272     21.848   2.960  9.14645E-01  1.00574E+00 -9.10938E-02
    9023.180     22.756   3.000  8.89690E-01  1.00583E+00 -1.16143E-01
    9024.100     23.677   3.040  8.67904E-01  1.00578E+00 -1.37876E-01
    9025.033     24.610   3.080  8.49442E-01  1.00555E+00 -1.56106E-01
    9025.978     25.554   3.120  8.34079E-01  1.00518E+00 -1.71105E-01
    9026.935     26.511   3.160  8.21409E-01  1.00468E+00 -1.83268E-01
    9027.904     27.481   3.200  8.11420E-01  1.00407E+00 -1.92651E-01
    9028.886     28.462   3.240  8.04598E-01  1.00338E+00 -1.98778E-01
    9029.879     29.456   3.280  8.00906E-01  1.00258E+00 -2.01670E-01
    9030.885     30.462   3.320  8.01004E-01  1.00172E+00 -2.00712E-01
    9031.903     31.480   3.360  8.05755E-01  1.00078E+00 -1.95027E-01
    9032.934     32.510   3.400  8.15557E-01  9.99778E-01 -1.84222E-01
    9033.976     33.552   3.440  8.29970E-01  9.98751E-01 -1.68780E-01
    9035.031     34.607   3.480  8.47619E-01  9.97664E-01 -1.50046E-01
    9036.097     35.674   3.520  8.66675E-01  9.96564E-01 -1.29889E-01
    9037.176     36.753   3.560  8.85530E-01  9.95452E-01 -1.09922E-01
    9038.267     37.844   3.600  9.04081E-01  9.94313E-01 -9.02320E-02
    9039.371     38.947   3.640  9.23102E-01  9.93172E-01 -7.00695E-02
    9040.486     40.063   3.680  9.43235E-01  9.92031E-01 -4.87955E-02
    9041.614     41.191   3.720  9.64715E-01  9.90913E-01 -2.61983E-02
    9042.754     42.331   3.760  9.87360E-01  9.89802E-01 -2.44211E-03
    9043.906     43.483   3.800  1.01060E+00  9.88700E-01  2.19003E-02
    9045.071     44.647   3.840  1.03344E+00  9.87650E-01  4.57880E-02
    9046.247     45.823   3.880  1.05436E+00  9.86593E-01  6.77622E-02
    9047.436     47.012   3.920  1.07198E+00  9.85594E-01  8.63854E-02
    9048.637     48.213   3.960  1.08575E+00  9.84632E-01  1.01116E-01
    9049.850     49.426   4.000  1.09674E+00  9.83710E-01  1.13031E-01
    9051.075     50.652   4.040  1.10696E+00  9.82828E-01  1.24128E-01
    9052.313     51.889   4.080  1.11831E+00  9.81987E-01  1.36320E-01
    9053.562     53.139   4.120  1.13159E+00  9.81188E-01  1.50406E-01
    9054.824     54.401   4.160  1.14576E+00  9.80455E-01  1.65305E-01
    9056.098     55.675   4.200  1.15776E+00  9.79744E-01  1.78019E-01
    9057.384     56.961   4.240  1.16370E+00  9.79120E-01  1.84584E-01
    9058.683     58.259   4.280  1.16047E+00  9.78520E-01  1.81947E-01
    9059.994     59.570   4.320  1.14720E+00  9.77986E-01  1.69211E-01
    9061.316     60.893   4.360  1.12556E+00  9.77497E-01  1.48064E-01
    9062.651     62.228   4.400  1.09905E+00  9.77052E-01  1.21994E-01
    9063.999     63.575   4.440  1.07146E+00  9.76677E-01  9.47783E-02
    9065.358     64.934   4.480  1.04555E+00  9.76369E-01  6.91771E-02
    9066.730     66.306   4.520  1.02257E+00  9.76082E-01  4.64875E-02
    9068.113     67.690   4.560  1.00252E+00  9.75860E-01  2.66621E-02
    9069.509     69.086   4.600  9.84537E-01  9.75683E-01  8.85413E-03
    9070.918     70.494   4.640  9.67781E-01  9.75546E-01 -7.76513E-03
    9072.338     71.914   4.680  9.51992E-01  9.75452E-01 -2.34606E-02
    9073.770     73.347   4.720  9.37380E-01  9.75420E-01 -3.80401E-02
    9075.215     74.792   4.760  9.24300E-01  9.75408E-01 -5.11083E-02
    9076.672     76.249   4.800  9.13219E-01  9.75458E-01 -6.22383E-02
    9078.141     77.718   4.840  9.04490E-01  9.75524E-01 -7.10348E-02
    9079.623     79.199   4.880  8.98265E-01  9.75649E-01 -7.73843E-02
    9081.116     80.692   4.920  8.94120E-01  9.75788E-01 -8.16685E-02
    9082.622     82.198   4.960  8.91532E-01  9.75963E-01 -8.44304E-02
    9084.140     83.716   5.000  8.90406E-01  9.76171E-01 -8.57652E-02
    9085.670     85.246   5.040  8.91095E-01  9.76390E-01 -8.52957E-02
    9087.212     86.788   5.080  8.94110E-01  9.76641E-01 -8.25311E-02
    9088.767     88.343   5.120  8.99632E-01  9.76922E-01 -7.72898E-02
    9090.333     89.910   5.160  9.07339E-01  9.77189E-01 -6.98496E-02
    9091.912     91.488   5.200  9.16548E-01  9.77503E-01 -6.09551E-02
    9093.503     93.079   5.240  9.26168E-01  9.77802E-01 -5.16340E-02
    9095.106     94.683   5.280  9.35562E-01  9.78125E-01 -4.25632E-02
    9096.722     96.298   5.320  9.44822E-01  9.78448E-01 -3.36259E-02
    9098.349     97.926   5.360  9.54844E-01  9.78749E-01 -2.39050E-02
    9099.989     99.566   5.400  9.66664E-01  9.79072E-01 -1.24084E-02
    9101.641    101.218   5.440  9.80538E-01  9.79396E-01  1.14140E-03
    9103.305    102.882   5.480  9.95580E-01  9.79716E-01  1.58646E-02
    9104.982    104.558   5.520  1.01002E+00  9.80008E-01  3.00115E-02
    9106.670    106.247   5.560  1.02194E+00  9.80294E-01  4.16457E-02
    9108.371    107.948   5.600  1.02967E+00  9.80572E-01  4.90947E-02
    9110.084    109.661   5.640  1.03170E+00  9.80820E-01  5.08811E-02
    9111.809    111.386   5.680  1.02720E+00  9.81037E-01  4.61647E-02
    9113.547    113.123   5.720  1.01687E+00  9.81266E-01  3.56059E-02
    9115.296    114.873   5.760  1.00244E+00  9.81440E-01  2.09963E-02
    9117.058    116.634   5.800  9.85270E-01  9.81605E-01  3.66468E-03
    9118.832    118.408   5.840  9.65667E-01  9.81759E-01 -1.60919E-02
    9120.618    120.194   5.880  9.43740E-01  9.81853E-01 -3.81128E-02
    9122.416    121.993   5.920  9.21077E-01  9.81933E-01 -6.08561E-02
    9124.227    123.803   5.960  9.01038E-01  9.81974E-01 -8.09360E-02
    9126.050    125.626   6.000  8.88036E-01  9.81961E-01 -9.39251E-02
