# # comment:                                                     FEFF 9.9.1  
# # Source:
# # Structure
# # Reduced
# # space
# # abc:
# # angles:107.586138
# # sites:
# # POT  SCF 100  7.0000   0, screened core-hole, AFOLP (folp(0)= 1.150)
# # Abs   Z=29 Rmt= 1.132 Rnm= 1.258 K  shell
# # Pot 1 Z=56 Rmt= 1.931 Rnm= 1.991
# # Pot 2 Z=38 Rmt= 1.816 Rnm= 1.876
# # Pot 3 Z=29 Rmt= 1.138 Rnm= 1.261
# # Pot 4 Z= 8 Rmt= 1.053 Rnm= 1.113
# # Gam_ch=1.729E+00 H-L exch Vi= 0.000E+00 Vr= 0.000E+00
# # Mu=-9.313E+00eV kf=2.019E+00 Vint=-1.655E+01eV Rs_int= 1.796
# FMS rfms= 9.0000
# # PATH  Rmax=-1.000,  Keep_limit= 0.00, Heap_limit 0.00  Pwcrit= 2.50%
#  S02=0.950  Temp=   0.00  Debye_temp=   0.00  Global_sig2= 0.00000
#  Energy zero shift, vr, vi    0.00000E+00   0.00000E+00
#  Curved wave amplitude ratio filter   4.000%
#     file         sig2 tot  cw amp ratio   deg  nlegs   reff  inp sig2
#     0/   0 paths used
#  xsedge+ 50, used to normalize mu           2.4471E-04
#  -----------------------------------------------------------------------
#  omega    e    k    mu    mu0     chi     @#
    8984.569    -13.123  -1.000  2.83830E-02  5.19167E-02 -2.35337E-02
    8984.867    -12.825  -0.960  2.95119E-02  5.55747E-02 -2.60628E-02
    8985.154    -12.538  -0.920  3.07043E-02  5.96272E-02 -2.89230E-02
    8985.428    -12.264  -0.880  3.19665E-02  6.41313E-02 -3.21648E-02
    8985.690    -12.002  -0.840  3.33060E-02  6.91529E-02 -3.58469E-02
    8985.940    -11.752  -0.800  3.47314E-02  7.47682E-02 -4.00368E-02
    8986.178    -11.514  -0.760  3.62525E-02  8.10647E-02 -4.48121E-02
    8986.403    -11.289  -0.720  3.78807E-02  8.81408E-02 -5.02602E-02
    8986.617    -11.075  -0.680  3.96279E-02  9.61049E-02 -5.64770E-02
    8986.818    -10.874  -0.640  4.15069E-02  1.05071E-01 -6.35637E-02
    8987.007    -10.685  -0.600  4.35297E-02  1.15150E-01 -7.16201E-02
    8987.184    -10.508  -0.560  4.57050E-02  1.26437E-01 -8.07316E-02
    8987.348    -10.344  -0.520  4.80355E-02  1.38987E-01 -9.09512E-02
    8987.501    -10.191  -0.480  5.05127E-02  1.52785E-01 -1.02272E-01
    8987.641    -10.051  -0.440  5.31118E-02  1.67711E-01 -1.14600E-01
    8987.769     -9.923  -0.400  5.57877E-02  1.83509E-01 -1.27722E-01
    8987.885     -9.807  -0.360  5.84751E-02  1.99778E-01 -1.41303E-01
    8987.988     -9.704  -0.320  6.10942E-02  2.15995E-01 -1.54901E-01
    8988.080     -9.612  -0.280  6.35619E-02  2.31581E-01 -1.68019E-01
    8988.159     -9.533  -0.240  6.58044E-02  2.45976E-01 -1.80172E-01
    8988.226     -9.466  -0.200  6.77646E-02  2.58709E-01 -1.90945E-01
    8988.281     -9.411  -0.160  6.94019E-02  2.69432E-01 -2.00030E-01
    8988.324     -9.368  -0.120  7.06872E-02  2.77916E-01 -2.07229E-01
    8988.354     -9.338  -0.080  7.16039E-02  2.84035E-01 -2.12431E-01
    8988.379     -9.313   0.000  7.23358E-02  2.88955E-01 -2.16620E-01
    8988.433     -9.259   0.120  7.45735E-02  3.00061E-01 -2.25488E-01
    8988.476     -9.216   0.160  7.61450E-02  3.08702E-01 -2.32557E-01
    8988.531     -9.161   0.200  7.81230E-02  3.19772E-01 -2.41649E-01
    8988.598     -9.094   0.240  8.04417E-02  3.33122E-01 -2.52680E-01
    8988.677     -9.015   0.280  8.30892E-02  3.48514E-01 -2.65425E-01
    8988.769     -8.923   0.320  8.59891E-02  3.65575E-01 -2.79586E-01
    8988.872     -8.820   0.360  8.91673E-02  3.83905E-01 -2.94737E-01
    8988.988     -8.704   0.400  9.25297E-02  4.02966E-01 -3.10437E-01
    8989.116     -8.576   0.440  9.61308E-02  4.22367E-01 -3.26237E-01
    8989.256     -8.436   0.480  9.98536E-02  4.41731E-01 -3.41877E-01
    8989.409     -8.283   0.520  1.03571E-01  4.60843E-01 -3.57271E-01
    8989.573     -8.119   0.560  1.07133E-01  4.79583E-01 -3.72450E-01
    8989.750     -7.942   0.600  1.10437E-01  4.97961E-01 -3.87524E-01
    8989.939     -7.753   0.640  1.13491E-01  5.15962E-01 -4.02471E-01
    8990.140     -7.552   0.680  1.16603E-01  5.33682E-01 -4.17079E-01
    8990.354     -7.338   0.720  1.20311E-01  5.51166E-01 -4.30855E-01
    8990.579     -7.113   0.760  1.25244E-01  5.68498E-01 -4.43254E-01
    8990.817     -6.875   0.800  1.32041E-01  5.85711E-01 -4.53670E-01
    8991.067     -6.625   0.840  1.41214E-01  6.02869E-01 -4.61655E-01
    8991.329     -6.363   0.880  1.53071E-01  6.19981E-01 -4.66910E-01
    8991.603     -6.089   0.920  1.67458E-01  6.37044E-01 -4.69586E-01
    8991.890     -5.802   0.960  1.83652E-01  6.54106E-01 -4.70454E-01
    8992.189     -5.503   1.000  2.00426E-01  6.71103E-01 -4.70676E-01
    8992.499     -5.193   1.040  2.17060E-01  6.88044E-01 -4.70984E-01
    8992.822     -4.869   1.080  2.34211E-01  7.04913E-01 -4.70702E-01
    8993.158     -4.534   1.120  2.53966E-01  7.21666E-01 -4.67699E-01
    8993.505     -4.187   1.160  2.78192E-01  7.38254E-01 -4.60062E-01
    8993.865     -3.827   1.200  3.06660E-01  7.54668E-01 -4.48008E-01
    8994.237     -3.455   1.240  3.37305E-01  7.70834E-01 -4.33529E-01
    8994.621     -3.071   1.280  3.68481E-01  7.86717E-01 -4.18236E-01
    8995.017     -2.675   1.320  4.00213E-01  8.02300E-01 -4.02086E-01
    8995.425     -2.267   1.360  4.32505E-01  8.17506E-01 -3.85001E-01
    8995.846     -1.846   1.400  4.63562E-01  8.32299E-01 -3.68736E-01
    8996.279     -1.413   1.440  4.90848E-01  8.46662E-01 -3.55814E-01
    8996.724     -0.968   1.480  5.13738E-01  8.60562E-01 -3.46823E-01
    8997.181     -0.511   1.520  5.38791E-01  8.73943E-01 -3.35153E-01
    8997.651     -0.041   1.560  5.75671E-01  8.86774E-01 -3.11104E-01
    8998.132      0.440   1.600  6.27139E-01  8.99064E-01 -2.71925E-01
    8998.626      0.934   1.640  6.94751E-01  9.10741E-01 -2.15990E-01
    8999.132      1.440   1.680  7.79036E-01  9.21842E-01 -1.42806E-01
    8999.650      1.958   1.720  8.68622E-01  9.32319E-01 -6.36974E-02
    9000.180      2.488   1.760  9.46761E-01  9.42192E-01  4.56969E-03
    9000.723      3.031   1.800  1.01979E+00  9.51418E-01  6.83671E-02
    9001.278      3.586   1.840  1.10426E+00  9.60038E-01  1.44219E-01
    9001.845      4.153   1.880  1.18525E+00  9.68032E-01  2.17220E-01
    9002.424      4.732   1.920  1.22945E+00  9.75408E-01  2.54044E-01
    9003.015      5.323   1.960  1.23531E+00  9.82191E-01  2.53121E-01
    9003.618      5.926   2.000  1.21842E+00  9.88366E-01  2.30052E-01
    9004.234      6.542   2.040  1.18824E+00  9.93983E-01  1.94253E-01
    9004.862      7.170   2.080  1.15772E+00  9.99031E-01  1.58685E-01
    9005.502      7.810   2.120  1.14117E+00  1.00354E+00  1.37630E-01
    9006.154      8.462   2.160  1.14603E+00  1.00754E+00  1.38485E-01
    9006.819      9.127   2.200  1.17040E+00  1.01103E+00  1.59378E-01
    9007.496      9.804   2.240  1.20727E+00  1.01407E+00  1.93204E-01
    9008.184     10.492   2.280  1.24902E+00  1.01666E+00  2.32361E-01
    9008.885     11.193   2.320  1.28921E+00  1.01882E+00  2.70390E-01
    9009.599     11.907   2.360  1.32330E+00  1.02059E+00  3.02711E-01
    9010.324     12.632   2.400  1.34736E+00  1.02201E+00  3.25343E-01
    9011.062     13.370   2.440  1.34997E+00  1.02306E+00  3.26914E-01
    9011.811     14.119   2.480  1.33156E+00  1.02382E+00  3.07745E-01
    9012.573     14.881   2.520  1.29962E+00  1.02426E+00  2.75354E-01
    9013.348     15.656   2.560  1.25852E+00  1.02443E+00  2.34085E-01
    9014.134     16.442   2.600  1.21351E+00  1.02437E+00  1.89135E-01
    9014.933     17.241   2.640  1.17086E+00  1.02410E+00  1.46757E-01
    9015.743     18.051   2.680  1.13360E+00  1.02360E+00  1.09999E-01
    9016.566     18.874   2.720  1.10316E+00  1.02296E+00  8.02001E-02
    9017.401     19.709   2.760  1.07934E+00  1.02212E+00  5.72140E-02
    9018.249     20.557   2.800  1.06107E+00  1.02116E+00  3.99085E-02
    9019.108     21.416   2.840  1.04723E+00  1.02010E+00  2.71328E-02
    9019.980     22.288   2.880  1.03680E+00  1.01892E+00  1.78874E-02
    9020.864     23.172   2.920  1.02822E+00  1.01765E+00  1.05616E-02
    9021.760     24.068   2.960  1.01975E+00  1.01631E+00  3.44094E-03
    9022.668     24.976   3.000  1.00999E+00  1.01493E+00 -4.93953E-03
    9023.589     25.897   3.040  9.98145E-01  1.01349E+00 -1.53491E-02
    9024.522     26.830   3.080  9.84264E-01  1.01205E+00 -2.77860E-02
    9025.466     27.774   3.120  9.69153E-01  1.01058E+00 -4.14233E-02
    9026.424     28.732   3.160  9.53583E-01  1.00910E+00 -5.55175E-02
    9027.393     29.701   3.200  9.37917E-01  1.00765E+00 -6.97304E-02
    9028.374     30.682   3.240  9.22507E-01  1.00620E+00 -8.36954E-02
    9029.368     31.676   3.280  9.07634E-01  1.00477E+00 -9.71337E-02
    9030.374     32.682   3.320  8.93780E-01  1.00339E+00 -1.09610E-01
    9031.392     33.700   3.360  8.81468E-01  1.00203E+00 -1.20563E-01
    9032.422     34.730   3.400  8.71293E-01  1.00074E+00 -1.29443E-01
    9033.464     35.772   3.440  8.63347E-01  9.99487E-01 -1.36140E-01
    9034.519     36.827   3.480  8.57688E-01  9.98286E-01 -1.40598E-01
    9035.586     37.894   3.520  8.54420E-01  9.97158E-01 -1.42738E-01
    9036.665     38.973   3.560  8.53540E-01  9.96102E-01 -1.42563E-01
    9037.756     40.064   3.600  8.55092E-01  9.95102E-01 -1.40010E-01
    9038.859     41.167   3.640  8.59252E-01  9.94200E-01 -1.34947E-01
    9039.975     42.283   3.680  8.66102E-01  9.93355E-01 -1.27253E-01
    9041.103     43.411   3.720  8.75315E-01  9.92590E-01 -1.17275E-01
    9042.243     44.551   3.760  8.86317E-01  9.91903E-01 -1.05586E-01
    9043.395     45.703   3.800  8.98306E-01  9.91299E-01 -9.29927E-02
    9044.559     46.867   3.840  9.10465E-01  9.90798E-01 -8.03328E-02
    9045.736     48.044   3.880  9.22183E-01  9.90355E-01 -6.81720E-02
    9046.924     49.232   3.920  9.33430E-01  9.89993E-01 -5.65636E-02
    9048.125     50.433   3.960  9.44518E-01  9.89713E-01 -4.51954E-02
    9049.338     51.646   4.000  9.55911E-01  9.89535E-01 -3.36234E-02
    9050.564     52.872   4.040  9.67927E-01  9.89415E-01 -2.14887E-02
    9051.801     54.109   4.080  9.80624E-01  9.89375E-01 -8.75003E-03
    9053.051     55.359   4.120  9.93504E-01  9.89412E-01  4.09185E-03
    9054.313     56.621   4.160  1.00575E+00  9.89528E-01  1.62257E-02
    9055.587     57.895   4.200  1.01650E+00  9.89723E-01  2.67720E-02
    9056.873     59.181   4.240  1.02508E+00  9.89993E-01  3.50885E-02
    9058.171     60.479   4.280  1.03138E+00  9.90312E-01  4.10719E-02
    9059.482     61.790   4.320  1.03581E+00  9.90681E-01  4.51293E-02
    9060.805     63.113   4.360  1.03900E+00  9.91122E-01  4.78817E-02
    9062.140     64.448   4.400  1.04146E+00  9.91633E-01  4.98221E-02
    9063.487     65.795   4.440  1.04357E+00  9.92191E-01  5.13784E-02
    9064.846     67.154   4.480  1.04561E+00  9.92792E-01  5.28152E-02
    9066.218     68.526   4.520  1.04776E+00  9.93435E-01  5.43214E-02
    9067.602     69.910   4.560  1.05014E+00  9.94119E-01  5.60177E-02
    9068.998     71.306   4.600  1.05276E+00  9.94862E-01  5.79004E-02
    9070.406     72.714   4.640  1.05544E+00  9.95599E-01  5.98421E-02
    9071.826     74.134   4.680  1.05810E+00  9.96391E-01  6.17116E-02
    9073.259     75.567   4.720  1.06065E+00  9.97194E-01  6.34520E-02
    9074.704     77.012   4.760  1.06303E+00  9.98027E-01  6.50012E-02
    9076.161     78.469   4.800  1.06507E+00  9.98866E-01  6.62056E-02
    9077.630     79.938   4.840  1.06646E+00  9.99709E-01  6.67549E-02
    9079.111     81.419   4.880  1.06683E+00  1.00057E+00  6.62522E-02
    9080.605     82.913   4.920  1.06585E+00  1.00142E+00  6.44314E-02
    9082.110     84.418   4.960  1.06353E+00  1.00226E+00  6.12733E-02
    9083.628     85.936   5.000  1.06010E+00  1.00309E+00  5.70103E-02
    9085.158     87.466   5.040  1.05602E+00  1.00393E+00  5.20908E-02
    9086.701     89.009   5.080  1.05172E+00  1.00475E+00  4.69672E-02
    9088.255     90.563   5.120  1.04740E+00  1.00552E+00  4.18873E-02
    9089.822     92.130   5.160  1.04302E+00  1.00629E+00  3.67295E-02
    9091.400     93.709   5.200  1.03804E+00  1.00701E+00  3.10265E-02
    9092.992     95.300   5.240  1.03198E+00  1.00772E+00  2.42624E-02
    9094.595     96.903   5.280  1.02457E+00  1.00838E+00  1.61871E-02
    9096.210     98.518   5.320  1.01601E+00  1.00898E+00  7.02759E-03
    9097.838    100.146   5.360  1.00699E+00  1.00956E+00 -2.56734E-03
    9099.478    101.786   5.400  9.98362E-01  1.01009E+00 -1.17321E-02
    9101.130    103.438   5.440  9.90902E-01  1.01056E+00 -1.96597E-02
    9102.794    105.102   5.480  9.85167E-01  1.01098E+00 -2.58162E-02
    9104.470    106.778   5.520  9.81265E-01  1.01136E+00 -3.00924E-02
    9106.159    108.467   5.560  9.78767E-01  1.01166E+00 -3.28957E-02
    9107.860    110.168   5.600  9.76882E-01  1.01192E+00 -3.50378E-02
    9109.573    111.881   5.640  9.74670E-01  1.01213E+00 -3.74590E-02
    9111.298    113.606   5.680  9.71402E-01  1.01227E+00 -4.08656E-02
    9113.035    115.343   5.720  9.66916E-01  1.01236E+00 -4.54413E-02
    9114.785    117.093   5.760  9.61686E-01  1.01237E+00 -5.06888E-02
    9116.546    118.854   5.800  9.56732E-01  1.01234E+00 -5.56101E-02
    9118.320    120.628   5.840  9.53107E-01  1.01224E+00 -5.91328E-02
    9120.106    122.414   5.880  9.51590E-01  1.01209E+00 -6.04982E-02
    9121.905    124.213   5.920  9.52490E-01  1.01187E+00 -5.93753E-02
    9123.715    126.023   5.960  9.55850E-01  1.01159E+00 -5.57395E-02
    9125.538    127.846   6.000  9.61661E-01  1.01119E+00 -4.95324E-02
