# # comment:                                                     FEFF 9.9.1  
# # Source:
# # Structure
# # Reduced
# # space
# # abc:
# # angles:
# # sites:
# # POT  SCF 100  7.0000   0, screened core-hole, AFOLP (folp(0)= 1.150)
# # Abs   Z=29 Rmt= 1.328 Rnm= 1.394 K  shell
# # Pot 1 Z=29 Rmt= 1.327 Rnm= 1.397
# # Pot 2 Z=75 Rmt= 1.147 Rnm= 1.368
# # Pot 3 Z= 8 Rmt= 0.925 Rnm= 1.065
# # Gam_ch=1.729E+00 H-L exch Vi= 0.000E+00 Vr= 0.000E+00
# # Mu=-5.000E+00eV kf=2.337E+00 Vint=-1.563E+01eV Rs_int= 1.552
# FMS rfms= 9.0000
# # PATH  Rmax=-1.000,  Keep_limit= 0.00, Heap_limit 0.00  Pwcrit= 2.50%
#  S02=0.950  Temp=   0.00  Debye_temp=   0.00  Global_sig2= 0.00000
#  Energy zero shift, vr, vi    0.00000E+00   0.00000E+00
#  Curved wave amplitude ratio filter   4.000%
#     file         sig2 tot  cw amp ratio   deg  nlegs   reff  inp sig2
#     0/   0 paths used
#  xsedge+ 50, used to normalize mu           2.4603E-04
#  -----------------------------------------------------------------------
#  omega    e    k    mu    mu0     chi     @#
    8983.281     -8.810  -1.000  5.14700E-02  5.89681E-02 -7.49811E-03
    8983.580     -8.511  -0.960  5.47398E-02  6.34125E-02 -8.67269E-03
    8983.867     -8.224  -0.920  5.83202E-02  6.83654E-02 -1.00452E-02
    8984.141     -7.950  -0.880  6.22527E-02  7.39031E-02 -1.16503E-02
    8984.403     -7.688  -0.840  6.65855E-02  8.01144E-02 -1.35289E-02
    8984.653     -7.438  -0.800  7.13740E-02  8.71024E-02 -1.57284E-02
    8984.891     -7.200  -0.760  7.66817E-02  9.49856E-02 -1.83039E-02
    8985.116     -6.975  -0.720  8.25803E-02  1.03898E-01 -2.13179E-02
    8985.330     -6.761  -0.680  8.91482E-02  1.13988E-01 -2.48397E-02
    8985.531     -6.560  -0.640  9.64678E-02  1.25411E-01 -2.89435E-02
    8985.720     -6.371  -0.600  1.04619E-01  1.38322E-01 -3.37031E-02
    8985.897     -6.195  -0.560  1.13669E-01  1.52853E-01 -3.91837E-02
    8986.061     -6.030  -0.520  1.23654E-01  1.69083E-01 -4.54286E-02
    8986.214     -5.878  -0.480  1.34556E-01  1.86997E-01 -5.24405E-02
    8986.354     -5.737  -0.440  1.46276E-01  2.06436E-01 -6.01602E-02
    8986.482     -5.609  -0.400  1.58612E-01  2.27060E-01 -6.84478E-02
    8986.598     -5.493  -0.360  1.71252E-01  2.48328E-01 -7.70764E-02
    8986.701     -5.390  -0.320  1.83796E-01  2.69541E-01 -8.57456E-02
    8986.793     -5.298  -0.280  1.95805E-01  2.89923E-01 -9.41182E-02
    8986.872     -5.219  -0.240  2.06860E-01  3.08728E-01 -1.01868E-01
    8986.939     -5.152  -0.200  2.16615E-01  3.25335E-01 -1.08720E-01
    8986.994     -5.097  -0.160  2.24815E-01  3.39293E-01 -1.14478E-01
    8987.037     -5.055  -0.120  2.31298E-01  3.50318E-01 -1.19020E-01
    8987.067     -5.024  -0.080  2.35966E-01  3.58254E-01 -1.22288E-01
    8987.091     -5.000   0.000  2.39695E-01  3.64625E-01 -1.24930E-01
    8987.146     -4.945   0.120  2.48125E-01  3.78994E-01 -1.30869E-01
    8987.189     -4.902   0.160  2.54722E-01  3.90135E-01 -1.35414E-01
    8987.244     -4.847   0.200  2.63189E-01  4.04320E-01 -1.41131E-01
    8987.311     -4.780   0.240  2.73491E-01  4.21376E-01 -1.47885E-01
    8987.390     -4.701   0.280  2.85489E-01  4.40893E-01 -1.55404E-01
    8987.482     -4.610   0.320  2.98982E-01  4.62338E-01 -1.63356E-01
    8987.585     -4.506   0.360  3.13742E-01  4.85030E-01 -1.71288E-01
    8987.701     -4.390   0.400  3.29543E-01  5.08292E-01 -1.78749E-01
    8987.829     -4.262   0.440  3.46113E-01  5.31466E-01 -1.85353E-01
    8987.969     -4.122   0.480  3.63152E-01  5.54039E-01 -1.90887E-01
    8988.122     -3.970   0.520  3.80242E-01  5.75698E-01 -1.95456E-01
    8988.286     -3.805   0.560  3.96770E-01  5.96299E-01 -1.99530E-01
    8988.463     -3.628   0.600  4.11806E-01  6.15767E-01 -2.03962E-01
    8988.652     -3.439   0.640  4.24528E-01  6.34214E-01 -2.09686E-01
    8988.853     -3.238   0.680  4.34565E-01  6.51712E-01 -2.17147E-01
    8989.067     -3.025   0.720  4.42632E-01  6.68376E-01 -2.25744E-01
    8989.292     -2.799   0.760  4.50569E-01  6.84320E-01 -2.33751E-01
    8989.530     -2.561   0.800  4.60725E-01  6.99664E-01 -2.38939E-01
    8989.780     -2.311   0.840  4.75252E-01  7.14496E-01 -2.39244E-01
    8990.042     -2.049   0.880  4.95736E-01  7.28885E-01 -2.33148E-01
    8990.316     -1.775   0.920  5.23140E-01  7.42888E-01 -2.19748E-01
    8990.603     -1.488   0.960  5.57889E-01  7.56544E-01 -1.98655E-01
    8990.901     -1.190   1.000  6.00604E-01  7.69863E-01 -1.69258E-01
    8991.212     -0.879   1.040  6.52819E-01  7.82902E-01 -1.30082E-01
    8991.535     -0.556   1.080  7.15853E-01  7.95649E-01 -7.97960E-02
    8991.871     -0.220   1.120  7.87836E-01  8.08108E-01 -2.02726E-02
    8992.218      0.127   1.160  8.60904E-01  8.20274E-01  4.06293E-02
    8992.578      0.487   1.200  9.24456E-01  8.32158E-01  9.22975E-02
    8992.950      0.859   1.240  9.75541E-01  8.43727E-01  1.31814E-01
    8993.334      1.243   1.280  1.02153E+00  8.54985E-01  1.66549E-01
    8993.730      1.639   1.320  1.06853E+00  8.65915E-01  2.02617E-01
    8994.138      2.047   1.360  1.11267E+00  8.76476E-01  2.36191E-01
    8994.559      2.468   1.400  1.14568E+00  8.86709E-01  2.58968E-01
    8994.992      2.901   1.440  1.16629E+00  8.96552E-01  2.69735E-01
    8995.437      3.346   1.480  1.18204E+00  9.06025E-01  2.76019E-01
    8995.894      3.803   1.520  1.20140E+00  9.15084E-01  2.86315E-01
    8996.363      4.272   1.560  1.22808E+00  9.23748E-01  3.04336E-01
    8996.845      4.754   1.600  1.25782E+00  9.31998E-01  3.25822E-01
    8997.339      5.248   1.640  1.28295E+00  9.39831E-01  3.43117E-01
    8997.845      5.754   1.680  1.30183E+00  9.47230E-01  3.54604E-01
    8998.363      6.272   1.720  1.31802E+00  9.54214E-01  3.63802E-01
    8998.893      6.802   1.760  1.33170E+00  9.60764E-01  3.70939E-01
    8999.436      7.345   1.800  1.33642E+00  9.66883E-01  3.69535E-01
    8999.991      7.899   1.840  1.32049E+00  9.72574E-01  3.47914E-01
    9000.557      8.466   1.880  1.27552E+00  9.77861E-01  2.97663E-01
    9001.137      9.045   1.920  1.20644E+00  9.82729E-01  2.23715E-01
    9001.728      9.637   1.960  1.12925E+00  9.87202E-01  1.42047E-01
    9002.331     10.240   2.000  1.06267E+00  9.91269E-01  7.13988E-02
    9002.947     10.856   2.040  1.02210E+00  9.94973E-01  2.71300E-02
    9003.575     11.484   2.080  1.01360E+00  9.98303E-01  1.52989E-02
    9004.215     12.124   2.120  1.03297E+00  1.00127E+00  3.17076E-02
    9004.867     12.776   2.160  1.07177E+00  1.00389E+00  6.78772E-02
    9005.532     13.441   2.200  1.12001E+00  1.00620E+00  1.13813E-01
    9006.208     14.117   2.240  1.16273E+00  1.00819E+00  1.54539E-01
    9006.897     14.806   2.280  1.18352E+00  1.00989E+00  1.73635E-01
    9007.598     15.507   2.320  1.17573E+00  1.01132E+00  1.64411E-01
    9008.312     16.220   2.360  1.14593E+00  1.01247E+00  1.33455E-01
    9009.037     16.946   2.400  1.10589E+00  1.01340E+00  9.24905E-02
    9009.775     17.683   2.440  1.06359E+00  1.01409E+00  4.95057E-02
    9010.524     18.433   2.480  1.02070E+00  1.01457E+00  6.13554E-03
    9011.286     19.195   2.520  9.75934E-01  1.01486E+00 -3.89288E-02
    9012.061     19.969   2.560  9.29094E-01  1.01497E+00 -8.58730E-02
    9012.847     20.756   2.600  8.84271E-01  1.01493E+00 -1.30655E-01
    9013.645     21.554   2.640  8.45982E-01  1.01473E+00 -1.68745E-01
    9014.456     22.365   2.680  8.17749E-01  1.01440E+00 -1.96650E-01
    9015.279     23.188   2.720  8.03022E-01  1.01395E+00 -2.10926E-01
    9016.114     24.023   2.760  8.07799E-01  1.01338E+00 -2.05584E-01
    9016.962     24.871   2.800  8.17650E-01  1.01275E+00 -1.95100E-01
    9017.821     25.730   2.840  8.28613E-01  1.01204E+00 -1.83422E-01
    9018.693     26.602   2.880  8.39615E-01  1.01125E+00 -1.71631E-01
    9019.577     27.486   2.920  8.50865E-01  1.01041E+00 -1.59542E-01
    9020.473     28.382   2.960  8.62885E-01  1.00952E+00 -1.46640E-01
    9021.381     29.290   3.000  8.75687E-01  1.00860E+00 -1.32916E-01
    9022.302     30.211   3.040  8.88953E-01  1.00767E+00 -1.18716E-01
    9023.234     31.143   3.080  9.02280E-01  1.00670E+00 -1.04424E-01
    9024.179     32.088   3.120  9.15244E-01  1.00574E+00 -9.04930E-02
    9025.136     33.045   3.160  9.27604E-01  1.00479E+00 -7.71858E-02
    9026.106     34.015   3.200  9.39559E-01  1.00385E+00 -6.42880E-02
    9027.087     34.996   3.240  9.51202E-01  1.00291E+00 -5.17083E-02
    9028.081     35.990   3.280  9.62426E-01  1.00200E+00 -3.95787E-02
    9029.087     36.995   3.320  9.73241E-01  1.00113E+00 -2.78905E-02
    9030.105     38.013   3.360  9.83701E-01  1.00027E+00 -1.65714E-02
    9031.135     39.044   3.400  9.93850E-01  9.99452E-01 -5.60145E-03
    9032.177     40.086   3.440  1.00386E+00  9.98692E-01  5.16952E-03
    9033.232     41.141   3.480  1.01401E+00  9.97974E-01  1.60328E-02
    9034.299     42.208   3.520  1.02421E+00  9.97279E-01  2.69262E-02
    9035.378     43.286   3.560  1.03424E+00  9.96669E-01  3.75692E-02
    9036.469     44.378   3.600  1.04365E+00  9.96083E-01  4.75664E-02
    9037.572     45.481   3.640  1.05207E+00  9.95565E-01  5.65060E-02
    9038.688     46.597   3.680  1.05907E+00  9.95093E-01  6.39748E-02
    9039.816     47.724   3.720  1.06455E+00  9.94690E-01  6.98623E-02
    9040.955     48.864   3.760  1.06861E+00  9.94334E-01  7.42790E-02
    9042.108     50.016   3.800  1.07146E+00  9.94026E-01  7.74302E-02
    9043.272     51.181   3.840  1.07340E+00  9.93787E-01  7.96163E-02
    9044.448     52.357   3.880  1.07481E+00  9.93619E-01  8.11940E-02
    9045.637     53.546   3.920  1.07588E+00  9.93495E-01  8.23896E-02
    9046.838     54.747   3.960  1.07660E+00  9.93419E-01  8.31817E-02
    9048.051     55.960   4.000  1.07672E+00  9.93387E-01  8.33306E-02
    9049.276     57.185   4.040  1.07584E+00  9.93421E-01  8.24183E-02
    9050.514     58.423   4.080  1.07350E+00  9.93500E-01  7.99985E-02
    9051.764     59.672   4.120  1.06937E+00  9.93624E-01  7.57465E-02
    9053.025     60.934   4.160  1.06341E+00  9.93811E-01  6.96007E-02
    9054.300     62.208   4.200  1.05558E+00  9.94017E-01  6.15620E-02
    9055.586     63.495   4.240  1.04607E+00  9.94284E-01  5.17846E-02
    9056.884     64.793   4.280  1.03519E+00  9.94567E-01  4.06227E-02
    9058.195     66.104   4.320  1.02345E+00  9.94887E-01  2.85655E-02
    9059.518     67.427   4.360  1.01142E+00  9.95243E-01  1.61810E-02
    9060.853     68.762   4.400  9.99736E-01  9.95636E-01  4.09982E-03
    9062.200     70.109   4.440  9.88940E-01  9.96061E-01 -7.12105E-03
    9063.559     71.468   4.480  9.79412E-01  9.96495E-01 -1.70834E-02
    9064.931     72.840   4.520  9.71370E-01  9.96936E-01 -2.55654E-02
    9066.315     74.224   4.560  9.64811E-01  9.97403E-01 -3.25924E-02
    9067.711     75.620   4.600  9.59502E-01  9.97874E-01 -3.83722E-02
    9069.119     77.028   4.640  9.55204E-01  9.98348E-01 -4.31438E-02
    9070.539     78.448   4.680  9.51779E-01  9.98824E-01 -4.70446E-02
    9071.972     79.881   4.720  9.49237E-01  9.99322E-01 -5.00850E-02
    9073.417     81.325   4.760  9.47650E-01  9.99796E-01 -5.21459E-02
    9074.873     82.782   4.800  9.47139E-01  1.00027E+00 -5.31264E-02
    9076.343     84.251   4.840  9.47684E-01  1.00073E+00 -5.30468E-02
    9077.824     85.733   4.880  9.49180E-01  1.00119E+00 -5.20094E-02
    9079.317     87.226   4.920  9.51491E-01  1.00162E+00 -5.01276E-02
    9080.823     88.732   4.960  9.54573E-01  1.00204E+00 -4.74656E-02
    9082.341     90.250   5.000  9.58382E-01  1.00242E+00 -4.40425E-02
    9083.871     91.780   5.040  9.62870E-01  1.00280E+00 -3.99298E-02
    9085.413     93.322   5.080  9.67878E-01  1.00314E+00 -3.52613E-02
    9086.968     94.877   5.120  9.73221E-01  1.00344E+00 -3.02195E-02
    9088.535     96.443   5.160  9.78675E-01  1.00371E+00 -2.50304E-02
    9090.113     98.022   5.200  9.84051E-01  1.00396E+00 -1.99048E-02
    9091.704     99.613   5.240  9.89131E-01  1.00417E+00 -1.50383E-02
    9093.308    101.217   5.280  9.93777E-01  1.00434E+00 -1.05647E-02
    9094.923    102.832   5.320  9.97899E-01  1.00447E+00 -6.57525E-03
    9096.551    104.460   5.360  1.00141E+00  1.00456E+00 -3.15757E-03
    9098.191    106.099   5.400  1.00419E+00  1.00461E+00 -4.23910E-04
    9099.843    107.751   5.440  1.00614E+00  1.00460E+00  1.54604E-03
    9101.507    109.416   5.480  1.00737E+00  1.00456E+00  2.80607E-03
    9103.183    111.092   5.520  1.00812E+00  1.00449E+00  3.62990E-03
    9104.872    112.781   5.560  1.00888E+00  1.00437E+00  4.51069E-03
    9106.573    114.481   5.600  1.01024E+00  1.00422E+00  6.02302E-03
    9108.285    116.194   5.640  1.01258E+00  1.00402E+00  8.56143E-03
    9110.011    117.920   5.680  1.01591E+00  1.00376E+00  1.21572E-02
    9111.748    119.657   5.720  1.01999E+00  1.00348E+00  1.65124E-02
    9113.498    121.406   5.760  1.02435E+00  1.00316E+00  2.11911E-02
    9115.259    123.168   5.800  1.02862E+00  1.00281E+00  2.58133E-02
    9117.033    124.942   5.840  1.03254E+00  1.00241E+00  3.01208E-02
    9118.819    126.728   5.880  1.03588E+00  1.00199E+00  3.38940E-02
    9120.618    128.526   5.920  1.03835E+00  1.00153E+00  3.68256E-02
    9122.428    130.337   5.960  1.03950E+00  1.00106E+00  3.84314E-02
    9124.251    132.160   6.000  1.03855E+00  1.00052E+00  3.80371E-02
