# # comment:                                                     FEFF 9.9.1  
# # Source:
# # Structure
# # Reduced
# # space
# # abc:
# # angles:
# # sites:
# # POT  SCF 100  7.0000   0, screened core-hole, AFOLP (folp(0)= 1.150)
# # Abs   Z=29 Rmt= 1.166 Rnm= 1.287 K  shell
# # Pot 1 Z=56 Rmt= 1.940 Rnm= 1.999
# # Pot 2 Z=68 Rmt= 1.617 Rnm= 1.694
# # Pot 3 Z=29 Rmt= 1.166 Rnm= 1.287
# # Pot 4 Z= 8 Rmt= 1.078 Rnm= 1.131
# # Gam_ch=1.729E+00 H-L exch Vi= 0.000E+00 Vr= 0.000E+00
# # Mu=-8.900E+00eV kf=2.012E+00 Vint=-1.757E+01eV Rs_int= 1.803
# FMS rfms= 9.0000
# # PATH  Rmax=-1.000,  Keep_limit= 0.00, Heap_limit 0.00  Pwcrit= 2.50%
#  S02=0.950  Temp=   0.00  Debye_temp=   0.00  Global_sig2= 0.00000
#  Energy zero shift, vr, vi    0.00000E+00   0.00000E+00
#  Curved wave amplitude ratio filter   4.000%
#     file         sig2 tot  cw amp ratio   deg  nlegs   reff  inp sig2
#     0/   0 paths used
#  xsedge+ 50, used to normalize mu           2.4728E-04
#  -----------------------------------------------------------------------
#  omega    e    k    mu    mu0     chi     @#
    8984.443    -12.710  -1.000  3.61952E-02  5.37195E-02 -1.75242E-02
    8984.742    -12.411  -0.960  3.81652E-02  5.75977E-02 -1.94325E-02
    8985.029    -12.125  -0.920  4.03191E-02  6.19046E-02 -2.15855E-02
    8985.303    -11.850  -0.880  4.26851E-02  6.67029E-02 -2.40178E-02
    8985.565    -11.588  -0.840  4.52965E-02  7.20656E-02 -2.67691E-02
    8985.815    -11.338  -0.800  4.81932E-02  7.80776E-02 -2.98844E-02
    8986.053    -11.100  -0.760  5.14216E-02  8.48358E-02 -3.34141E-02
    8986.278    -10.875  -0.720  5.50358E-02  9.24499E-02 -3.74142E-02
    8986.492    -10.662  -0.680  5.90963E-02  1.01041E-01 -4.19444E-02
    8986.693    -10.460  -0.640  6.36689E-02  1.10736E-01 -4.70668E-02
    8986.882    -10.271  -0.600  6.88191E-02  1.21660E-01 -5.28405E-02
    8987.059    -10.095  -0.560  7.46045E-02  1.33919E-01 -5.93147E-02
    8987.223     -9.930  -0.520  8.10603E-02  1.47577E-01 -6.65172E-02
    8987.376     -9.778  -0.480  8.81806E-02  1.62620E-01 -7.44393E-02
    8987.516     -9.637  -0.440  9.58961E-02  1.78915E-01 -8.30184E-02
    8987.644     -9.509  -0.400  1.04056E-01  1.96178E-01 -9.21225E-02
    8987.760     -9.394  -0.360  1.12424E-01  2.13967E-01 -1.01544E-01
    8987.863     -9.290  -0.320  1.20697E-01  2.31704E-01 -1.11007E-01
    8987.955     -9.198  -0.280  1.28551E-01  2.48748E-01 -1.20197E-01
    8988.034     -9.119  -0.240  1.35689E-01  2.64481E-01 -1.28792E-01
    8988.101     -9.052  -0.200  1.41886E-01  2.78387E-01 -1.36501E-01
    8988.156     -8.997  -0.160  1.47002E-01  2.90087E-01 -1.43085E-01
    8988.198     -8.955  -0.120  1.50969E-01  2.99337E-01 -1.48368E-01
    8988.229     -8.924  -0.080  1.53770E-01  3.06002E-01 -1.52233E-01
    8988.253     -8.900   0.000  1.55935E-01  3.11358E-01 -1.55423E-01
    8988.308     -8.845   0.120  1.60948E-01  3.23442E-01 -1.62494E-01
    8988.351     -8.802   0.160  1.64797E-01  3.32830E-01 -1.68033E-01
    8988.406     -8.747   0.200  1.69616E-01  3.44836E-01 -1.75219E-01
    8988.473     -8.680   0.240  1.75187E-01  3.59261E-01 -1.84074E-01
    8988.552     -8.601   0.280  1.81299E-01  3.75864E-01 -1.94566E-01
    8988.643     -8.510   0.320  1.87561E-01  3.94191E-01 -2.06630E-01
    8988.747     -8.406   0.360  1.93542E-01  4.13726E-01 -2.20184E-01
    8988.863     -8.290   0.400  1.98769E-01  4.33941E-01 -2.35171E-01
    8988.991     -8.162   0.440  2.02656E-01  4.54294E-01 -2.51638E-01
    8989.131     -8.022   0.480  2.04689E-01  4.74398E-01 -2.69709E-01
    8989.284     -7.870   0.520  2.04567E-01  4.94006E-01 -2.89438E-01
    8989.448     -7.705   0.560  2.02498E-01  5.13004E-01 -3.10506E-01
    8989.625     -7.528   0.600  1.99288E-01  5.31341E-01 -3.32053E-01
    8989.814     -7.339   0.640  1.96201E-01  5.49072E-01 -3.52871E-01
    8990.015     -7.138   0.680  1.94504E-01  5.66267E-01 -3.71763E-01
    8990.228     -6.925   0.720  1.95123E-01  5.83029E-01 -3.87906E-01
    8990.454     -6.699   0.760  1.98524E-01  5.99420E-01 -4.00895E-01
    8990.692     -6.461   0.800  2.04843E-01  6.15531E-01 -4.10688E-01
    8990.942     -6.211   0.840  2.13919E-01  6.31422E-01 -4.17503E-01
    8991.204     -5.949   0.880  2.25706E-01  6.47139E-01 -4.21433E-01
    8991.478     -5.675   0.920  2.40718E-01  6.62696E-01 -4.21978E-01
    8991.765     -5.389   0.960  2.60432E-01  6.78152E-01 -4.17720E-01
    8992.063     -5.090   1.000  2.86571E-01  6.93458E-01 -4.06887E-01
    8992.374     -4.779   1.040  3.20213E-01  7.08676E-01 -3.88463E-01
    8992.697     -4.456   1.080  3.59949E-01  7.23739E-01 -3.63790E-01
    8993.033     -4.121   1.120  4.01646E-01  7.38678E-01 -3.37032E-01
    8993.380     -3.773   1.160  4.43366E-01  7.53453E-01 -3.10087E-01
    8993.740     -3.413   1.200  4.90097E-01  7.68024E-01 -2.77928E-01
    8994.112     -3.042   1.240  5.44711E-01  7.82387E-01 -2.37676E-01
    8994.496     -2.658   1.280  5.97165E-01  7.96515E-01 -1.99350E-01
    8994.892     -2.261   1.320  6.31485E-01  8.10361E-01 -1.78876E-01
    8995.300     -1.853   1.360  6.42952E-01  8.23915E-01 -1.80963E-01
    8995.721     -1.432   1.400  6.44343E-01  8.37127E-01 -1.92785E-01
    8996.154     -0.999   1.440  6.53717E-01  8.49987E-01 -1.96270E-01
    8996.599     -0.554   1.480  6.70300E-01  8.62444E-01 -1.92144E-01
    8997.056     -0.097   1.520  6.74347E-01  8.74509E-01 -2.00163E-01
    8997.525      0.372   1.560  6.62539E-01  8.86135E-01 -2.23595E-01
    8998.007      0.854   1.600  6.57979E-01  8.97290E-01 -2.39311E-01
    8998.501      1.348   1.640  6.87371E-01  9.07970E-01 -2.20598E-01
    8999.007      1.854   1.680  7.71347E-01  9.18167E-01 -1.46820E-01
    8999.525      2.372   1.720  9.12121E-01  9.27859E-01 -1.57374E-02
    9000.055      2.902   1.760  1.05989E+00  9.37061E-01  1.22832E-01
    9000.598      3.445   1.800  1.14717E+00  9.45711E-01  2.01462E-01
    9001.152      3.999   1.840  1.18270E+00  9.53869E-01  2.28829E-01
    9001.719      4.566   1.880  1.21636E+00  9.61495E-01  2.54870E-01
    9002.298      5.145   1.920  1.28272E+00  9.68592E-01  3.14131E-01
    9002.890      5.737   1.960  1.35523E+00  9.75202E-01  3.80026E-01
    9003.493      6.340   2.000  1.37019E+00  9.81288E-01  3.88905E-01
    9004.109      6.956   2.040  1.33956E+00  9.86878E-01  3.52677E-01
    9004.737      7.584   2.080  1.32379E+00  9.91975E-01  3.31818E-01
    9005.377      8.224   2.120  1.34649E+00  9.96587E-01  3.49902E-01
    9006.029      8.876   2.160  1.38004E+00  1.00076E+00  3.79274E-01
    9006.694      9.541   2.200  1.37479E+00  1.00449E+00  3.70296E-01
    9007.370     10.217   2.240  1.31712E+00  1.00778E+00  3.09337E-01
    9008.059     10.906   2.280  1.23862E+00  1.01068E+00  2.27941E-01
    9008.760     11.607   2.320  1.16936E+00  1.01318E+00  1.56180E-01
    9009.473     12.320   2.360  1.12035E+00  1.01531E+00  1.05041E-01
    9010.199     13.046   2.400  1.09596E+00  1.01710E+00  7.88600E-02
    9010.936     13.783   2.440  1.09897E+00  1.01854E+00  8.04280E-02
    9011.686     14.533   2.480  1.10875E+00  1.01968E+00  8.90667E-02
    9012.448     15.295   2.520  1.11221E+00  1.02053E+00  9.16806E-02
    9013.222     16.069   2.560  1.10584E+00  1.02113E+00  8.47168E-02
    9014.009     16.856   2.600  1.09174E+00  1.02145E+00  7.02850E-02
    9014.807     17.654   2.640  1.07379E+00  1.02156E+00  5.22312E-02
    9015.618     18.465   2.680  1.05505E+00  1.02144E+00  3.36194E-02
    9016.441     19.288   2.720  1.03789E+00  1.02113E+00  1.67519E-02
    9017.276     20.123   2.760  1.02333E+00  1.02066E+00  2.66722E-03
    9018.124     20.970   2.800  1.01092E+00  1.02003E+00 -9.11292E-03
    9018.983     21.830   2.840  1.00003E+00  1.01927E+00 -1.92335E-02
    9019.855     22.702   2.880  9.90089E-01  1.01836E+00 -2.82700E-02
    9020.739     23.586   2.920  9.80766E-01  1.01735E+00 -3.65881E-02
    9021.635     24.482   2.960  9.71841E-01  1.01626E+00 -4.44195E-02
    9022.543     25.390   3.000  9.63219E-01  1.01508E+00 -5.18662E-02
    9023.464     26.311   3.040  9.54792E-01  1.01383E+00 -5.90408E-02
    9024.396     27.243   3.080  9.46457E-01  1.01253E+00 -6.60754E-02
    9025.341     28.188   3.120  9.38119E-01  1.01117E+00 -7.30496E-02
    9026.298     29.145   3.160  9.29547E-01  1.00981E+00 -8.02609E-02
    9027.268     30.114   3.200  9.20429E-01  1.00840E+00 -8.79661E-02
    9028.249     31.096   3.240  9.10691E-01  1.00700E+00 -9.63052E-02
    9029.243     32.090   3.280  9.00120E-01  1.00558E+00 -1.05456E-01
    9030.249     33.095   3.320  8.88825E-01  1.00418E+00 -1.15353E-01
    9031.267     34.113   3.360  8.77466E-01  1.00279E+00 -1.25320E-01
    9032.297     35.144   3.400  8.67425E-01  1.00142E+00 -1.34000E-01
    9033.339     36.186   3.440  8.59786E-01  1.00007E+00 -1.40289E-01
    9034.394     37.241   3.480  8.55324E-01  9.98762E-01 -1.43438E-01
    9035.461     38.307   3.520  8.54398E-01  9.97509E-01 -1.43111E-01
    9036.540     39.386   3.560  8.56998E-01  9.96277E-01 -1.39279E-01
    9037.631     40.478   3.600  8.63002E-01  9.95108E-01 -1.32106E-01
    9038.734     41.581   3.640  8.72437E-01  9.93987E-01 -1.21550E-01
    9039.850     42.697   3.680  8.85395E-01  9.92912E-01 -1.07517E-01
    9040.977     43.824   3.720  9.01682E-01  9.91906E-01 -9.02237E-02
    9042.117     44.964   3.760  9.20695E-01  9.90972E-01 -7.02764E-02
    9043.270     46.116   3.800  9.41343E-01  9.90089E-01 -4.87457E-02
    9044.434     47.281   3.840  9.62142E-01  9.89278E-01 -2.71354E-02
    9045.610     48.457   3.880  9.81469E-01  9.88518E-01 -7.04923E-03
    9046.799     49.646   3.920  9.98118E-01  9.87833E-01  1.02856E-02
    9048.000     50.847   3.960  1.01141E+00  9.87223E-01  2.41904E-02
    9049.213     52.060   4.000  1.02141E+00  9.86686E-01  3.47287E-02
    9050.438     53.285   4.040  1.02892E+00  9.86203E-01  4.27156E-02
    9051.676     54.523   4.080  1.03511E+00  9.85793E-01  4.93187E-02
    9052.926     55.772   4.120  1.04101E+00  9.85459E-01  5.55515E-02
    9054.187     57.034   4.160  1.04711E+00  9.85175E-01  6.19350E-02
    9055.461     58.308   4.200  1.05317E+00  9.84965E-01  6.82010E-02
    9056.748     59.595   4.240  1.05815E+00  9.84827E-01  7.33268E-02
    9058.046     60.893   4.280  1.06081E+00  9.84740E-01  7.60735E-02
    9059.357     62.204   4.320  1.06043E+00  9.84724E-01  7.57024E-02
    9060.680     63.526   4.360  1.05703E+00  9.84756E-01  7.22750E-02
    9062.015     64.861   4.400  1.05153E+00  9.84857E-01  6.66760E-02
    9063.362     66.209   4.440  1.04528E+00  9.85003E-01  6.02761E-02
    9064.721     67.568   4.480  1.03967E+00  9.85192E-01  5.44802E-02
    9066.093     68.940   4.520  1.03581E+00  9.85425E-01  5.03821E-02
    9067.477     70.323   4.560  1.03434E+00  9.85720E-01  4.86163E-02
    9068.873     71.719   4.600  1.03520E+00  9.86036E-01  4.91647E-02
    9070.281     73.128   4.640  1.03769E+00  9.86411E-01  5.12830E-02
    9071.701     74.548   4.680  1.04049E+00  9.86802E-01  5.36890E-02
    9073.134     75.981   4.720  1.04228E+00  9.87229E-01  5.50468E-02
    9074.578     77.425   4.760  1.04208E+00  9.87691E-01  5.43891E-02
    9076.035     78.882   4.800  1.03942E+00  9.88186E-01  5.12302E-02
    9077.505     80.351   4.840  1.03421E+00  9.88690E-01  4.55217E-02
    9078.986     81.833   4.880  1.02682E+00  9.89200E-01  3.76237E-02
    9080.479     83.326   4.920  1.01799E+00  9.89738E-01  2.82468E-02
    9081.985     84.832   4.960  1.00857E+00  9.90279E-01  1.82867E-02
    9083.503     86.350   5.000  9.99494E-01  9.90822E-01  8.67157E-03
    9085.033     87.880   5.040  9.91550E-01  9.91368E-01  1.82068E-04
    9086.575     89.422   5.080  9.85224E-01  9.91936E-01 -6.71150E-03
    9088.130     90.977   5.120  9.80646E-01  9.92479E-01 -1.18331E-02
    9089.696     92.543   5.160  9.77791E-01  9.93016E-01 -1.52257E-02
    9091.275     94.122   5.200  9.76364E-01  9.93549E-01 -1.71847E-02
    9092.866     95.713   5.240  9.75582E-01  9.94051E-01 -1.84692E-02
    9094.470     97.316   5.280  9.74341E-01  9.94545E-01 -2.02037E-02
    9096.085     98.932   5.320  9.71754E-01  9.95006E-01 -2.32523E-02
    9097.713    100.560   5.360  9.67959E-01  9.95456E-01 -2.74970E-02
    9099.352    102.199   5.400  9.64008E-01  9.95874E-01 -3.18652E-02
    9101.005    103.851   5.440  9.61118E-01  9.96276E-01 -3.51586E-02
    9102.669    105.516   5.480  9.59815E-01  9.96621E-01 -3.68057E-02
    9104.345    107.192   5.520  9.60075E-01  9.96948E-01 -3.68738E-02
    9106.034    108.881   5.560  9.61672E-01  9.97239E-01 -3.55669E-02
    9107.734    110.581   5.600  9.64706E-01  9.97490E-01 -3.27840E-02
    9109.447    112.294   5.640  9.69434E-01  9.97700E-01 -2.82654E-02
    9111.173    114.019   5.680  9.76012E-01  9.97870E-01 -2.18581E-02
    9112.910    115.757   5.720  9.83706E-01  9.97998E-01 -1.42919E-02
    9114.659    117.506   5.760  9.90923E-01  9.98084E-01 -7.16040E-03
    9116.421    119.268   5.800  9.95637E-01  9.98105E-01 -2.46810E-03
    9118.195    121.042   5.840  9.96224E-01  9.98110E-01 -1.88546E-03
    9119.981    122.828   5.880  9.92030E-01  9.98072E-01 -6.04228E-03
    9121.780    124.626   5.920  9.83863E-01  9.97968E-01 -1.41048E-02
    9123.590    126.437   5.960  9.73981E-01  9.97815E-01 -2.38340E-02
    9125.413    128.260   6.000  9.64808E-01  9.97589E-01 -3.27801E-02
