# # comment:                                                     FEFF 9.9.1  
# # Source:
# # Structure
# # Reduced
# # space
# # abc:
# # angles:
# # sites:
# # POT  SCF 100  7.0000   0, screened core-hole, AFOLP (folp(0)= 1.150)
# # Abs   Z=29 Rmt= 1.253 Rnm= 1.346 K  shell
# # Pot 1 Z=29 Rmt= 1.242 Rnm= 1.341
# # Pot 2 Z=78 Rmt= 1.332 Rnm= 1.464
# # Pot 3 Z= 8 Rmt= 1.022 Rnm= 1.111
# # Gam_ch=1.729E+00 H-L exch Vi= 0.000E+00 Vr= 0.000E+00
# # Mu=-6.728E+00eV kf=2.142E+00 Vint=-1.473E+01eV Rs_int= 1.693
# FMS rfms= 9.0000
# # PATH  Rmax=-1.000,  Keep_limit= 0.00, Heap_limit 0.00  Pwcrit= 2.50%
#  S02=0.950  Temp=   0.00  Debye_temp=   0.00  Global_sig2= 0.00000
#  Energy zero shift, vr, vi    0.00000E+00   0.00000E+00
#  Curved wave amplitude ratio filter   4.000%
#     file         sig2 tot  cw amp ratio   deg  nlegs   reff  inp sig2
#     0/   0 paths used
#  xsedge+ 50, used to normalize mu           2.4451E-04
#  -----------------------------------------------------------------------
#  omega    e    k    mu    mu0     chi     @#
    8983.480    -10.538  -1.000  3.94607E-02  5.57407E-02 -1.62800E-02
    8983.779    -10.239  -0.960  4.16086E-02  5.98207E-02 -1.82120E-02
    8984.065     -9.953  -0.920  4.39281E-02  6.43549E-02 -2.04268E-02
    8984.340     -9.679  -0.880  4.64376E-02  6.94100E-02 -2.29724E-02
    8984.602     -9.416  -0.840  4.91577E-02  7.50636E-02 -2.59059E-02
    8984.852     -9.167  -0.800  5.21110E-02  8.14054E-02 -2.92944E-02
    8985.089     -8.929  -0.760  5.53225E-02  8.85386E-02 -3.32161E-02
    8985.315     -8.703  -0.720  5.88188E-02  9.65795E-02 -3.77608E-02
    8985.528     -8.490  -0.680  6.26274E-02  1.05656E-01 -4.30287E-02
    8985.730     -8.289  -0.640  6.67754E-02  1.15904E-01 -4.91281E-02
    8985.918     -8.100  -0.600  7.12868E-02  1.27454E-01 -5.61675E-02
    8986.095     -7.923  -0.560  7.61780E-02  1.40422E-01 -6.42436E-02
    8986.260     -7.758  -0.520  8.14516E-02  1.54872E-01 -7.34205E-02
    8986.412     -7.606  -0.480  8.70886E-02  1.70791E-01 -8.37023E-02
    8986.552     -7.466  -0.440  9.30383E-02  1.88038E-01 -9.49998E-02
    8986.680     -7.338  -0.400  9.92116E-02  2.06315E-01 -1.07103E-01
    8986.796     -7.222  -0.360  1.05478E-01  2.25150E-01 -1.19672E-01
    8986.900     -7.118  -0.320  1.11674E-01  2.43933E-01 -1.32259E-01
    8986.991     -7.027  -0.280  1.17618E-01  2.61985E-01 -1.44367E-01
    8987.071     -6.948  -0.240  1.23130E-01  2.78651E-01 -1.55521E-01
    8987.138     -6.881  -0.200  1.28051E-01  2.93385E-01 -1.65334E-01
    8987.193     -6.826  -0.160  1.32249E-01  3.05782E-01 -1.73534E-01
    8987.235     -6.783  -0.120  1.35619E-01  3.15586E-01 -1.79967E-01
    8987.266     -6.753  -0.080  1.38084E-01  3.22651E-01 -1.84566E-01
    8987.290     -6.728   0.000  1.40105E-01  3.28329E-01 -1.88224E-01
    8987.345     -6.673   0.120  1.44845E-01  3.41126E-01 -1.96281E-01
    8987.388     -6.631   0.160  1.48548E-01  3.51082E-01 -2.02534E-01
    8987.442     -6.576   0.200  1.53386E-01  3.63804E-01 -2.10418E-01
    8987.510     -6.509   0.240  1.59417E-01  3.79105E-01 -2.19688E-01
    8987.589     -6.429   0.280  1.66747E-01  3.96711E-01 -2.29964E-01
    8987.680     -6.338   0.320  1.75463E-01  4.16146E-01 -2.40682E-01
    8987.784     -6.234   0.360  1.85757E-01  4.36908E-01 -2.51151E-01
    8987.900     -6.119   0.400  1.97818E-01  4.58358E-01 -2.60540E-01
    8988.028     -5.991   0.440  2.11989E-01  4.79987E-01 -2.67998E-01
    8988.168     -5.850   0.480  2.28622E-01  5.01364E-01 -2.72742E-01
    8988.320     -5.698   0.520  2.48162E-01  5.22206E-01 -2.74044E-01
    8988.485     -5.533   0.560  2.71019E-01  5.42371E-01 -2.71351E-01
    8988.662     -5.357   0.600  2.97556E-01  5.61841E-01 -2.64285E-01
    8988.851     -5.168   0.640  3.27765E-01  5.80652E-01 -2.52887E-01
    8989.052     -4.966   0.680  3.60744E-01  5.98872E-01 -2.38128E-01
    8989.265     -4.753   0.720  3.93995E-01  6.16565E-01 -2.22570E-01
    8989.491     -4.527   0.760  4.23047E-01  6.33831E-01 -2.10784E-01
    8989.728     -4.290   0.800  4.43034E-01  6.50723E-01 -2.07689E-01
    8989.978     -4.040   0.840  4.52654E-01  6.67298E-01 -2.14644E-01
    8990.241     -3.778   0.880  4.56046E-01  6.83600E-01 -2.27554E-01
    8990.515     -3.503   0.920  4.58135E-01  6.99659E-01 -2.41524E-01
    8990.801     -3.217   0.960  4.58028E-01  7.15473E-01 -2.57445E-01
    8991.100     -2.918   1.000  4.49057E-01  7.31028E-01 -2.81971E-01
    8991.411     -2.607   1.040  4.27320E-01  7.46343E-01 -3.19023E-01
    8991.734     -2.284   1.080  3.98798E-01  7.61392E-01 -3.62594E-01
    8992.069     -1.949   1.120  3.74027E-01  7.76158E-01 -4.02131E-01
    8992.417     -1.601   1.160  3.60034E-01  7.90622E-01 -4.30588E-01
    8992.776     -1.242   1.200  3.59802E-01  8.04721E-01 -4.44919E-01
    8993.148     -0.870   1.240  3.74620E-01  8.18473E-01 -4.43853E-01
    8993.532     -0.486   1.280  4.04421E-01  8.31829E-01 -4.27408E-01
    8993.929     -0.090   1.320  4.47190E-01  8.44763E-01 -3.97573E-01
    8994.337      0.319   1.360  4.97754E-01  8.57227E-01 -3.59473E-01
    8994.758      0.739   1.400  5.48099E-01  8.69236E-01 -3.21136E-01
    8995.190      1.172   1.440  5.93035E-01  8.80741E-01 -2.87706E-01
    8995.635      1.617   1.480  6.36669E-01  8.91736E-01 -2.55067E-01
    8996.093      2.074   1.520  6.89344E-01  9.02218E-01 -2.12874E-01
    8996.562      2.544   1.560  7.60397E-01  9.12144E-01 -1.51747E-01
    8997.044      3.025   1.600  8.53773E-01  9.21510E-01 -6.77367E-02
    8997.537      3.519   1.640  9.66652E-01  9.30336E-01  3.63152E-02
    8998.043      4.025   1.680  1.09833E+00  9.38607E-01  1.59728E-01
    8998.562      4.543   1.720  1.25448E+00  9.46321E-01  3.08160E-01
    8999.092      5.074   1.760  1.43012E+00  9.53504E-01  4.76614E-01
    8999.634      5.616   1.800  1.59834E+00  9.60143E-01  6.38199E-01
    9000.189      6.171   1.840  1.71218E+00  9.66241E-01  7.45943E-01
    9000.756      6.738   1.880  1.73249E+00  9.71827E-01  7.60666E-01
    9001.335      7.317   1.920  1.66305E+00  9.76911E-01  6.86135E-01
    9001.927      7.908   1.960  1.54646E+00  9.81523E-01  5.64933E-01
    9002.530      8.512   2.000  1.43077E+00  9.85670E-01  4.45096E-01
    9003.146      9.127   2.040  1.34464E+00  9.89367E-01  3.55270E-01
    9003.774      9.755   2.080  1.28144E+00  9.92664E-01  2.88776E-01
    9004.414     10.395   2.120  1.20269E+00  9.95552E-01  2.07136E-01
    9005.066     11.048   2.160  1.11064E+00  9.98042E-01  1.12593E-01
    9005.730     11.712   2.200  1.04268E+00  1.00021E+00  4.24748E-02
    9006.407     12.389   2.240  1.01214E+00  1.00202E+00  1.01170E-02
    9007.096     13.078   2.280  1.01183E+00  1.00356E+00  8.27020E-03
    9007.797     13.779   2.320  1.02824E+00  1.00478E+00  2.34589E-02
    9008.510     14.492   2.360  1.04603E+00  1.00575E+00  4.02761E-02
    9009.236     15.217   2.400  1.05199E+00  1.00650E+00  4.54893E-02
    9009.973     15.955   2.440  1.04184E+00  1.00701E+00  3.48227E-02
    9010.723     16.705   2.480  1.01712E+00  1.00734E+00  9.77401E-03
    9011.485     17.467   2.520  9.88169E-01  1.00750E+00 -1.93305E-02
    9012.259     18.241   2.560  9.72181E-01  1.00748E+00 -3.52938E-02
    9013.046     19.027   2.600  9.71728E-01  1.00734E+00 -3.56100E-02
    9013.844     19.826   2.640  9.78381E-01  1.00708E+00 -2.86971E-02
    9014.655     20.637   2.680  9.86646E-01  1.00670E+00 -2.00555E-02
    9015.478     21.460   2.720  9.93505E-01  1.00624E+00 -1.27323E-02
    9016.313     22.295   2.760  9.96822E-01  1.00569E+00 -8.87271E-03
    9017.160     23.142   2.800  9.95526E-01  1.00512E+00 -9.59707E-03
    9018.020     24.002   2.840  9.89682E-01  1.00448E+00 -1.48009E-02
    9018.892     24.873   2.880  9.80367E-01  1.00380E+00 -2.34363E-02
    9019.776     25.757   2.920  9.68594E-01  1.00309E+00 -3.44964E-02
    9020.672     26.653   2.960  9.55072E-01  1.00239E+00 -4.73188E-02
    9021.580     27.562   3.000  9.40085E-01  1.00167E+00 -6.15816E-02
    9022.500     28.482   3.040  9.24337E-01  1.00097E+00 -7.66302E-02
    9023.433     29.415   3.080  9.09113E-01  1.00027E+00 -9.11599E-02
    9024.378     30.360   3.120  8.95514E-01  9.99609E-01 -1.04094E-01
    9025.335     31.317   3.160  8.83984E-01  9.98957E-01 -1.14972E-01
    9026.304     32.286   3.200  8.74544E-01  9.98341E-01 -1.23797E-01
    9027.286     33.268   3.240  8.67006E-01  9.97784E-01 -1.30778E-01
    9028.279     34.261   3.280  8.61134E-01  9.97246E-01 -1.36112E-01
    9029.285     35.267   3.320  8.57078E-01  9.96751E-01 -1.39673E-01
    9030.303     36.285   3.360  8.55223E-01  9.96322E-01 -1.41099E-01
    9031.333     37.315   3.400  8.55860E-01  9.95938E-01 -1.40078E-01
    9032.376     38.358   3.440  8.59235E-01  9.95622E-01 -1.36387E-01
    9033.431     39.412   3.480  8.65631E-01  9.95333E-01 -1.29702E-01
    9034.497     40.479   3.520  8.75386E-01  9.95132E-01 -1.19746E-01
    9035.576     41.558   3.560  8.88414E-01  9.94959E-01 -1.06545E-01
    9036.667     42.649   3.600  9.04572E-01  9.94877E-01 -9.03046E-02
    9037.771     43.753   3.640  9.23436E-01  9.94822E-01 -7.13859E-02
    9038.886     44.868   3.680  9.44631E-01  9.94837E-01 -5.02059E-02
    9040.014     45.996   3.720  9.67760E-01  9.94922E-01 -2.71622E-02
    9041.154     47.136   3.760  9.92472E-01  9.95054E-01 -2.58254E-03
    9042.306     48.288   3.800  1.01808E+00  9.95233E-01  2.28431E-02
    9043.471     49.452   3.840  1.04337E+00  9.95478E-01  4.78932E-02
    9044.647     50.629   3.880  1.06676E+00  9.95767E-01  7.09900E-02
    9045.836     51.818   3.920  1.08647E+00  9.96100E-01  9.03692E-02
    9047.037     53.019   3.960  1.10095E+00  9.96475E-01  1.04476E-01
    9048.250     54.232   4.000  1.10953E+00  9.96889E-01  1.12640E-01
    9049.475     55.457   4.040  1.11278E+00  9.97345E-01  1.15437E-01
    9050.713     56.694   4.080  1.11225E+00  9.97861E-01  1.14391E-01
    9051.962     57.944   4.120  1.10954E+00  9.98390E-01  1.11150E-01
    9053.224     59.206   4.160  1.10567E+00  9.98933E-01  1.06737E-01
    9054.498     60.480   4.200  1.10077E+00  9.99531E-01  1.01240E-01
    9055.784     61.766   4.240  1.09453E+00  1.00014E+00  9.43906E-02
    9057.083     63.065   4.280  1.08702E+00  1.00075E+00  8.62651E-02
    9058.394     64.375   4.320  1.07888E+00  1.00140E+00  7.74888E-02
    9059.716     65.698   4.360  1.07083E+00  1.00204E+00  6.87827E-02
    9061.051     67.033   4.400  1.06319E+00  1.00269E+00  6.04942E-02
    9062.399     68.380   4.440  1.05579E+00  1.00336E+00  5.24273E-02
    9063.758     69.740   4.480  1.04809E+00  1.00402E+00  4.40721E-02
    9065.130     71.111   4.520  1.03974E+00  1.00466E+00  3.50733E-02
    9066.513     72.495   4.560  1.03080E+00  1.00533E+00  2.54680E-02
    9067.909     73.891   4.600  1.02152E+00  1.00594E+00  1.55755E-02
    9069.318     75.299   4.640  1.01243E+00  1.00657E+00  5.85224E-03
    9070.738     76.720   4.680  1.00394E+00  1.00717E+00 -3.22983E-03
    9072.170     78.152   4.720  9.96504E-01  1.00776E+00 -1.12577E-02
    9073.615     79.597   4.760  9.90390E-01  1.00832E+00 -1.79253E-02
    9075.072     81.054   4.800  9.85683E-01  1.00883E+00 -2.31481E-02
    9076.541     82.523   4.840  9.82247E-01  1.00931E+00 -2.70648E-02
    9078.023     84.004   4.880  9.80015E-01  1.00978E+00 -2.97607E-02
    9079.516     85.498   4.920  9.79139E-01  1.01020E+00 -3.10630E-02
    9081.022     87.004   4.960  9.79922E-01  1.01059E+00 -3.06664E-02
    9082.540     88.521   5.000  9.82387E-01  1.01094E+00 -2.85484E-02
    9084.070     90.052   5.040  9.85974E-01  1.01124E+00 -2.52655E-02
    9085.612     91.594   5.080  9.89664E-01  1.01150E+00 -2.18403E-02
    9087.167     93.148   5.120  9.92493E-01  1.01175E+00 -1.92556E-02
    9088.733     94.715   5.160  9.93859E-01  1.01193E+00 -1.80677E-02
    9090.312     96.294   5.200  9.93540E-01  1.01204E+00 -1.84968E-02
    9091.903     97.885   5.240  9.91529E-01  1.01213E+00 -2.05975E-02
    9093.506     99.488   5.280  9.88139E-01  1.01217E+00 -2.40341E-02
    9095.122    101.104   5.320  9.84140E-01  1.01216E+00 -2.80150E-02
    9096.749    102.731   5.360  9.80554E-01  1.01211E+00 -3.15612E-02
    9098.389    104.371   5.400  9.78095E-01  1.01201E+00 -3.39133E-02
    9100.041    106.023   5.440  9.77295E-01  1.01186E+00 -3.45654E-02
    9101.705    107.687   5.480  9.78409E-01  1.01169E+00 -3.32833E-02
    9103.382    109.364   5.520  9.81174E-01  1.01146E+00 -3.02863E-02
    9105.070    111.052   5.560  9.84639E-01  1.01118E+00 -2.65452E-02
    9106.771    112.753   5.600  9.87328E-01  1.01087E+00 -2.35391E-02
    9108.484    114.466   5.640  9.88020E-01  1.01051E+00 -2.24901E-02
    9110.209    116.191   5.680  9.86496E-01  1.01012E+00 -2.36194E-02
    9111.947    117.928   5.720  9.83666E-01  1.00971E+00 -2.60399E-02
    9113.696    119.678   5.760  9.81010E-01  1.00924E+00 -2.82279E-02
    9115.458    121.440   5.800  9.79979E-01  1.00876E+00 -2.87777E-02
    9117.232    123.214   5.840  9.81256E-01  1.00825E+00 -2.69898E-02
    9119.018    125.000   5.880  9.84634E-01  1.00773E+00 -2.30934E-02
    9120.816    126.798   5.920  9.89181E-01  1.00718E+00 -1.80005E-02
    9122.627    128.609   5.960  9.93794E-01  1.00661E+00 -1.28174E-02
    9124.449    130.431   6.000  9.97934E-01  1.00602E+00 -8.08683E-03
