# # comment:                                                     FEFF 9.9.1  
# # Source:
# # Structure
# # Reduced
# # space
# # abc:
# # angles:
# # sites:
# # POT  SCF 100  7.0000   0, screened core-hole, AFOLP (folp(0)= 1.150)
# # Abs   Z=29 Rmt= 1.184 Rnm= 1.346 K  shell
# # Pot 1 Z=23 Rmt= 1.356 Rnm= 1.448
# # Pot 2 Z=31 Rmt= 1.302 Rnm= 1.376
# # Pot 3 Z=29 Rmt= 1.184 Rnm= 1.346
# # Pot 4 Z= 8 Rmt= 0.995 Rnm= 1.078
# # Gam_ch=1.729E+00 H-L exch Vi= 0.000E+00 Vr= 0.000E+00
# # Mu=-7.937E+00eV kf=2.172E+00 Vint=-1.725E+01eV Rs_int= 1.670
# FMS rfms= 9.0000
# # PATH  Rmax=-1.000,  Keep_limit= 0.00, Heap_limit 0.00  Pwcrit= 2.50%
#  S02=0.950  Temp=   0.00  Debye_temp=   0.00  Global_sig2= 0.00000
#  Energy zero shift, vr, vi    0.00000E+00   0.00000E+00
#  Curved wave amplitude ratio filter   4.000%
#     file         sig2 tot  cw amp ratio   deg  nlegs   reff  inp sig2
#     0/   0 paths used
#  xsedge+ 50, used to normalize mu           2.4863E-04
#  -----------------------------------------------------------------------
#  omega    e    k    mu    mu0     chi     @#
    8983.850    -11.747  -1.000  4.59830E-02  5.28656E-02 -6.88259E-03
    8984.149    -11.449  -0.960  4.92494E-02  5.66873E-02 -7.43794E-03
    8984.435    -11.162  -0.920  5.29133E-02  6.09333E-02 -8.01999E-03
    8984.710    -10.888  -0.880  5.70432E-02  6.56659E-02 -8.62267E-03
    8984.972    -10.626  -0.840  6.17211E-02  7.09579E-02 -9.23678E-03
    8985.222    -10.376  -0.800  6.70443E-02  7.68935E-02 -9.84917E-03
    8985.460    -10.138  -0.760  7.31277E-02  8.35695E-02 -1.04418E-02
    8985.685     -9.912  -0.720  8.01043E-02  9.10952E-02 -1.09909E-02
    8985.898     -9.699  -0.680  8.81244E-02  9.95908E-02 -1.14664E-02
    8986.100     -9.498  -0.640  9.73516E-02  1.09184E-01 -1.18319E-02
    8986.289     -9.309  -0.600  1.07952E-01  1.19998E-01 -1.20464E-02
    8986.465     -9.132  -0.560  1.20074E-01  1.32141E-01 -1.20675E-02
    8986.630     -8.968  -0.520  1.33818E-01  1.45676E-01 -1.18581E-02
    8986.782     -8.815  -0.480  1.49192E-01  1.60588E-01 -1.13960E-02
    8986.923     -8.675  -0.440  1.66061E-01  1.76747E-01 -1.06858E-02
    8987.051     -8.547  -0.400  1.84102E-01  1.93871E-01 -9.76905E-03
    8987.166     -8.431  -0.360  2.02790E-01  2.11518E-01 -8.72841E-03
    8987.270     -8.328  -0.320  2.21436E-01  2.29114E-01 -7.67805E-03
    8987.361     -8.236  -0.280  2.39279E-01  2.46020E-01 -6.74110E-03
    8987.441     -8.157  -0.240  2.55605E-01  2.61625E-01 -6.01918E-03
    8987.508     -8.090  -0.200  2.69847E-01  2.75413E-01 -5.56593E-03
    8987.563     -8.035  -0.160  2.81635E-01  2.87010E-01 -5.37533E-03
    8987.605     -7.992  -0.120  2.90787E-01  2.96177E-01 -5.39008E-03
    8987.636     -7.962  -0.080  2.97254E-01  3.02780E-01 -5.52558E-03
    8987.660     -7.937   0.000  3.02293E-01  3.08084E-01 -5.79021E-03
    8987.715     -7.883   0.120  3.13389E-01  3.20053E-01 -6.66451E-03
    8987.758     -7.840   0.160  3.21879E-01  3.29341E-01 -7.46194E-03
    8987.813     -7.785   0.200  3.32340E-01  3.41204E-01 -8.86435E-03
    8987.880     -7.718   0.240  3.44182E-01  3.55477E-01 -1.12947E-02
    8987.959     -7.639   0.280  3.56495E-01  3.71874E-01 -1.53792E-02
    8988.050     -7.547   0.320  3.67970E-01  3.89956E-01 -2.19858E-02
    8988.154     -7.444   0.360  3.77036E-01  4.09201E-01 -3.21650E-02
    8988.270     -7.328   0.400  3.82088E-01  4.29038E-01 -4.69502E-02
    8988.398     -7.200   0.440  3.81998E-01  4.48981E-01 -6.69828E-02
    8988.538     -7.060   0.480  3.76634E-01  4.68640E-01 -9.20059E-02
    8988.690     -6.907   0.520  3.67143E-01  4.87728E-01 -1.20585E-01
    8988.855     -6.743   0.560  3.55834E-01  5.06129E-01 -1.50296E-01
    8989.032     -6.566   0.600  3.45428E-01  5.23815E-01 -1.78388E-01
    8989.221     -6.377   0.640  3.38302E-01  5.40863E-01 -2.02561E-01
    8989.422     -6.176   0.680  3.35820E-01  5.57324E-01 -2.21503E-01
    8989.635     -5.962   0.720  3.38119E-01  5.73305E-01 -2.35185E-01
    8989.861     -5.737   0.760  3.44125E-01  5.88911E-01 -2.44786E-01
    8990.099     -5.499   0.800  3.52137E-01  6.04176E-01 -2.52039E-01
    8990.348     -5.249   0.840  3.61108E-01  6.19205E-01 -2.58097E-01
    8990.611     -4.987   0.880  3.71302E-01  6.34048E-01 -2.62746E-01
    8990.885     -4.713   0.920  3.83376E-01  6.48720E-01 -2.65344E-01
    8991.171     -4.426   0.960  3.96426E-01  6.63268E-01 -2.66842E-01
    8991.470     -4.127   1.000  4.08202E-01  6.77725E-01 -2.69523E-01
    8991.781     -3.816   1.040  4.17545E-01  6.92058E-01 -2.74513E-01
    8992.104     -3.493   1.080  4.25794E-01  7.06286E-01 -2.80492E-01
    8992.439     -3.158   1.120  4.35651E-01  7.20398E-01 -2.84748E-01
    8992.787     -2.811   1.160  4.49491E-01  7.34382E-01 -2.84892E-01
    8993.147     -2.451   1.200  4.68421E-01  7.48222E-01 -2.79801E-01
    8993.518     -2.079   1.240  4.92218E-01  7.61897E-01 -2.69679E-01
    8993.902     -1.695   1.280  5.21670E-01  7.75363E-01 -2.53694E-01
    8994.299     -1.299   1.320  5.60764E-01  7.88635E-01 -2.27871E-01
    8994.707     -0.890   1.360  6.13485E-01  8.01668E-01 -1.88182E-01
    8995.128     -0.470   1.400  6.80076E-01  8.14431E-01 -1.34355E-01
    8995.561     -0.037   1.440  7.58645E-01  8.26918E-01 -6.82732E-02
    8996.006      0.408   1.480  8.44786E-01  8.39081E-01  5.70594E-03
    8996.463      0.865   1.520  9.25010E-01  8.50908E-01  7.41022E-02
    8996.932      1.335   1.560  9.81909E-01  8.62374E-01  1.19535E-01
    8997.414      1.816   1.600  1.00556E+00  8.73451E-01  1.32106E-01
    8997.907      2.310   1.640  9.92910E-01  8.84151E-01  1.08759E-01
    8998.413      2.816   1.680  9.52365E-01  8.94407E-01  5.79573E-02
    8998.932      3.334   1.720  9.09887E-01  9.04256E-01  5.63058E-03
    8999.462      3.864   1.760  8.91313E-01  9.13672E-01 -2.23591E-02
    9000.004      4.407   1.800  9.04033E-01  9.22631E-01 -1.85986E-02
    9000.559      4.962   1.840  9.44857E-01  9.31131E-01  1.37262E-02
    9001.126      5.529   1.880  1.01056E+00  9.39172E-01  7.13835E-02
    9001.705      6.108   1.920  1.09651E+00  9.46752E-01  1.49755E-01
    9002.297      6.699   1.960  1.18993E+00  9.53872E-01  2.36057E-01
    9002.900      7.303   2.000  1.26035E+00  9.60535E-01  2.99812E-01
    9003.516      7.918   2.040  1.27834E+00  9.66743E-01  3.11601E-01
    9004.144      8.546   2.080  1.24798E+00  9.72480E-01  2.75496E-01
    9004.784      9.186   2.120  1.19380E+00  9.77809E-01  2.15993E-01
    9005.436      9.838   2.160  1.13842E+00  9.82676E-01  1.55743E-01
    9006.100     10.503   2.200  1.08867E+00  9.87147E-01  1.01519E-01
    9006.777     11.180   2.240  1.04512E+00  9.91189E-01  5.39344E-02
    9007.466     11.868   2.280  1.01136E+00  9.94848E-01  1.65086E-02
    9008.167     12.569   2.320  9.87921E-01  9.98111E-01 -1.01903E-02
    9008.880     13.283   2.360  9.67402E-01  1.00103E+00 -3.36259E-02
    9009.606     14.008   2.400  9.40856E-01  1.00359E+00 -6.27297E-02
    9010.343     14.746   2.440  9.11808E-01  1.00581E+00 -9.40037E-02
    9011.093     15.496   2.480  8.97790E-01  1.00772E+00 -1.09926E-01
    9011.855     16.258   2.520  9.12909E-01  1.00931E+00 -9.63983E-02
    9012.629     17.032   2.560  9.59122E-01  1.01063E+00 -5.15105E-02
    9013.416     17.818   2.600  1.02345E+00  1.01168E+00  1.17716E-02
    9014.214     18.617   2.640  1.07637E+00  1.01251E+00  6.38633E-02
    9015.025     19.427   2.680  1.11888E+00  1.01307E+00  1.05809E-01
    9015.848     20.250   2.720  1.15372E+00  1.01342E+00  1.40297E-01
    9016.683     21.086   2.760  1.18199E+00  1.01360E+00  1.68393E-01
    9017.530     21.933   2.800  1.20195E+00  1.01358E+00  1.88370E-01
    9018.390     22.792   2.840  1.20847E+00  1.01339E+00  1.95080E-01
    9019.262     23.664   2.880  1.19699E+00  1.01305E+00  1.83944E-01
    9020.146     24.548   2.920  1.16795E+00  1.01257E+00  1.55383E-01
    9021.042     25.444   2.960  1.12699E+00  1.01197E+00  1.15017E-01
    9021.950     26.352   3.000  1.08189E+00  1.01126E+00  7.06384E-02
    9022.870     27.273   3.040  1.03855E+00  1.01045E+00  2.80976E-02
    9023.803     28.206   3.080  9.99764E-01  1.00954E+00 -9.77343E-03
    9024.748     29.151   3.120  9.67069E-01  1.00859E+00 -4.15214E-02
    9025.705     30.108   3.160  9.40210E-01  1.00755E+00 -6.73417E-02
    9026.674     31.077   3.200  9.18344E-01  1.00649E+00 -8.81428E-02
    9027.656     32.058   3.240  9.00945E-01  1.00536E+00 -1.04413E-01
    9028.649     33.052   3.280  8.87639E-01  1.00421E+00 -1.16575E-01
    9029.655     34.058   3.320  8.78059E-01  1.00304E+00 -1.24979E-01
    9030.673     35.076   3.360  8.72032E-01  1.00185E+00 -1.29821E-01
    9031.704     36.106   3.400  8.69360E-01  1.00067E+00 -1.31306E-01
    9032.746     37.148   3.440  8.69771E-01  9.99478E-01 -1.29707E-01
    9033.801     38.203   3.480  8.73184E-01  9.98295E-01 -1.25111E-01
    9034.867     39.270   3.520  8.79697E-01  9.97137E-01 -1.17441E-01
    9035.946     40.349   3.560  8.89200E-01  9.95989E-01 -1.06788E-01
    9037.038     41.440   3.600  9.01479E-01  9.94872E-01 -9.33931E-02
    9038.141     42.543   3.640  9.16127E-01  9.93790E-01 -7.76626E-02
    9039.256     43.659   3.680  9.32505E-01  9.92723E-01 -6.02183E-02
    9040.384     44.787   3.720  9.49779E-01  9.91715E-01 -4.19369E-02
    9041.524     45.927   3.760  9.66892E-01  9.90727E-01 -2.38351E-02
    9042.676     47.079   3.800  9.82720E-01  9.89801E-01 -7.08030E-03
    9043.841     48.243   3.840  9.95973E-01  9.88917E-01  7.05523E-03
    9045.017     49.420   3.880  1.00564E+00  9.88078E-01  1.75623E-02
    9046.206     50.608   3.920  1.01130E+00  9.87304E-01  2.39984E-02
    9047.407     51.809   3.960  1.01319E+00  9.86554E-01  2.66338E-02
    9048.620     53.022   4.000  1.01232E+00  9.85891E-01  2.64325E-02
    9049.845     54.248   4.040  1.00996E+00  9.85254E-01  2.47052E-02
    9051.083     55.485   4.080  1.00736E+00  9.84683E-01  2.26771E-02
    9052.332     56.735   4.120  1.00537E+00  9.84160E-01  2.12074E-02
    9053.594     57.997   4.160  1.00428E+00  9.83706E-01  2.05772E-02
    9054.868     59.271   4.200  1.00364E+00  9.83299E-01  2.03420E-02
    9056.155     60.557   4.240  1.00245E+00  9.82960E-01  1.94890E-02
    9057.453     61.855   4.280  9.99739E-01  9.82666E-01  1.70725E-02
    9058.764     63.166   4.320  9.95265E-01  9.82418E-01  1.28474E-02
    9060.086     64.489   4.360  9.89618E-01  9.82235E-01  7.38283E-03
    9061.421     65.824   4.400  9.83614E-01  9.82074E-01  1.54015E-03
    9062.769     67.171   4.440  9.78091E-01  9.81979E-01 -3.88718E-03
    9064.128     68.531   4.480  9.73780E-01  9.81949E-01 -8.16872E-03
    9065.500     69.902   4.520  9.71360E-01  9.81938E-01 -1.05777E-02
    9066.883     71.286   4.560  9.71471E-01  9.81968E-01 -1.04976E-02
    9068.279     72.682   4.600  9.74523E-01  9.82060E-01 -7.53664E-03
    9069.688     74.090   4.640  9.80666E-01  9.82170E-01 -1.50386E-03
    9071.108     75.510   4.680  9.89917E-01  9.82339E-01  7.57821E-03
    9072.540     76.943   4.720  1.00176E+00  9.82522E-01  1.92394E-02
    9073.985     78.388   4.760  1.01503E+00  9.82739E-01  3.22958E-02
    9075.442     79.845   4.800  1.02780E+00  9.82969E-01  4.48318E-02
    9076.911     81.314   4.840  1.03789E+00  9.83251E-01  5.46408E-02
    9078.393     82.795   4.880  1.04358E+00  9.83523E-01  6.00592E-02
    9079.886     84.289   4.920  1.04457E+00  9.83846E-01  6.07256E-02
    9081.392     85.794   4.960  1.04171E+00  9.84153E-01  5.75573E-02
    9082.910     87.312   5.000  1.03646E+00  9.84489E-01  5.19664E-02
    9084.440     88.842   5.040  1.03015E+00  9.84852E-01  4.52962E-02
    9085.982     90.385   5.080  1.02389E+00  9.85196E-01  3.86944E-02
    9087.537     91.939   5.120  1.01888E+00  9.85562E-01  3.33188E-02
    9089.103     93.506   5.160  1.01607E+00  9.85907E-01  3.01645E-02
    9090.682     95.085   5.200  1.01565E+00  9.86274E-01  2.93720E-02
    9092.273     96.676   5.240  1.01636E+00  9.86638E-01  2.97191E-02
    9093.876     98.279   5.280  1.01603E+00  9.86976E-01  2.90489E-02
    9095.492     99.894   5.320  1.01313E+00  9.87309E-01  2.58240E-02
    9097.119    101.522   5.360  1.00759E+00  9.87638E-01  1.99570E-02
    9098.759    103.162   5.400  9.99994E-01  9.87960E-01  1.20338E-02
    9100.411    104.814   5.440  9.90412E-01  9.88251E-01  2.16125E-03
    9102.075    106.478   5.480  9.78578E-01  9.88510E-01 -9.93261E-03
    9103.752    108.154   5.520  9.64808E-01  9.88782E-01 -2.39748E-02
    9105.440    109.843   5.560  9.50231E-01  9.89001E-01 -3.87703E-02
    9107.141    111.544   5.600  9.36556E-01  9.89206E-01 -5.26498E-02
    9108.854    113.257   5.640  9.25181E-01  9.89377E-01 -6.41967E-02
    9110.579    114.982   5.680  9.16958E-01  9.89538E-01 -7.25794E-02
    9112.317    116.719   5.720  9.12216E-01  9.89663E-01 -7.74473E-02
    9114.066    118.469   5.760  9.11113E-01  9.89751E-01 -7.86380E-02
    9115.828    120.230   5.800  9.13662E-01  9.89803E-01 -7.61403E-02
    9117.602    122.004   5.840  9.19540E-01  9.89840E-01 -7.03003E-02
    9119.388    123.791   5.880  9.28049E-01  9.89817E-01 -6.17683E-02
    9121.186    125.589   5.920  9.38541E-01  9.89782E-01 -5.12410E-02
    9122.997    127.399   5.960  9.50459E-01  9.89707E-01 -3.92477E-02
    9124.820    129.222   6.000  9.63739E-01  9.89573E-01 -2.58347E-02
