# # comment:                                                     FEFF 9.9.1  
# # Source:
# # Structure
# # Reduced
# # space
# # abc:
# # angles:
# # sites:
# # POT  SCF 100  7.0000   0, screened core-hole, AFOLP (folp(0)= 1.150)
# # Abs   Z=29 Rmt= 1.194 Rnm= 1.287 K  shell
# # Pot 1 Z=57 Rmt= 1.760 Rnm= 1.811
# # Pot 2 Z=25 Rmt= 1.292 Rnm= 1.398
# # Pot 3 Z=29 Rmt= 1.193 Rnm= 1.286
# # Pot 4 Z= 8 Rmt= 1.031 Rnm= 1.099
# # Gam_ch=1.729E+00 H-L exch Vi= 0.000E+00 Vr= 0.000E+00
# # Mu=-1.030E+01eV kf=2.173E+00 Vint=-1.829E+01eV Rs_int= 1.669
# FMS rfms= 9.0000
# # PATH  Rmax=-1.000,  Keep_limit= 0.00, Heap_limit 0.00  Pwcrit= 2.50%
#  S02=0.950  Temp=   0.00  Debye_temp=   0.00  Global_sig2= 0.00000
#  Energy zero shift, vr, vi    0.00000E+00   0.00000E+00
#  Curved wave amplitude ratio filter   4.000%
#     file         sig2 tot  cw amp ratio   deg  nlegs   reff  inp sig2
#     0/   0 paths used
#  xsedge+ 50, used to normalize mu           2.4849E-04
#  -----------------------------------------------------------------------
#  omega    e    k    mu    mu0     chi     @#
    8984.541    -14.113  -1.000  3.37616E-02  5.00695E-02 -1.63078E-02
    8984.840    -13.814  -0.960  3.53717E-02  5.35878E-02 -1.82161E-02
    8985.127    -13.528  -0.920  3.70876E-02  5.74871E-02 -2.03996E-02
    8985.401    -13.253  -0.880  3.89191E-02  6.18228E-02 -2.29038E-02
    8985.663    -12.991  -0.840  4.08774E-02  6.66591E-02 -2.57817E-02
    8985.913    -12.741  -0.800  4.29749E-02  7.20701E-02 -2.90952E-02
    8986.151    -12.504  -0.760  4.52255E-02  7.81410E-02 -3.29155E-02
    8986.376    -12.278  -0.720  4.76445E-02  8.49679E-02 -3.73234E-02
    8986.590    -12.065  -0.680  5.02480E-02  9.26564E-02 -4.24083E-02
    8986.791    -11.864  -0.640  5.30524E-02  1.01318E-01 -4.82653E-02
    8986.980    -11.675  -0.600  5.60722E-02  1.11061E-01 -5.49888E-02
    8987.157    -11.498  -0.560  5.93172E-02  1.21979E-01 -6.26616E-02
    8987.321    -11.333  -0.520  6.27879E-02  1.34126E-01 -7.13378E-02
    8987.473    -11.181  -0.480  6.64690E-02  1.47488E-01 -8.10188E-02
    8987.614    -11.041  -0.440  7.03222E-02  1.61948E-01 -9.16260E-02
    8987.742    -10.913  -0.400  7.42813E-02  1.77258E-01 -1.02976E-01
    8987.858    -10.797  -0.360  7.82517E-02  1.93025E-01 -1.14773E-01
    8987.961    -10.693  -0.320  8.21188E-02  2.08743E-01 -1.26624E-01
    8988.053    -10.602  -0.280  8.57628E-02  2.23847E-01 -1.38084E-01
    8988.132    -10.522  -0.240  8.90762E-02  2.37792E-01 -1.48716E-01
    8988.199    -10.455  -0.200  9.19750E-02  2.50123E-01 -1.58148E-01
    8988.254    -10.401  -0.160  9.44016E-02  2.60502E-01 -1.66100E-01
    8988.296    -10.358  -0.120  9.63187E-02  2.68711E-01 -1.72392E-01
    8988.327    -10.327  -0.080  9.77033E-02  2.74629E-01 -1.76925E-01
    8988.351    -10.303   0.000  9.88236E-02  2.79385E-01 -1.80562E-01
    8988.406    -10.248   0.120  1.01466E-01  2.90130E-01 -1.88664E-01
    8988.449    -10.205   0.160  1.03478E-01  2.98483E-01 -1.95005E-01
    8988.504    -10.151   0.200  1.06056E-01  3.09155E-01 -2.03099E-01
    8988.571    -10.084   0.240  1.09208E-01  3.22016E-01 -2.12807E-01
    8988.650    -10.004   0.280  1.12974E-01  3.36824E-01 -2.23850E-01
    8988.741     -9.913   0.320  1.17433E-01  3.53248E-01 -2.35815E-01
    8988.845     -9.809   0.360  1.22617E-01  3.70786E-01 -2.48168E-01
    8988.961     -9.693   0.400  1.28756E-01  3.89005E-01 -2.60249E-01
    8989.089     -9.565   0.440  1.36042E-01  4.07476E-01 -2.71434E-01
    8989.229     -9.425   0.480  1.44616E-01  4.25805E-01 -2.81189E-01
    8989.382     -9.273   0.520  1.54552E-01  4.43841E-01 -2.89289E-01
    8989.546     -9.108   0.560  1.65535E-01  4.61427E-01 -2.95891E-01
    8989.723     -8.931   0.600  1.76996E-01  4.78553E-01 -3.01558E-01
    8989.912     -8.742   0.640  1.88199E-01  4.95290E-01 -3.07090E-01
    8990.113     -8.541   0.680  1.98355E-01  5.11654E-01 -3.13299E-01
    8990.326     -8.328   0.720  2.07127E-01  5.27775E-01 -3.20648E-01
    8990.552     -8.102   0.760  2.14645E-01  5.43660E-01 -3.29015E-01
    8990.790     -7.865   0.800  2.22070E-01  5.59429E-01 -3.37359E-01
    8991.040     -7.615   0.840  2.31548E-01  5.75129E-01 -3.43581E-01
    8991.302     -7.353   0.880  2.46702E-01  5.90756E-01 -3.44054E-01
    8991.576     -7.078   0.920  2.72416E-01  6.06374E-01 -3.33958E-01
    8991.863     -6.792   0.960  3.13739E-01  6.21977E-01 -3.08238E-01
    8992.161     -6.493   1.000  3.74020E-01  6.37568E-01 -2.63548E-01
    8992.472     -6.182   1.040  4.48892E-01  6.53145E-01 -2.04252E-01
    8992.795     -5.859   1.080  5.20798E-01  6.68716E-01 -1.47918E-01
    8993.131     -5.524   1.120  5.77057E-01  6.84225E-01 -1.07168E-01
    8993.478     -5.176   1.160  6.36312E-01  6.99671E-01 -6.33596E-02
    8993.838     -4.817   1.200  7.22106E-01  7.15011E-01  7.09466E-03
    8994.210     -4.445   1.240  8.09181E-01  7.30237E-01  7.89436E-02
    8994.594     -4.061   1.280  8.23646E-01  7.45300E-01  7.83466E-02
    8994.990     -3.665   1.320  7.40112E-01  7.60167E-01 -2.00549E-02
    8995.398     -3.256   1.360  6.24405E-01  7.74806E-01 -1.50401E-01
    8995.819     -2.835   1.400  5.43336E-01  7.89183E-01 -2.45847E-01
    8996.252     -2.403   1.440  5.12239E-01  8.03267E-01 -2.91029E-01
    8996.697     -1.958   1.480  5.13120E-01  8.17004E-01 -3.03884E-01
    8997.154     -1.500   1.520  5.23833E-01  8.30400E-01 -3.06567E-01
    8997.623     -1.031   1.560  5.41829E-01  8.43403E-01 -3.01574E-01
    8998.105     -0.549   1.600  5.80789E-01  8.55981E-01 -2.75192E-01
    8998.599     -0.056   1.640  6.43858E-01  8.68124E-01 -2.24266E-01
    8999.105      0.450   1.680  7.16170E-01  8.79803E-01 -1.63633E-01
    8999.623      0.968   1.720  7.83462E-01  8.91011E-01 -1.07549E-01
    9000.153      1.499   1.760  8.49480E-01  9.01718E-01 -5.22381E-02
    9000.696      2.041   1.800  9.07959E-01  9.11901E-01 -3.94143E-03
    9001.250      2.596   1.840  9.40389E-01  9.21576E-01  1.88128E-02
    9001.817      3.163   1.880  9.50189E-01  9.30741E-01  1.94484E-02
    9002.396      3.742   1.920  9.68377E-01  9.39373E-01  2.90043E-02
    9002.988      4.333   1.960  1.03088E+00  9.47453E-01  8.34279E-02
    9003.591      4.937   2.000  1.13262E+00  9.55024E-01  1.77597E-01
    9004.207      5.553   2.040  1.22181E+00  9.62087E-01  2.59724E-01
    9004.835      6.180   2.080  1.25383E+00  9.68607E-01  2.85225E-01
    9005.475      6.821   2.120  1.24239E+00  9.74648E-01  2.67745E-01
    9006.127      7.473   2.160  1.23680E+00  9.80176E-01  2.56622E-01
    9006.792      8.137   2.200  1.27603E+00  9.85218E-01  2.90817E-01
    9007.468      8.814   2.240  1.35192E+00  9.89801E-01  3.62122E-01
    9008.157      9.503   2.280  1.41048E+00  9.93935E-01  4.16542E-01
    9008.858     10.204   2.320  1.41577E+00  9.97628E-01  4.18142E-01
    9009.571     10.917   2.360  1.38385E+00  1.00091E+00  3.82938E-01
    9010.297     11.642   2.400  1.33247E+00  1.00381E+00  3.28659E-01
    9011.034     12.380   2.440  1.26821E+00  1.00631E+00  2.61899E-01
    9011.784     13.130   2.480  1.20315E+00  1.00845E+00  1.94695E-01
    9012.546     13.892   2.520  1.15186E+00  1.01026E+00  1.41603E-01
    9013.320     14.666   2.560  1.11689E+00  1.01175E+00  1.05143E-01
    9014.107     15.452   2.600  1.09354E+00  1.01292E+00  8.06173E-02
    9014.905     16.251   2.640  1.07104E+00  1.01383E+00  5.72127E-02
    9015.716     17.062   2.680  1.04527E+00  1.01449E+00  3.07790E-02
    9016.539     17.885   2.720  1.02282E+00  1.01488E+00  7.93532E-03
    9017.374     18.720   2.760  1.00717E+00  1.01507E+00 -7.89307E-03
    9018.222     19.567   2.800  9.97399E-01  1.01507E+00 -1.76665E-02
    9019.081     20.427   2.840  9.90742E-01  1.01485E+00 -2.41079E-02
    9019.953     21.298   2.880  9.83870E-01  1.01449E+00 -3.06190E-02
    9020.837     22.182   2.920  9.74310E-01  1.01397E+00 -3.96595E-02
    9021.733     23.079   2.960  9.61102E-01  1.01330E+00 -5.21999E-02
    9022.641     23.987   3.000  9.44236E-01  1.01253E+00 -6.82967E-02
    9023.562     24.907   3.040  9.24683E-01  1.01165E+00 -8.69645E-02
    9024.494     25.840   3.080  9.04902E-01  1.01068E+00 -1.05775E-01
    9025.439     26.785   3.120  8.87701E-01  1.00962E+00 -1.21923E-01
    9026.396     27.742   3.160  8.74553E-01  1.00850E+00 -1.33945E-01
    9027.366     28.711   3.200  8.65895E-01  1.00732E+00 -1.41429E-01
    9028.347     29.693   3.240  8.61565E-01  1.00613E+00 -1.44565E-01
    9029.341     30.686   3.280  8.60665E-01  1.00488E+00 -1.44212E-01
    9030.346     31.692   3.320  8.62390E-01  1.00361E+00 -1.41222E-01
    9031.365     32.710   3.360  8.66120E-01  1.00234E+00 -1.36221E-01
    9032.395     33.740   3.400  8.71060E-01  1.00105E+00 -1.29987E-01
    9033.437     34.783   3.440  8.76354E-01  9.99771E-01 -1.23417E-01
    9034.492     35.837   3.480  8.81442E-01  9.98503E-01 -1.17061E-01
    9035.559     36.904   3.520  8.86355E-01  9.97263E-01 -1.10908E-01
    9036.638     37.983   3.560  8.91564E-01  9.96034E-01 -1.04470E-01
    9037.729     39.074   3.600  8.98040E-01  9.94838E-01 -9.67978E-02
    9038.832     40.178   3.640  9.06580E-01  9.93679E-01 -8.70997E-02
    9039.948     41.293   3.680  9.17589E-01  9.92559E-01 -7.49700E-02
    9041.075     42.421   3.720  9.31014E-01  9.91479E-01 -6.04649E-02
    9042.215     43.561   3.760  9.46513E-01  9.90441E-01 -4.39285E-02
    9043.367     44.713   3.800  9.63047E-01  9.89447E-01 -2.64004E-02
    9044.532     45.877   3.840  9.78820E-01  9.88519E-01 -9.69857E-03
    9045.708     47.054   3.880  9.91680E-01  9.87637E-01  4.04238E-03
    9046.897     48.243   3.920  9.99897E-01  9.86827E-01  1.30696E-02
    9048.098     49.444   3.960  1.00296E+00  9.86064E-01  1.68996E-02
    9049.311     50.657   4.000  1.00212E+00  9.85370E-01  1.67467E-02
    9050.536     51.882   4.040  9.99938E-01  9.84723E-01  1.52148E-02
    9051.774     53.119   4.080  9.99447E-01  9.84125E-01  1.53213E-02
    9053.024     54.369   4.120  1.00303E+00  9.83598E-01  1.94344E-02
    9054.285     55.631   4.160  1.01161E+00  9.83141E-01  2.84725E-02
    9055.559     56.905   4.200  1.02424E+00  9.82735E-01  4.15039E-02
    9056.846     58.191   4.240  1.03867E+00  9.82398E-01  5.62668E-02
    9058.144     59.490   4.280  1.05247E+00  9.82110E-01  7.03601E-02
    9059.455     60.800   4.320  1.06403E+00  9.81891E-01  8.21367E-02
    9060.778     62.123   4.360  1.07234E+00  9.81717E-01  9.06243E-02
    9062.113     63.458   4.400  1.07655E+00  9.81590E-01  9.49635E-02
    9063.460     64.805   4.440  1.07575E+00  9.81531E-01  9.42180E-02
    9064.819     66.165   4.480  1.06933E+00  9.81516E-01  8.78154E-02
    9066.191     67.536   4.520  1.05821E+00  9.81544E-01  7.66682E-02
    9067.575     68.920   4.560  1.04505E+00  9.81634E-01  6.34115E-02
    9068.971     70.316   4.600  1.03302E+00  9.81745E-01  5.12752E-02
    9070.379     71.724   4.640  1.02464E+00  9.81895E-01  4.27483E-02
    9071.799     73.145   4.680  1.02095E+00  9.82105E-01  3.88421E-02
    9073.232     74.577   4.720  1.02147E+00  9.82331E-01  3.91356E-02
    9074.676     76.022   4.760  1.02501E+00  9.82593E-01  4.24183E-02
    9076.133     77.479   4.800  1.03010E+00  9.82892E-01  4.72123E-02
    9077.602     78.948   4.840  1.03509E+00  9.83222E-01  5.18673E-02
    9079.084     80.429   4.880  1.03811E+00  9.83563E-01  5.45463E-02
    9080.577     81.923   4.920  1.03748E+00  9.83914E-01  5.35644E-02
    9082.083     83.429   4.960  1.03248E+00  9.84315E-01  4.81642E-02
    9083.601     84.947   5.000  1.02359E+00  9.84701E-01  3.88889E-02
    9085.131     86.477   5.040  1.01220E+00  9.85112E-01  2.70839E-02
    9086.673     88.019   5.080  9.99652E-01  9.85526E-01  1.41260E-02
    9088.228     89.573   5.120  9.86847E-01  9.85942E-01  9.05246E-04
    9089.794     91.140   5.160  9.74087E-01  9.86357E-01 -1.22696E-02
    9091.373     92.719   5.200  9.61298E-01  9.86770E-01 -2.54718E-02
    9092.964     94.310   5.240  9.48368E-01  9.87180E-01 -3.88112E-02
    9094.568     95.913   5.280  9.35468E-01  9.87564E-01 -5.20957E-02
    9096.183     97.529   5.320  9.23168E-01  9.87964E-01 -6.47960E-02
    9097.811     99.156   5.360  9.12107E-01  9.88336E-01 -7.62288E-02
    9099.450    100.796   5.400  9.03118E-01  9.88678E-01 -8.55595E-02
    9101.102    102.448   5.440  8.97305E-01  9.89032E-01 -9.17268E-02
    9102.767    104.112   5.480  8.95578E-01  9.89334E-01 -9.37560E-02
    9104.443    105.789   5.520  8.98457E-01  9.89625E-01 -9.11679E-02
    9106.132    107.477   5.560  9.05837E-01  9.89906E-01 -8.40686E-02
    9107.832    109.178   5.600  9.17223E-01  9.90153E-01 -7.29299E-02
    9109.545    110.891   5.640  9.32036E-01  9.90363E-01 -5.83271E-02
    9111.271    112.616   5.680  9.49689E-01  9.90536E-01 -4.08463E-02
    9113.008    114.354   5.720  9.69357E-01  9.90696E-01 -2.13388E-02
    9114.757    116.103   5.760  9.89671E-01  9.90818E-01 -1.14655E-03
    9116.519    117.865   5.800  1.00888E+00  9.90878E-01  1.80070E-02
    9118.293    119.639   5.840  1.02532E+00  9.90922E-01  3.43994E-02
    9120.079    121.425   5.880  1.03742E+00  9.90930E-01  4.64856E-02
    9121.878    123.223   5.920  1.04381E+00  9.90902E-01  5.29050E-02
    9123.688    125.034   5.960  1.04348E+00  9.90857E-01  5.26248E-02
    9125.511    126.856   6.000  1.03608E+00  9.90725E-01  4.53568E-02
