# # comment:                                                     FEFF 9.9.1  
# # Source:
# # Structure
# # Reduced
# # space
# # abc:
# # angles:
# # sites:
# # POT  SCF 100  7.0000   0, screened core-hole, AFOLP (folp(0)= 1.150)
# # Abs   Z=29 Rmt= 1.184 Rnm= 1.289 K  shell
# # Pot 1 Z=39 Rmt= 1.609 Rnm= 1.689
# # Pot 2 Z=29 Rmt= 1.181 Rnm= 1.286
# # Pot 3 Z= 8 Rmt= 1.049 Rnm= 1.109
# # Gam_ch=1.729E+00 H-L exch Vi= 0.000E+00 Vr= 0.000E+00
# # Mu=-8.019E+00eV kf=2.134E+00 Vint=-1.634E+01eV Rs_int= 1.700
# FMS rfms= 9.0000
# # PATH  Rmax=-1.000,  Keep_limit= 0.00, Heap_limit 0.00  Pwcrit= 2.50%
#  S02=0.950  Temp=   0.00  Debye_temp=   0.00  Global_sig2= 0.00000
#  Energy zero shift, vr, vi    0.00000E+00   0.00000E+00
#  Curved wave amplitude ratio filter   4.000%
#     file         sig2 tot  cw amp ratio   deg  nlegs   reff  inp sig2
#     0/   0 paths used
#  xsedge+ 50, used to normalize mu           2.4537E-04
#  -----------------------------------------------------------------------
#  omega    e    k    mu    mu0     chi     @#
    8983.954    -11.829  -1.000  3.63299E-02  5.42451E-02 -1.79152E-02
    8984.252    -11.530  -0.960  3.81565E-02  5.81756E-02 -2.00192E-02
    8984.539    -11.244  -0.920  4.01098E-02  6.25412E-02 -2.24314E-02
    8984.813    -10.969  -0.880  4.22019E-02  6.74056E-02 -2.52037E-02
    8985.075    -10.707  -0.840  4.44457E-02  7.28429E-02 -2.83972E-02
    8985.325    -10.457  -0.800  4.68560E-02  7.89391E-02 -3.20831E-02
    8985.563    -10.219  -0.760  4.94489E-02  8.57927E-02 -3.63438E-02
    8985.788     -9.994  -0.720  5.22420E-02  9.35150E-02 -4.12730E-02
    8986.002     -9.780  -0.680  5.52538E-02  1.02228E-01 -4.69745E-02
    8986.203     -9.579  -0.640  5.85029E-02  1.12062E-01 -5.35590E-02
    8986.392     -9.390  -0.600  6.20057E-02  1.23142E-01 -6.11367E-02
    8986.569     -9.214  -0.560  6.57733E-02  1.35578E-01 -6.98045E-02
    8986.733     -9.049  -0.520  6.98061E-02  1.49432E-01 -7.96262E-02
    8986.886     -8.897  -0.480  7.40868E-02  1.64691E-01 -9.06041E-02
    8987.026     -8.756  -0.440  7.85719E-02  1.81220E-01 -1.02648E-01
    8987.154     -8.628  -0.400  8.31857E-02  1.98732E-01 -1.15547E-01
    8987.270     -8.513  -0.360  8.78191E-02  2.16778E-01 -1.28959E-01
    8987.373     -8.409  -0.320  9.23375E-02  2.34771E-01 -1.42434E-01
    8987.465     -8.317  -0.280  9.65981E-02  2.52063E-01 -1.55465E-01
    8987.544     -8.238  -0.240  1.00470E-01  2.68026E-01 -1.67556E-01
    8987.611     -8.171  -0.200  1.03849E-01  2.82136E-01 -1.78287E-01
    8987.666     -8.116  -0.160  1.06668E-01  2.94009E-01 -1.87341E-01
    8987.709     -8.074  -0.120  1.08887E-01  3.03396E-01 -1.94509E-01
    8987.739     -8.043  -0.080  1.10487E-01  3.10160E-01 -1.99673E-01
    8987.764     -8.019   0.000  1.11789E-01  3.15595E-01 -2.03806E-01
    8987.818     -7.964   0.120  1.14659E-01  3.27864E-01 -2.13205E-01
    8987.861     -7.921   0.160  1.16825E-01  3.37391E-01 -2.20566E-01
    8987.916     -7.866   0.200  1.19568E-01  3.49566E-01 -2.29998E-01
    8987.983     -7.799   0.240  1.22832E-01  3.64231E-01 -2.41399E-01
    8988.062     -7.720   0.280  1.26554E-01  3.81080E-01 -2.54526E-01
    8988.154     -7.629   0.320  1.30725E-01  3.99718E-01 -2.68992E-01
    8988.257     -7.525   0.360  1.35299E-01  4.19582E-01 -2.84283E-01
    8988.373     -7.409   0.400  1.40350E-01  4.40119E-01 -2.99769E-01
    8988.501     -7.281   0.440  1.46119E-01  4.60842E-01 -3.14723E-01
    8988.641     -7.141   0.480  1.52933E-01  4.81319E-01 -3.28386E-01
    8988.794     -6.989   0.520  1.61361E-01  5.01298E-01 -3.39938E-01
    8988.958     -6.824   0.560  1.72106E-01  5.20645E-01 -3.48539E-01
    8989.135     -6.647   0.600  1.86097E-01  5.39346E-01 -3.53249E-01
    8989.324     -6.458   0.640  2.04532E-01  5.57435E-01 -3.52902E-01
    8989.525     -6.257   0.680  2.28900E-01  5.74980E-01 -3.46080E-01
    8989.739     -6.044   0.720  2.60898E-01  5.92086E-01 -3.31188E-01
    8989.964     -5.818   0.760  3.01778E-01  6.08790E-01 -3.07011E-01
    8990.202     -5.580   0.800  3.51391E-01  6.25204E-01 -2.73813E-01
    8990.452     -5.330   0.840  4.07300E-01  6.41366E-01 -2.34066E-01
    8990.714     -5.068   0.880  4.66480E-01  6.57341E-01 -1.90861E-01
    8990.988     -4.794   0.920  5.25822E-01  6.73118E-01 -1.47296E-01
    8991.275     -4.507   0.960  5.77288E-01  6.88737E-01 -1.11449E-01
    8991.574     -4.209   1.000  6.06568E-01  7.04206E-01 -9.76383E-02
    8991.884     -3.898   1.040  6.05805E-01  7.19505E-01 -1.13700E-01
    8992.208     -3.575   1.080  5.83191E-01  7.34628E-01 -1.51437E-01
    8992.543     -3.239   1.120  5.53507E-01  7.49559E-01 -1.96052E-01
    8992.890     -2.892   1.160  5.25930E-01  7.64281E-01 -2.38351E-01
    8993.250     -2.532   1.200  5.03097E-01  7.78771E-01 -2.75675E-01
    8993.622     -2.161   1.240  4.85244E-01  7.92986E-01 -3.07742E-01
    8994.006     -1.776   1.280  4.73679E-01  8.06898E-01 -3.33219E-01
    8994.402     -1.380   1.320  4.72295E-01  8.20476E-01 -3.48181E-01
    8994.810     -0.972   1.360  4.84084E-01  8.33694E-01 -3.49610E-01
    8995.231     -0.551   1.400  5.03835E-01  8.46542E-01 -3.42706E-01
    8995.664     -0.118   1.440  5.22240E-01  8.58969E-01 -3.36728E-01
    8996.109      0.327   1.480  5.38228E-01  8.70947E-01 -3.32720E-01
    8996.566      0.784   1.520  5.56511E-01  8.82489E-01 -3.25979E-01
    8997.036      1.253   1.560  5.83780E-01  8.93528E-01 -3.09748E-01
    8997.517      1.735   1.600  6.28990E-01  9.04096E-01 -2.75106E-01
    8998.011      2.229   1.640  6.95204E-01  9.14128E-01 -2.18925E-01
    8998.517      2.735   1.680  7.73060E-01  9.23663E-01 -1.50603E-01
    8999.035      3.253   1.720  8.50040E-01  9.32657E-01 -8.26170E-02
    8999.565      3.783   1.760  9.23611E-01  9.41130E-01 -1.75187E-02
    9000.108      4.326   1.800  9.94961E-01  9.49083E-01  4.58774E-02
    9000.663      4.880   1.840  1.07473E+00  9.56497E-01  1.18231E-01
    9001.230      5.447   1.880  1.18696E+00  9.63376E-01  2.23583E-01
    9001.809      6.026   1.920  1.33926E+00  9.69744E-01  3.69515E-01
    9002.400      6.618   1.960  1.49261E+00  9.75609E-01  5.17006E-01
    9003.003      7.221   2.000  1.57995E+00  9.80995E-01  5.98954E-01
    9003.619      7.837   2.040  1.57508E+00  9.85871E-01  5.89209E-01
    9004.247      8.465   2.080  1.51201E+00  9.90304E-01  5.21708E-01
    9004.887      9.105   2.120  1.43490E+00  9.94286E-01  4.40610E-01
    9005.539      9.757   2.160  1.35207E+00  9.97843E-01  3.54227E-01
    9006.204     10.422   2.200  1.25697E+00  1.00097E+00  2.56002E-01
    9006.881     11.098   2.240  1.16992E+00  1.00371E+00  1.66210E-01
    9007.569     11.787   2.280  1.11769E+00  1.00610E+00  1.11589E-01
    9008.270     12.488   2.320  1.10779E+00  1.00812E+00  9.96662E-02
    9008.984     13.201   2.360  1.12517E+00  1.00982E+00  1.15343E-01
    9009.709     13.927   2.400  1.14335E+00  1.01120E+00  1.32154E-01
    9010.447     14.664   2.440  1.14906E+00  1.01231E+00  1.36755E-01
    9011.196     15.414   2.480  1.14795E+00  1.01314E+00  1.34807E-01
    9011.958     16.176   2.520  1.14725E+00  1.01375E+00  1.33501E-01
    9012.733     16.950   2.560  1.14559E+00  1.01411E+00  1.31478E-01
    9013.519     17.737   2.600  1.14033E+00  1.01428E+00  1.26051E-01
    9014.318     18.535   2.640  1.12869E+00  1.01426E+00  1.14425E-01
    9015.128     19.346   2.680  1.10963E+00  1.01406E+00  9.55664E-02
    9015.951     20.169   2.720  1.08473E+00  1.01374E+00  7.09901E-02
    9016.786     21.004   2.760  1.05657E+00  1.01325E+00  4.33182E-02
    9017.634     21.852   2.800  1.02771E+00  1.01268E+00  1.50303E-02
    9018.493     22.711   2.840  1.00022E+00  1.01198E+00 -1.17536E-02
    9019.365     23.583   2.880  9.75371E-01  1.01121E+00 -3.58394E-02
    9020.249     24.467   2.920  9.52842E-01  1.01036E+00 -5.75229E-02
    9021.145     25.363   2.960  9.32490E-01  1.00947E+00 -7.69767E-02
    9022.053     26.271   3.000  9.14140E-01  1.00850E+00 -9.43631E-02
    9022.974     27.192   3.040  8.97914E-01  1.00752E+00 -1.09607E-01
    9023.907     28.124   3.080  8.84182E-01  1.00650E+00 -1.22322E-01
    9024.851     29.069   3.120  8.73169E-01  1.00548E+00 -1.32309E-01
    9025.809     30.026   3.160  8.64673E-01  1.00445E+00 -1.39776E-01
    9026.778     30.995   3.200  8.58565E-01  1.00340E+00 -1.44834E-01
    9027.759     31.977   3.240  8.55132E-01  1.00240E+00 -1.47264E-01
    9028.753     32.971   3.280  8.54363E-01  1.00138E+00 -1.47017E-01
    9029.759     33.976   3.320  8.56166E-01  1.00042E+00 -1.44251E-01
    9030.777     34.994   3.360  8.60120E-01  9.99469E-01 -1.39349E-01
    9031.807     36.025   3.400  8.65767E-01  9.98559E-01 -1.32792E-01
    9032.849     37.067   3.440  8.72554E-01  9.97710E-01 -1.25156E-01
    9033.904     38.122   3.480  8.80364E-01  9.96883E-01 -1.16518E-01
    9034.971     39.188   3.520  8.89481E-01  9.96120E-01 -1.06639E-01
    9036.050     40.267   3.560  9.00031E-01  9.95402E-01 -9.53702E-02
    9037.141     41.359   3.600  9.11966E-01  9.94730E-01 -8.27642E-02
    9038.244     42.462   3.640  9.24882E-01  9.94126E-01 -6.92440E-02
    9039.360     43.578   3.680  9.37989E-01  9.93573E-01 -5.55836E-02
    9040.488     44.705   3.720  9.50355E-01  9.93089E-01 -4.27345E-02
    9041.628     45.845   3.760  9.61355E-01  9.92656E-01 -3.13016E-02
    9042.780     46.997   3.800  9.70713E-01  9.92295E-01 -2.15825E-02
    9043.944     48.162   3.840  9.78383E-01  9.92005E-01 -1.36223E-02
    9045.121     49.338   3.880  9.84577E-01  9.91765E-01 -7.18789E-03
    9046.309     50.527   3.920  9.89681E-01  9.91574E-01 -1.89325E-03
    9047.510     51.728   3.960  9.94238E-01  9.91455E-01  2.78369E-03
    9048.723     52.941   4.000  9.98959E-01  9.91406E-01  7.55308E-03
    9049.949     54.166   4.040  1.00462E+00  9.91405E-01  1.32129E-02
    9051.186     55.404   4.080  1.01167E+00  9.91451E-01  2.02202E-02
    9052.436     56.653   4.120  1.02010E+00  9.91566E-01  2.85323E-02
    9053.698     57.915   4.160  1.02943E+00  9.91727E-01  3.77065E-02
    9054.972     59.189   4.200  1.03885E+00  9.91955E-01  4.68965E-02
    9056.258     60.476   4.240  1.04742E+00  9.92204E-01  5.52187E-02
    9057.556     61.774   4.280  1.05463E+00  9.92516E-01  6.21108E-02
    9058.867     63.085   4.320  1.06030E+00  9.92868E-01  6.74270E-02
    9060.190     64.408   4.360  1.06460E+00  9.93238E-01  7.13638E-02
    9061.525     65.743   4.400  1.06793E+00  9.93665E-01  7.42602E-02
    9062.872     67.090   4.440  1.07059E+00  9.94108E-01  7.64801E-02
    9064.231     68.449   4.480  1.07267E+00  9.94585E-01  7.80826E-02
    9065.603     69.821   4.520  1.07385E+00  9.95096E-01  7.87493E-02
    9066.987     71.205   4.560  1.07350E+00  9.95617E-01  7.78865E-02
    9068.383     72.601   4.600  1.07106E+00  9.96167E-01  7.48878E-02
    9069.791     74.009   4.640  1.06623E+00  9.96724E-01  6.95099E-02
    9071.211     75.429   4.680  1.05951E+00  9.97308E-01  6.22012E-02
    9072.644     76.862   4.720  1.05183E+00  9.97872E-01  5.39589E-02
    9074.089     78.306   4.760  1.04431E+00  9.98458E-01  4.58547E-02
    9075.546     79.763   4.800  1.03769E+00  9.99044E-01  3.86471E-02
    9077.015     81.232   4.840  1.03217E+00  9.99606E-01  3.25664E-02
    9078.496     82.714   4.880  1.02762E+00  1.00019E+00  2.74292E-02
    9079.990     84.207   4.920  1.02359E+00  1.00074E+00  2.28481E-02
    9081.495     85.713   4.960  1.01964E+00  1.00128E+00  1.83546E-02
    9083.013     87.231   5.000  1.01540E+00  1.00180E+00  1.35954E-02
    9084.543     88.761   5.040  1.01079E+00  1.00233E+00  8.45993E-03
    9086.086     90.303   5.080  1.00583E+00  1.00280E+00  3.03077E-03
    9087.640     91.858   5.120  1.00075E+00  1.00326E+00 -2.51536E-03
    9089.207     93.424   5.160  9.95657E-01  1.00369E+00 -8.03059E-03
    9090.786     95.003   5.200  9.90713E-01  1.00410E+00 -1.33852E-02
    9092.377     96.594   5.240  9.86036E-01  1.00445E+00 -1.84137E-02
    9093.980     98.198   5.280  9.81923E-01  1.00478E+00 -2.28603E-02
    9095.595     99.813   5.320  9.78586E-01  1.00508E+00 -2.64932E-02
    9097.223    101.441   5.360  9.76106E-01  1.00534E+00 -2.92292E-02
    9098.863    103.080   5.400  9.74258E-01  1.00555E+00 -3.12919E-02
    9100.515    104.732   5.440  9.72566E-01  1.00572E+00 -3.31570E-02
    9102.179    106.397   5.480  9.70535E-01  1.00586E+00 -3.53220E-02
    9103.855    108.073   5.520  9.67870E-01  1.00595E+00 -3.80784E-02
    9105.544    109.762   5.560  9.64428E-01  1.00600E+00 -4.15694E-02
    9107.245    111.462   5.600  9.60182E-01  1.00601E+00 -4.58237E-02
    9108.958    113.175   5.640  9.55295E-01  1.00597E+00 -5.06758E-02
    9110.683    114.900   5.680  9.50277E-01  1.00587E+00 -5.55938E-02
    9112.420    116.638   5.720  9.46057E-01  1.00575E+00 -5.96945E-02
    9114.170    118.387   5.760  9.43712E-01  1.00559E+00 -6.18816E-02
    9115.931    120.149   5.800  9.44206E-01  1.00537E+00 -6.11664E-02
    9117.705    121.923   5.840  9.48137E-01  1.00513E+00 -5.69959E-02
    9119.491    123.709   5.880  9.55383E-01  1.00483E+00 -4.94498E-02
    9121.290    125.507   5.920  9.65237E-01  1.00452E+00 -3.92836E-02
    9123.100    127.318   5.960  9.76385E-01  1.00417E+00 -2.77873E-02
    9124.923    129.141   6.000  9.87505E-01  1.00373E+00 -1.62281E-02
