# # comment:                                                     FEFF 9.9.1  
# # Source:
# # Structure
# # Reduced
# # space
# # abc:
# # angles:
# # sites:
# # POT  SCF 100  7.0000   0, screened core-hole, AFOLP (folp(0)= 1.150)
# # Abs   Z=29 Rmt= 1.164 Rnm= 1.279 K  shell
# # Pot 1 Z=23 Rmt= 1.090 Rnm= 1.311
# # Pot 2 Z=29 Rmt= 1.164 Rnm= 1.279
# # Pot 3 Z= 1 Rmt= 1.357 Rnm= 1.357
# # Pot 4 Z= 8 Rmt= 0.995 Rnm= 1.102
# # Gam_ch=1.729E+00 H-L exch Vi= 0.000E+00 Vr= 0.000E+00
# # Mu=-8.186E+00eV kf=2.224E+00 Vint=-1.448E+01eV Rs_int= 1.630
# FMS rfms= 9.0000
# # PATH  Rmax=-1.000,  Keep_limit= 0.00, Heap_limit 0.00  Pwcrit= 2.50%
#  S02=0.950  Temp=   0.00  Debye_temp=   0.00  Global_sig2= 0.00000
#  Energy zero shift, vr, vi    0.00000E+00   0.00000E+00
#  Curved wave amplitude ratio filter   4.000%
#     file         sig2 tot  cw amp ratio   deg  nlegs   reff  inp sig2
#     0/   0 paths used
#  xsedge+ 50, used to normalize mu           2.4183E-04
#  -----------------------------------------------------------------------
#  omega    e    k    mu    mu0     chi     @#
    8983.828    -11.996  -1.000  3.23355E-02  5.49890E-02 -2.26534E-02
    8984.127    -11.697  -0.960  3.37512E-02  5.88761E-02 -2.51249E-02
    8984.414    -11.410  -0.920  3.52539E-02  6.31794E-02 -2.79254E-02
    8984.688    -11.136  -0.880  3.68527E-02  6.79581E-02 -3.11054E-02
    8984.950    -10.874  -0.840  3.85574E-02  7.32810E-02 -3.47236E-02
    8985.200    -10.624  -0.800  4.03797E-02  7.92274E-02 -3.88477E-02
    8985.438    -10.386  -0.760  4.23329E-02  8.58881E-02 -4.35552E-02
    8985.663    -10.161  -0.720  4.44316E-02  9.33650E-02 -4.89334E-02
    8985.877     -9.947  -0.680  4.66920E-02  1.01770E-01 -5.50782E-02
    8986.078     -9.746  -0.640  4.91307E-02  1.11221E-01 -6.20907E-02
    8986.267     -9.557  -0.600  5.17630E-02  1.21833E-01 -7.00704E-02
    8986.444     -9.380  -0.560  5.46007E-02  1.33704E-01 -7.91028E-02
    8986.608     -9.216  -0.520  5.76472E-02  1.46888E-01 -8.92408E-02
    8986.761     -9.063  -0.480  6.08916E-02  1.61370E-01 -1.00479E-01
    8986.901     -8.923  -0.440  6.43024E-02  1.77024E-01 -1.12722E-01
    8987.029     -8.795  -0.400  6.78218E-02  1.93584E-01 -1.25762E-01
    8987.145     -8.679  -0.360  7.13654E-02  2.10632E-01 -1.39266E-01
    8987.248     -8.576  -0.320  7.48291E-02  2.27626E-01 -1.52797E-01
    8987.340     -8.484  -0.280  7.81027E-02  2.43963E-01 -1.65861E-01
    8987.419     -8.405  -0.240  8.10863E-02  2.59060E-01 -1.77974E-01
    8987.486     -8.338  -0.200  8.37016E-02  2.72423E-01 -1.88721E-01
    8987.541     -8.283  -0.160  8.58957E-02  2.83683E-01 -1.97788E-01
    8987.584     -8.240  -0.120  8.76372E-02  2.92602E-01 -2.04965E-01
    8987.614     -8.210  -0.080  8.89084E-02  2.99038E-01 -2.10129E-01
    8987.638     -8.186   0.000  8.99740E-02  3.04217E-01 -2.14243E-01
    8987.693     -8.131   0.120  9.23403E-02  3.15910E-01 -2.23570E-01
    8987.736     -8.088   0.160  9.40820E-02  3.25014E-01 -2.30932E-01
    8987.791     -8.033   0.200  9.63011E-02  3.36697E-01 -2.40396E-01
    8987.858     -7.966   0.240  9.89725E-02  3.50817E-01 -2.51845E-01
    8987.937     -7.887   0.280  1.02066E-01  3.67143E-01 -2.65077E-01
    8988.029     -7.795   0.320  1.05614E-01  3.85306E-01 -2.79691E-01
    8988.132     -7.692   0.360  1.09645E-01  4.04864E-01 -2.95218E-01
    8988.248     -7.576   0.400  1.14261E-01  4.25364E-01 -3.11102E-01
    8988.376     -7.448   0.440  1.19538E-01  4.46308E-01 -3.26770E-01
    8988.516     -7.308   0.480  1.25586E-01  4.67401E-01 -3.41814E-01
    8988.669     -7.155   0.520  1.32413E-01  4.88381E-01 -3.55967E-01
    8988.833     -6.991   0.560  1.39922E-01  5.09146E-01 -3.69225E-01
    8989.010     -6.814   0.600  1.47921E-01  5.29642E-01 -3.81721E-01
    8989.199     -6.625   0.640  1.56215E-01  5.49909E-01 -3.93694E-01
    8989.400     -6.424   0.680  1.64654E-01  5.69998E-01 -4.05343E-01
    8989.613     -6.211   0.720  1.73309E-01  5.89945E-01 -4.16635E-01
    8989.839     -5.985   0.760  1.82572E-01  6.09805E-01 -4.27233E-01
    8990.077     -5.747   0.800  1.92431E-01  6.29624E-01 -4.37193E-01
    8990.327     -5.497   0.840  2.02004E-01  6.49391E-01 -4.47387E-01
    8990.589     -5.235   0.880  2.10482E-01  6.69146E-01 -4.58664E-01
    8990.863     -4.961   0.920  2.18408E-01  6.88853E-01 -4.70445E-01
    8991.150     -4.674   0.960  2.27435E-01  7.08506E-01 -4.81071E-01
    8991.448     -4.376   1.000  2.39479E-01  7.28070E-01 -4.88591E-01
    8991.759     -4.065   1.040  2.56280E-01  7.47478E-01 -4.91198E-01
    8992.082     -3.742   1.080  2.78814E-01  7.66679E-01 -4.87865E-01
    8992.418     -3.406   1.120  3.07195E-01  7.85658E-01 -4.78462E-01
    8992.765     -3.059   1.160  3.42054E-01  8.04292E-01 -4.62237E-01
    8993.125     -2.699   1.200  3.86351E-01  8.22581E-01 -4.36230E-01
    8993.497     -2.327   1.240  4.44786E-01  8.40419E-01 -3.95633E-01
    8993.881     -1.943   1.280  5.20408E-01  8.57783E-01 -3.37375E-01
    8994.277     -1.547   1.320  6.07203E-01  8.74566E-01 -2.67362E-01
    8994.685     -1.139   1.360  6.86445E-01  8.90766E-01 -2.04321E-01
    8995.106     -0.718   1.400  7.40079E-01  9.06302E-01 -1.66222E-01
    8995.539     -0.285   1.440  7.66679E-01  9.21133E-01 -1.54454E-01
    8995.984      0.160   1.480  7.73630E-01  9.35223E-01 -1.61593E-01
    8996.441      0.617   1.520  7.71307E-01  9.48538E-01 -1.77230E-01
    8996.910      1.086   1.560  7.72491E-01  9.61067E-01 -1.88576E-01
    8997.392      1.568   1.600  7.86007E-01  9.72784E-01 -1.86778E-01
    8997.886      2.062   1.640  8.10066E-01  9.83684E-01 -1.73618E-01
    8998.392      2.568   1.680  8.37330E-01  9.93745E-01 -1.56415E-01
    8998.910      3.086   1.720  8.64151E-01  1.00299E+00 -1.38840E-01
    8999.440      3.616   1.760  8.90611E-01  1.01140E+00 -1.20793E-01
    8999.983      4.159   1.800  9.20097E-01  1.01901E+00 -9.89157E-02
    9000.537      4.713   1.840  9.56599E-01  1.02585E+00 -6.92495E-02
    9001.104      5.280   1.880  1.00269E+00  1.03190E+00 -2.92080E-02
    9001.684      5.860   1.920  1.06574E+00  1.03723E+00  2.85166E-02
    9002.275      6.451   1.960  1.15392E+00  1.04182E+00  1.12101E-01
    9002.878      7.054   2.000  1.26581E+00  1.04575E+00  2.20057E-01
    9003.494      7.670   2.040  1.39656E+00  1.04903E+00  3.47529E-01
    9004.122      8.298   2.080  1.54694E+00  1.05168E+00  4.95252E-01
    9004.762      8.938   2.120  1.69107E+00  1.05378E+00  6.37286E-01
    9005.414      9.590   2.160  1.74824E+00  1.05532E+00  6.92929E-01
    9006.079     10.255   2.200  1.66882E+00  1.05637E+00  6.12454E-01
    9006.755     10.931   2.240  1.50790E+00  1.05696E+00  4.50940E-01
    9007.444     11.620   2.280  1.34351E+00  1.05713E+00  2.86378E-01
    9008.145     12.321   2.320  1.21295E+00  1.05692E+00  1.56031E-01
    9008.858     13.034   2.360  1.12620E+00  1.05635E+00  6.98575E-02
    9009.584     13.760   2.400  1.08277E+00  1.05544E+00  2.73315E-02
    9010.322     14.497   2.440  1.07330E+00  1.05427E+00  1.90288E-02
    9011.071     15.247   2.480  1.08175E+00  1.05282E+00  2.89243E-02
    9011.833     16.009   2.520  1.09439E+00  1.05118E+00  4.32048E-02
    9012.607     16.783   2.560  1.10839E+00  1.04934E+00  5.90556E-02
    9013.394     17.570   2.600  1.12601E+00  1.04733E+00  7.86788E-02
    9014.192     18.368   2.640  1.14345E+00  1.04516E+00  9.82852E-02
    9015.003     19.179   2.680  1.15396E+00  1.04290E+00  1.11060E-01
    9015.826     20.002   2.720  1.15696E+00  1.04054E+00  1.16420E-01
    9016.661     20.837   2.760  1.15446E+00  1.03811E+00  1.16345E-01
    9017.509     21.685   2.800  1.14822E+00  1.03563E+00  1.12592E-01
    9018.368     22.544   2.840  1.13751E+00  1.03312E+00  1.04393E-01
    9019.240     23.416   2.880  1.11980E+00  1.03059E+00  8.92122E-02
    9020.124     24.300   2.920  1.09411E+00  1.02807E+00  6.60414E-02
    9021.020     25.196   2.960  1.06266E+00  1.02557E+00  3.70835E-02
    9021.928     26.104   3.000  1.02926E+00  1.02309E+00  6.16993E-03
    9022.849     27.025   3.040  9.96995E-01  1.02067E+00 -2.36785E-02
    9023.781     27.957   3.080  9.67940E-01  1.01830E+00 -5.03612E-02
    9024.726     28.902   3.120  9.43134E-01  1.01598E+00 -7.28474E-02
    9025.683     29.859   3.160  9.23083E-01  1.01374E+00 -9.06533E-02
    9026.653     30.829   3.200  9.07724E-01  1.01160E+00 -1.03872E-01
    9027.634     31.810   3.240  8.96334E-01  1.00952E+00 -1.13184E-01
    9028.628     32.804   3.280  8.87816E-01  1.00755E+00 -1.19732E-01
    9029.634     33.810   3.320  8.81088E-01  1.00567E+00 -1.24584E-01
    9030.652     34.828   3.360  8.75334E-01  1.00391E+00 -1.28576E-01
    9031.682     35.858   3.400  8.70092E-01  1.00226E+00 -1.32172E-01
    9032.724     36.900   3.440  8.65429E-01  1.00071E+00 -1.35285E-01
    9033.779     37.955   3.480  8.61929E-01  9.99286E-01 -1.37356E-01
    9034.846     39.022   3.520  8.60362E-01  9.98000E-01 -1.37638E-01
    9035.925     40.101   3.560  8.60969E-01  9.96815E-01 -1.35845E-01
    9037.016     41.192   3.600  8.63850E-01  9.95751E-01 -1.31900E-01
    9038.119     42.295   3.640  8.68841E-01  9.94809E-01 -1.25968E-01
    9039.235     43.411   3.680  8.75598E-01  9.93991E-01 -1.18393E-01
    9040.362     44.538   3.720  8.83776E-01  9.93298E-01 -1.09522E-01
    9041.502     45.678   3.760  8.93146E-01  9.92749E-01 -9.96031E-02
    9042.655     46.831   3.800  9.03448E-01  9.92301E-01 -8.88527E-02
    9043.819     47.995   3.840  9.14377E-01  9.91973E-01 -7.75963E-02
    9044.995     49.171   3.880  9.25709E-01  9.91766E-01 -6.60566E-02
    9046.184     50.360   3.920  9.37421E-01  9.91678E-01 -5.42574E-02
    9047.385     51.561   3.960  9.49611E-01  9.91687E-01 -4.20752E-02
    9048.598     52.774   4.000  9.62470E-01  9.91812E-01 -2.93421E-02
    9049.823     53.999   4.040  9.76029E-01  9.92054E-01 -1.60247E-02
    9051.061     55.237   4.080  9.89979E-01  9.92411E-01 -2.43170E-03
    9052.311     56.487   4.120  1.00382E+00  9.92858E-01  1.09627E-02
    9053.572     57.748   4.160  1.01721E+00  9.93393E-01  2.38169E-02
    9054.846     59.022   4.200  1.03009E+00  9.94013E-01  3.60811E-02
    9056.133     60.309   4.240  1.04258E+00  9.94739E-01  4.78429E-02
    9057.431     61.607   4.280  1.05477E+00  9.95526E-01  5.92479E-02
    9058.742     62.918   4.320  1.06654E+00  9.96414E-01  7.01272E-02
    9060.065     64.241   4.360  1.07726E+00  9.97356E-01  7.99073E-02
    9061.400     65.576   4.400  1.08622E+00  9.98350E-01  8.78657E-02
    9062.747     66.923   4.440  1.09294E+00  9.99437E-01  9.35019E-02
    9064.106     68.282   4.480  1.09727E+00  1.00055E+00  9.67214E-02
    9065.478     69.654   4.520  1.09951E+00  1.00173E+00  9.77817E-02
    9066.862     71.038   4.560  1.10010E+00  1.00295E+00  9.71462E-02
    9068.258     72.434   4.600  1.09927E+00  1.00419E+00  9.50811E-02
    9069.666     73.842   4.640  1.09711E+00  1.00549E+00  9.16281E-02
    9071.086     75.262   4.680  1.09351E+00  1.00679E+00  8.67133E-02
    9072.519     76.695   4.720  1.08849E+00  1.00811E+00  8.03817E-02
    9073.963     78.139   4.760  1.08234E+00  1.00945E+00  7.28955E-02
    9075.420     79.596   4.800  1.07551E+00  1.01079E+00  6.47217E-02
    9076.890     81.066   4.840  1.06833E+00  1.01211E+00  5.62249E-02
    9078.371     82.547   4.880  1.06106E+00  1.01344E+00  4.76221E-02
    9079.864     84.040   4.920  1.05385E+00  1.01475E+00  3.91016E-02
    9081.370     85.546   4.960  1.04701E+00  1.01605E+00  3.09688E-02
    9082.888     87.064   5.000  1.04090E+00  1.01731E+00  2.35948E-02
    9084.418     88.594   5.040  1.03570E+00  1.01856E+00  1.71391E-02
    9085.960     90.136   5.080  1.03110E+00  1.01974E+00  1.13588E-02
    9087.515     91.691   5.120  1.02663E+00  1.02089E+00  5.74483E-03
    9089.081     93.257   5.160  1.02172E+00  1.02201E+00 -2.90384E-04
    9090.660     94.836   5.200  1.01584E+00  1.02306E+00 -7.21709E-03
    9092.251     96.427   5.240  1.00879E+00  1.02403E+00 -1.52442E-02
    9093.855     98.031   5.280  1.00089E+00  1.02496E+00 -2.40693E-02
    9095.470     99.646   5.320  9.92994E-01  1.02583E+00 -3.28388E-02
    9097.098    101.274   5.360  9.86169E-01  1.02661E+00 -4.04370E-02
    9098.738    102.914   5.400  9.81392E-01  1.02732E+00 -4.59327E-02
    9100.390    104.566   5.440  9.79218E-01  1.02799E+00 -4.87688E-02
    9102.054    106.230   5.480  9.79680E-01  1.02854E+00 -4.88638E-02
    9103.730    107.906   5.520  9.82474E-01  1.02902E+00 -4.65422E-02
    9105.419    109.595   5.560  9.87010E-01  1.02941E+00 -4.23971E-02
    9107.119    111.295   5.600  9.92640E-01  1.02972E+00 -3.70758E-02
    9108.832    113.008   5.640  9.98718E-01  1.02997E+00 -3.12467E-02
    9110.558    114.734   5.680  1.00452E+00  1.03011E+00 -2.55914E-02
    9112.295    116.471   5.720  1.00929E+00  1.03016E+00 -2.08725E-02
    9114.045    118.221   5.760  1.01229E+00  1.03011E+00 -1.78219E-02
    9115.806    119.982   5.800  1.01303E+00  1.03000E+00 -1.69690E-02
    9117.580    121.756   5.840  1.01141E+00  1.02981E+00 -1.84024E-02
    9119.366    123.542   5.880  1.00783E+00  1.02954E+00 -2.17115E-02
    9121.165    125.341   5.920  1.00303E+00  1.02916E+00 -2.61327E-02
    9122.975    127.151   5.960  9.97903E-01  1.02872E+00 -3.08171E-02
    9124.798    128.974   6.000  9.93065E-01  1.02813E+00 -3.50664E-02
