# # comment:                                                     FEFF 9.9.1  
# # Source:
# # Structure
# # Reduced
# # space
# # abc:
# # angles:108.052645
# # sites:
# # POT  SCF 100  7.0000   0, screened core-hole, AFOLP (folp(0)= 1.150)
# # Abs   Z=29 Rmt= 1.221 Rnm= 1.331 K  shell
# # Pot 1 Z=29 Rmt= 1.174 Rnm= 1.312
# # Pot 2 Z= 8 Rmt= 0.997 Rnm= 1.123
# # Pot 3 Z= 9 Rmt= 1.033 Rnm= 1.129
# # Gam_ch=1.729E+00 H-L exch Vi= 0.000E+00 Vr= 0.000E+00
# # Mu=-6.425E+00eV kf=2.016E+00 Vint=-1.283E+01eV Rs_int= 1.799
# FMS rfms= 9.0000
# # PATH  Rmax=-1.000,  Keep_limit= 0.00, Heap_limit 0.00  Pwcrit= 2.50%
#  S02=0.950  Temp=   0.00  Debye_temp=   0.00  Global_sig2= 0.00000
#  Energy zero shift, vr, vi    0.00000E+00   0.00000E+00
#  Curved wave amplitude ratio filter   4.000%
#     file         sig2 tot  cw amp ratio   deg  nlegs   reff  inp sig2
#     0/   0 paths used
#  xsedge+ 50, used to normalize mu           2.4103E-04
#  -----------------------------------------------------------------------
#  omega    e    k    mu    mu0     chi     @#
    8983.314    -10.235  -1.000  3.32912E-02  5.68858E-02 -2.35946E-02
    8983.613     -9.936  -0.960  3.46528E-02  6.09875E-02 -2.63347E-02
    8983.899     -9.649  -0.920  3.60803E-02  6.55357E-02 -2.94554E-02
    8984.174     -9.375  -0.880  3.75782E-02  7.05945E-02 -3.30162E-02
    8984.436     -9.113  -0.840  3.91517E-02  7.62383E-02 -3.70867E-02
    8984.686     -8.863  -0.800  4.08064E-02  8.25534E-02 -4.17470E-02
    8984.923     -8.625  -0.760  4.25491E-02  8.96380E-02 -4.70889E-02
    8985.149     -8.400  -0.720  4.43871E-02  9.76032E-02 -5.32161E-02
    8985.362     -8.186  -0.680  4.63282E-02  1.06571E-01 -6.02425E-02
    8985.564     -7.985  -0.640  4.83805E-02  1.16669E-01 -6.82882E-02
    8985.752     -7.796  -0.600  5.05508E-02  1.28022E-01 -7.74716E-02
    8985.929     -7.619  -0.560  5.28432E-02  1.40738E-01 -8.78946E-02
    8986.094     -7.455  -0.520  5.52562E-02  1.54877E-01 -9.96209E-02
    8986.246     -7.302  -0.480  5.77787E-02  1.70423E-01 -1.12645E-01
    8986.386     -7.162  -0.440  6.03855E-02  1.87241E-01 -1.26856E-01
    8986.514     -7.034  -0.400  6.30345E-02  2.05043E-01 -1.42009E-01
    8986.630     -6.918  -0.360  6.56666E-02  2.23378E-01 -1.57711E-01
    8986.734     -6.815  -0.320  6.82108E-02  2.41659E-01 -1.73448E-01
    8986.825     -6.723  -0.280  7.05939E-02  2.59234E-01 -1.88640E-01
    8986.905     -6.644  -0.240  7.27508E-02  2.75473E-01 -2.02722E-01
    8986.972     -6.577  -0.200  7.46318E-02  2.89843E-01 -2.15211E-01
    8987.027     -6.522  -0.160  7.62025E-02  3.01949E-01 -2.25746E-01
    8987.069     -6.479  -0.120  7.74407E-02  3.11533E-01 -2.34092E-01
    8987.100     -6.449  -0.080  7.83326E-02  3.18446E-01 -2.40114E-01
    8987.124     -6.425   0.000  7.90555E-02  3.24007E-01 -2.44951E-01
    8987.179     -6.370   0.120  8.09024E-02  3.36569E-01 -2.55667E-01
    8987.222     -6.327   0.160  8.22440E-02  3.46343E-01 -2.64099E-01
    8987.276     -6.272   0.200  8.39562E-02  3.58869E-01 -2.74912E-01
    8987.344     -6.205   0.240  8.59803E-02  3.73987E-01 -2.88007E-01
    8987.423     -6.126   0.280  8.83413E-02  3.91463E-01 -3.03121E-01
    8987.514     -6.034   0.320  9.09881E-02  4.10868E-01 -3.19880E-01
    8987.618     -5.931   0.360  9.39139E-02  4.31717E-01 -3.37803E-01
    8987.734     -5.815   0.400  9.71477E-02  4.53487E-01 -3.56339E-01
    8987.862     -5.687   0.440  1.00725E-01  4.75676E-01 -3.74951E-01
    8988.002     -5.547   0.480  1.04727E-01  4.97912E-01 -3.93186E-01
    8988.154     -5.394   0.520  1.09196E-01  5.19912E-01 -4.10716E-01
    8988.319     -5.230   0.560  1.14242E-01  5.41560E-01 -4.27318E-01
    8988.496     -5.053   0.600  1.19927E-01  5.62816E-01 -4.42889E-01
    8988.685     -4.864   0.640  1.26356E-01  5.83682E-01 -4.57326E-01
    8988.886     -4.663   0.680  1.33620E-01  6.04190E-01 -4.70570E-01
    8989.099     -4.449   0.720  1.41934E-01  6.24447E-01 -4.82514E-01
    8989.325     -4.224   0.760  1.51452E-01  6.44470E-01 -4.93018E-01
    8989.562     -3.986   0.800  1.62464E-01  6.64288E-01 -5.01824E-01
    8989.812     -3.736   0.840  1.75434E-01  6.83917E-01 -5.08483E-01
    8990.075     -3.474   0.880  1.91092E-01  7.03399E-01 -5.12307E-01
    8990.349     -3.200   0.920  2.10122E-01  7.22682E-01 -5.12560E-01
    8990.635     -2.913   0.960  2.33266E-01  7.41740E-01 -5.08474E-01
    8990.934     -2.615   1.000  2.61192E-01  7.60582E-01 -4.99390E-01
    8991.245     -2.304   1.040  2.94118E-01  7.79124E-01 -4.85006E-01
    8991.568     -1.981   1.080  3.32381E-01  7.97339E-01 -4.64958E-01
    8991.903     -1.645   1.120  3.76931E-01  8.15174E-01 -4.38242E-01
    8992.251     -1.298   1.160  4.28324E-01  8.32571E-01 -4.04247E-01
    8992.610     -0.938   1.200  4.84056E-01  8.49453E-01 -3.65396E-01
    8992.982     -0.566   1.240  5.38173E-01  8.65800E-01 -3.27627E-01
    8993.366     -0.182   1.280  5.83138E-01  8.81553E-01 -2.98415E-01
    8993.763      0.214   1.320  6.13542E-01  8.96654E-01 -2.83112E-01
    8994.171      0.622   1.360  6.32196E-01  9.11067E-01 -2.78870E-01
    8994.592      1.043   1.400  6.51843E-01  9.24755E-01 -2.72912E-01
    8995.024      1.476   1.440  6.88695E-01  9.37709E-01 -2.49014E-01
    8995.469      1.921   1.480  7.48330E-01  9.49859E-01 -2.01529E-01
    8995.927      2.378   1.520  8.16919E-01  9.61217E-01 -1.44299E-01
    8996.396      2.847   1.560  8.80238E-01  9.71783E-01 -9.15445E-02
    8996.878      3.329   1.600  9.50028E-01  9.81535E-01 -3.15070E-02
    8997.371      3.823   1.640  1.04920E+00  9.90497E-01  5.86982E-02
    8997.877      4.329   1.680  1.18711E+00  9.98633E-01  1.88472E-01
    8998.396      4.847   1.720  1.34803E+00  1.00601E+00  3.42012E-01
    8998.926      5.377   1.760  1.48556E+00  1.01261E+00  4.72953E-01
    8999.468      5.920   1.800  1.55275E+00  1.01847E+00  5.34277E-01
    9000.023      6.475   1.840  1.54557E+00  1.02362E+00  5.21958E-01
    9000.590      7.041   1.880  1.50894E+00  1.02808E+00  4.80867E-01
    9001.169      7.621   1.920  1.49212E+00  1.03190E+00  4.60222E-01
    9001.761      8.212   1.960  1.50153E+00  1.03506E+00  4.66461E-01
    9002.364      8.815   2.000  1.51129E+00  1.03767E+00  4.73623E-01
    9002.980      9.431   2.040  1.48943E+00  1.03972E+00  4.49708E-01
    9003.608     10.059   2.080  1.42620E+00  1.04129E+00  3.84911E-01
    9004.248     10.699   2.120  1.35164E+00  1.04235E+00  3.09289E-01
    9004.900     11.351   2.160  1.30498E+00  1.04300E+00  2.61979E-01
    9005.564     12.016   2.200  1.27977E+00  1.04325E+00  2.36520E-01
    9006.241     12.692   2.240  1.24030E+00  1.04314E+00  1.97158E-01
    9006.930     13.381   2.280  1.17922E+00  1.04270E+00  1.36512E-01
    9007.631     14.082   2.320  1.12652E+00  1.04197E+00  8.45443E-02
    9008.344     14.796   2.360  1.10024E+00  1.04099E+00  5.92539E-02
    9009.070     15.521   2.400  1.08607E+00  1.03978E+00  4.62868E-02
    9009.807     16.259   2.440  1.07213E+00  1.03837E+00  3.37586E-02
    9010.557     17.008   2.480  1.06500E+00  1.03679E+00  2.82126E-02
    9011.319     17.770   2.520  1.06103E+00  1.03508E+00  2.59527E-02
    9012.093     18.545   2.560  1.05452E+00  1.03324E+00  2.12778E-02
    9012.880     19.331   2.600  1.04384E+00  1.03131E+00  1.25320E-02
    9013.678     20.130   2.640  1.02934E+00  1.02931E+00  3.66776E-05
    9014.489     20.940   2.680  1.01209E+00  1.02728E+00 -1.51879E-02
    9015.312     21.763   2.720  9.93828E-01  1.02519E+00 -3.13599E-02
    9016.147     22.598   2.760  9.76105E-01  1.02309E+00 -4.69853E-02
    9016.994     23.446   2.800  9.59767E-01  1.02101E+00 -6.12475E-02
    9017.854     24.305   2.840  9.45431E-01  1.01895E+00 -7.35146E-02
    9018.726     25.177   2.880  9.33179E-01  1.01691E+00 -8.37334E-02
    9019.610     26.061   2.920  9.22690E-01  1.01490E+00 -9.22099E-02
    9020.506     26.957   2.960  9.13435E-01  1.01298E+00 -9.95404E-02
    9021.414     27.865   3.000  9.04450E-01  1.01110E+00 -1.06654E-01
    9022.334     28.786   3.040  8.94960E-01  1.00929E+00 -1.14328E-01
    9023.267     29.719   3.080  8.85050E-01  1.00758E+00 -1.22525E-01
    9024.212     30.663   3.120  8.75574E-01  1.00595E+00 -1.30374E-01
    9025.169     31.620   3.160  8.67747E-01  1.00441E+00 -1.36663E-01
    9026.138     32.590   3.200  8.62702E-01  1.00298E+00 -1.40281E-01
    9027.120     33.571   3.240  8.61330E-01  1.00167E+00 -1.40341E-01
    9028.113     34.565   3.280  8.63894E-01  1.00045E+00 -1.36561E-01
    9029.119     35.571   3.320  8.70206E-01  9.99333E-01 -1.29127E-01
    9030.137     36.589   3.360  8.79343E-01  9.98352E-01 -1.19009E-01
    9031.167     37.619   3.400  8.90005E-01  9.97491E-01 -1.07487E-01
    9032.210     38.661   3.440  9.00760E-01  9.96729E-01 -9.59692E-02
    9033.265     39.716   3.480  9.10642E-01  9.96087E-01 -8.54451E-02
    9034.331     40.783   3.520  9.19323E-01  9.95565E-01 -7.62425E-02
    9035.410     41.862   3.560  9.27160E-01  9.95164E-01 -6.80039E-02
    9036.501     42.953   3.600  9.34944E-01  9.94883E-01 -5.99393E-02
    9037.605     44.056   3.640  9.43476E-01  9.94700E-01 -5.12236E-02
    9038.720     45.172   3.680  9.53289E-01  9.94656E-01 -4.13661E-02
    9039.848     46.300   3.720  9.64446E-01  9.94706E-01 -3.02592E-02
    9040.988     47.440   3.760  9.76810E-01  9.94850E-01 -1.80398E-02
    9042.140     48.592   3.800  9.90087E-01  9.95109E-01 -5.02179E-03
    9043.305     49.756   3.840  1.00377E+00  9.95482E-01  8.29211E-03
    9044.481     50.933   3.880  1.01726E+00  9.95944E-01  2.13159E-02
    9045.670     52.121   3.920  1.02997E+00  9.96493E-01  3.34811E-02
    9046.871     53.322   3.960  1.04140E+00  9.97149E-01  4.42543E-02
    9048.084     54.535   4.000  1.05113E+00  9.97868E-01  5.32574E-02
    9049.309     55.761   4.040  1.05909E+00  9.98687E-01  6.04046E-02
    9050.547     56.998   4.080  1.06547E+00  9.99563E-01  6.59122E-02
    9051.796     58.248   4.120  1.07067E+00  1.00051E+00  7.01599E-02
    9053.058     59.510   4.160  1.07502E+00  1.00151E+00  7.35072E-02
    9054.332     60.784   4.200  1.07870E+00  1.00258E+00  7.61179E-02
    9055.618     62.070   4.240  1.08167E+00  1.00370E+00  7.79747E-02
    9056.917     63.368   4.280  1.08374E+00  1.00486E+00  7.88832E-02
    9058.228     64.679   4.320  1.08472E+00  1.00605E+00  7.86630E-02
    9059.550     66.002   4.360  1.08461E+00  1.00729E+00  7.73199E-02
    9060.885     67.337   4.400  1.08372E+00  1.00853E+00  7.51863E-02
    9062.233     68.684   4.440  1.08261E+00  1.00980E+00  7.28053E-02
    9063.592     70.043   4.480  1.08179E+00  1.01109E+00  7.07050E-02
    9064.964     71.415   4.520  1.08150E+00  1.01239E+00  6.91115E-02
    9066.347     72.799   4.560  1.08150E+00  1.01367E+00  6.78310E-02
    9067.743     74.195   4.600  1.08126E+00  1.01495E+00  6.63102E-02
    9069.152     75.603   4.640  1.08018E+00  1.01621E+00  6.39622E-02
    9070.572     77.023   4.680  1.07784E+00  1.01745E+00  6.03858E-02
    9072.004     78.456   4.720  1.07398E+00  1.01868E+00  5.53080E-02
    9073.449     79.901   4.760  1.06840E+00  1.01986E+00  4.85376E-02
    9074.906     81.358   4.800  1.06109E+00  1.02101E+00  4.00768E-02
    9076.375     82.827   4.840  1.05232E+00  1.02211E+00  3.02067E-02
    9077.857     84.308   4.880  1.04262E+00  1.02317E+00  1.94472E-02
    9079.350     85.801   4.920  1.03244E+00  1.02419E+00  8.25827E-03
    9080.856     87.307   4.960  1.02191E+00  1.02513E+00 -3.21588E-03
    9082.374     88.825   5.000  1.01090E+00  1.02601E+00 -1.51144E-02
    9083.904     90.355   5.040  9.99235E-01  1.02683E+00 -2.75937E-02
    9085.446     91.897   5.080  9.87120E-01  1.02759E+00 -4.04683E-02
    9087.001     93.452   5.120  9.75195E-01  1.02827E+00 -5.30750E-02
    9088.567     95.019   5.160  9.64386E-01  1.02887E+00 -6.44853E-02
    9090.146     96.597   5.200  9.55588E-01  1.02939E+00 -7.38049E-02
    9091.737     98.188   5.240  9.49434E-01  1.02985E+00 -8.04210E-02
    9093.340     99.792   5.280  9.46231E-01  1.03021E+00 -8.39814E-02
    9094.956    101.407   5.320  9.46066E-01  1.03051E+00 -8.44435E-02
    9096.583    103.035   5.360  9.48687E-01  1.03070E+00 -8.20152E-02
    9098.223    104.675   5.400  9.53789E-01  1.03084E+00 -7.70463E-02
    9099.875    106.327   5.440  9.60903E-01  1.03089E+00 -6.99820E-02
    9101.539    107.991   5.480  9.69444E-01  1.03083E+00 -6.13862E-02
    9103.216    109.667   5.520  9.78884E-01  1.03072E+00 -5.18315E-02
    9104.904    111.356   5.560  9.88803E-01  1.03052E+00 -4.17200E-02
    9106.605    113.057   5.600  9.98839E-01  1.03025E+00 -3.14123E-02
    9108.318    114.770   5.640  1.00854E+00  1.02992E+00 -2.13856E-02
    9110.043    116.495   5.680  1.01739E+00  1.02952E+00 -1.21314E-02
    9111.781    118.232   5.720  1.02500E+00  1.02904E+00 -4.04156E-03
    9113.530    119.982   5.760  1.03105E+00  1.02849E+00  2.56481E-03
    9115.292    121.743   5.800  1.03538E+00  1.02789E+00  7.49208E-03
    9117.066    123.517   5.840  1.03805E+00  1.02724E+00  1.08127E-02
    9118.852    125.303   5.880  1.03934E+00  1.02653E+00  1.28150E-02
    9120.650    127.102   5.920  1.03956E+00  1.02578E+00  1.37783E-02
    9122.461    128.912   5.960  1.03881E+00  1.02500E+00  1.38135E-02
    9124.284    130.735   6.000  1.03699E+00  1.02414E+00  1.28553E-02
