# # comment:                                                     FEFF 9.9.1  
# # Source:
# # Structure
# # Reduced
# # space
# # abc:
# # angles:
# # sites:
# # POT  SCF 100  7.0000   0, screened core-hole, AFOLP (folp(0)= 1.150)
# # Abs   Z=29 Rmt= 1.180 Rnm= 1.277 K  shell
# # Pot 1 Z=39 Rmt= 1.669 Rnm= 1.715
# # Pot 2 Z=25 Rmt= 1.276 Rnm= 1.386
# # Pot 3 Z=29 Rmt= 1.205 Rnm= 1.293
# # Pot 4 Z= 8 Rmt= 1.029 Rnm= 1.096
# # Gam_ch=1.729E+00 H-L exch Vi= 0.000E+00 Vr= 0.000E+00
# # Mu=-1.005E+01eV kf=2.189E+00 Vint=-1.811E+01eV Rs_int= 1.657
# FMS rfms= 9.0000
# # PATH  Rmax=-1.000,  Keep_limit= 0.00, Heap_limit 0.00  Pwcrit= 2.50%
#  S02=0.950  Temp=   0.00  Debye_temp=   0.00  Global_sig2= 0.00000
#  Energy zero shift, vr, vi    0.00000E+00   0.00000E+00
#  Curved wave amplitude ratio filter   4.000%
#     file         sig2 tot  cw amp ratio   deg  nlegs   reff  inp sig2
#     0/   0 paths used
#  xsedge+ 50, used to normalize mu           2.4771E-04
#  -----------------------------------------------------------------------
#  omega    e    k    mu    mu0     chi     @#
    8984.528    -13.864  -1.000  3.44229E-02  5.14958E-02 -1.70730E-02
    8984.826    -13.565  -0.960  3.60883E-02  5.51498E-02 -1.90616E-02
    8985.113    -13.278  -0.920  3.78642E-02  5.92022E-02 -2.13380E-02
    8985.387    -13.004  -0.880  3.97607E-02  6.37108E-02 -2.39500E-02
    8985.649    -12.742  -0.840  4.17891E-02  6.87429E-02 -2.69539E-02
    8985.899    -12.492  -0.800  4.39617E-02  7.43766E-02 -3.04149E-02
    8986.137    -12.254  -0.760  4.62924E-02  8.07010E-02 -3.44087E-02
    8986.363    -12.029  -0.720  4.87961E-02  8.78170E-02 -3.90209E-02
    8986.576    -11.815  -0.680  5.14887E-02  9.58354E-02 -4.43468E-02
    8986.777    -11.614  -0.640  5.43857E-02  1.04873E-01 -5.04874E-02
    8986.966    -11.425  -0.600  5.75009E-02  1.15045E-01 -5.75436E-02
    8987.143    -11.248  -0.560  6.08434E-02  1.26447E-01 -6.56037E-02
    8987.307    -11.084  -0.520  6.44129E-02  1.39138E-01 -7.47254E-02
    8987.460    -10.931  -0.480  6.81937E-02  1.53104E-01 -8.49100E-02
    8987.600    -10.791  -0.440  7.21481E-02  1.68221E-01 -9.60732E-02
    8987.728    -10.663  -0.400  7.62107E-02  1.84230E-01 -1.08019E-01
    8987.844    -10.547  -0.360  8.02884E-02  2.00720E-01 -1.20431E-01
    8987.948    -10.444  -0.320  8.42672E-02  2.17159E-01 -1.32892E-01
    8988.039    -10.352  -0.280  8.80265E-02  2.32956E-01 -1.44930E-01
    8988.118    -10.273  -0.240  9.14557E-02  2.47542E-01 -1.56086E-01
    8988.185    -10.206  -0.200  9.44656E-02  2.60438E-01 -1.65972E-01
    8988.240    -10.151  -0.160  9.69925E-02  2.71291E-01 -1.74298E-01
    8988.283    -10.108  -0.120  9.89942E-02  2.79875E-01 -1.80881E-01
    8988.313    -10.078  -0.080  1.00444E-01  2.86061E-01 -1.85618E-01
    8988.338    -10.054   0.000  1.01623E-01  2.91033E-01 -1.89411E-01
    8988.393     -9.999   0.120  1.04379E-01  3.02268E-01 -1.97889E-01
    8988.435     -9.956   0.160  1.06478E-01  3.10990E-01 -2.04512E-01
    8988.490     -9.901   0.200  1.09171E-01  3.22148E-01 -2.12977E-01
    8988.557     -9.834   0.240  1.12471E-01  3.35582E-01 -2.23111E-01
    8988.636     -9.755   0.280  1.16393E-01  3.51059E-01 -2.34666E-01
    8988.728     -9.663   0.320  1.20987E-01  3.68186E-01 -2.47200E-01
    8988.831     -9.560   0.360  1.26339E-01  3.86499E-01 -2.60160E-01
    8988.947     -9.444   0.400  1.32622E-01  4.05481E-01 -2.72859E-01
    8989.075     -9.316   0.440  1.40045E-01  4.24677E-01 -2.84632E-01
    8989.216     -9.176   0.480  1.48857E-01  4.43758E-01 -2.94901E-01
    8989.368     -9.023   0.520  1.59116E-01  4.62459E-01 -3.03344E-01
    8989.533     -8.859   0.560  1.70656E-01  4.80659E-01 -3.10003E-01
    8989.709     -8.682   0.600  1.83006E-01  4.98366E-01 -3.15361E-01
    8989.898     -8.493   0.640  1.95524E-01  5.15612E-01 -3.20088E-01
    8990.099     -8.292   0.680  2.07872E-01  5.32457E-01 -3.24585E-01
    8990.313     -8.078   0.720  2.20185E-01  5.48974E-01 -3.28789E-01
    8990.538     -7.853   0.760  2.32967E-01  5.65255E-01 -3.32288E-01
    8990.776     -7.615   0.800  2.46867E-01  5.81342E-01 -3.34475E-01
    8991.026     -7.365   0.840  2.63294E-01  5.97305E-01 -3.34011E-01
    8991.288     -7.103   0.880  2.85693E-01  6.13183E-01 -3.27490E-01
    8991.562     -6.829   0.920  3.19587E-01  6.28981E-01 -3.09394E-01
    8991.849     -6.542   0.960  3.69539E-01  6.44734E-01 -2.75196E-01
    8992.148     -6.244   1.000  4.32789E-01  6.60428E-01 -2.27639E-01
    8992.459     -5.933   1.040  4.96222E-01  6.76079E-01 -1.79857E-01
    8992.782     -5.610   1.080  5.51840E-01  6.91656E-01 -1.39816E-01
    8993.117     -5.274   1.120  6.15848E-01  7.07145E-01 -9.12970E-02
    8993.464     -4.927   1.160  7.05969E-01  7.22525E-01 -1.65566E-02
    8993.824     -4.567   1.200  7.95986E-01  7.37751E-01  5.82344E-02
    8994.196     -4.195   1.240  8.13470E-01  7.52795E-01  6.06749E-02
    8994.580     -3.811   1.280  7.29450E-01  7.67649E-01 -3.81989E-02
    8994.976     -3.415   1.320  6.05963E-01  7.82242E-01 -1.76280E-01
    8995.385     -3.007   1.360  5.10383E-01  7.96583E-01 -2.86200E-01
    8995.805     -2.586   1.400  4.65110E-01  8.10597E-01 -3.45487E-01
    8996.238     -2.153   1.440  4.65820E-01  8.24293E-01 -3.58473E-01
    8996.683     -1.708   1.480  4.99780E-01  8.37597E-01 -3.37818E-01
    8997.140     -1.251   1.520  5.51185E-01  8.50499E-01 -2.99314E-01
    8997.610     -0.782   1.560  6.02842E-01  8.62988E-01 -2.60147E-01
    8998.091     -0.300   1.600  6.48646E-01  8.75012E-01 -2.26367E-01
    8998.585      0.194   1.640  6.92486E-01  8.86563E-01 -1.94077E-01
    8999.091      0.700   1.680  7.26558E-01  8.97633E-01 -1.71075E-01
    8999.609      1.218   1.720  7.46566E-01  9.08177E-01 -1.61611E-01
    9000.140      1.748   1.760  7.74250E-01  9.18229E-01 -1.43979E-01
    9000.682      2.291   1.800  8.30005E-01  9.27725E-01 -9.77196E-02
    9001.237      2.846   1.840  9.02059E-01  9.36705E-01 -3.46455E-02
    9001.804      3.412   1.880  9.50785E-01  9.45146E-01  5.63914E-03
    9002.383      3.992   1.920  9.70495E-01  9.53051E-01  1.74439E-02
    9002.974      4.583   1.960  1.01503E+00  9.60421E-01  5.46118E-02
    9003.578      5.186   2.000  1.10818E+00  9.67280E-01  1.40898E-01
    9004.193      5.802   2.040  1.20203E+00  9.73591E-01  2.28435E-01
    9004.821      6.430   2.080  1.24625E+00  9.79422E-01  2.66831E-01
    9005.461      7.070   2.120  1.25449E+00  9.84738E-01  2.69754E-01
    9006.114      7.722   2.160  1.27236E+00  9.89586E-01  2.82770E-01
    9006.778      8.387   2.200  1.33540E+00  9.93953E-01  3.41449E-01
    9007.455      9.063   2.240  1.43426E+00  9.97871E-01  4.36393E-01
    9008.144      9.752   2.280  1.50151E+00  1.00137E+00  5.00143E-01
    9008.845     10.453   2.320  1.49471E+00  1.00443E+00  4.90278E-01
    9009.558     11.167   2.360  1.44913E+00  1.00711E+00  4.42012E-01
    9010.283     11.892   2.400  1.39846E+00  1.00943E+00  3.89039E-01
    9011.021     12.630   2.440  1.34401E+00  1.01138E+00  3.32633E-01
    9011.771     13.379   2.480  1.28493E+00  1.01300E+00  2.71936E-01
    9012.533     14.141   2.520  1.22847E+00  1.01432E+00  2.14145E-01
    9013.307     14.916   2.560  1.17654E+00  1.01533E+00  1.61207E-01
    9014.093     15.702   2.600  1.12612E+00  1.01609E+00  1.10037E-01
    9014.892     16.501   2.640  1.07666E+00  1.01657E+00  6.00915E-02
    9015.703     17.311   2.680  1.03000E+00  1.01684E+00  1.31616E-02
    9016.525     18.134   2.720  9.91913E-01  1.01689E+00 -2.49808E-02
    9017.361     18.969   2.760  9.65485E-01  1.01675E+00 -5.12681E-02
    9018.208     19.817   2.800  9.50158E-01  1.01644E+00 -6.62840E-02
    9019.068     20.676   2.840  9.43294E-01  1.01597E+00 -7.26767E-02
    9019.939     21.548   2.880  9.40072E-01  1.01537E+00 -7.52951E-02
    9020.823     22.432   2.920  9.36218E-01  1.01462E+00 -7.83986E-02
    9021.719     23.328   2.960  9.29634E-01  1.01377E+00 -8.41370E-02
    9022.628     24.236   3.000  9.20221E-01  1.01283E+00 -9.26135E-02
    9023.548     25.157   3.040  9.09253E-01  1.01179E+00 -1.02542E-01
    9024.481     26.089   3.080  8.98511E-01  1.01070E+00 -1.12189E-01
    9025.426     27.034   3.120  8.89426E-01  1.00956E+00 -1.20131E-01
    9026.383     27.991   3.160  8.82706E-01  1.00835E+00 -1.25644E-01
    9027.352     28.961   3.200  8.78761E-01  1.00713E+00 -1.28365E-01
    9028.333     29.942   3.240  8.77449E-01  1.00589E+00 -1.28440E-01
    9029.327     30.936   3.280  8.77697E-01  1.00462E+00 -1.26927E-01
    9030.333     31.942   3.320  8.78540E-01  1.00333E+00 -1.24794E-01
    9031.351     32.960   3.360  8.79734E-01  1.00209E+00 -1.22352E-01
    9032.381     33.990   3.400  8.81244E-01  1.00082E+00 -1.19578E-01
    9033.424     35.032   3.440  8.82969E-01  9.99586E-01 -1.16617E-01
    9034.478     36.087   3.480  8.84864E-01  9.98362E-01 -1.13497E-01
    9035.545     37.154   3.520  8.87280E-01  9.97193E-01 -1.09913E-01
    9036.624     38.233   3.560  8.90837E-01  9.96039E-01 -1.05201E-01
    9037.715     39.324   3.600  8.96606E-01  9.94923E-01 -9.83166E-02
    9038.818     40.427   3.640  9.05562E-01  9.93849E-01 -8.82872E-02
    9039.934     41.543   3.680  9.18371E-01  9.92841E-01 -7.44698E-02
    9041.062     42.671   3.720  9.35037E-01  9.91877E-01 -5.68403E-02
    9042.202     43.810   3.760  9.54789E-01  9.90959E-01 -3.61705E-02
    9043.354     44.963   3.800  9.75550E-01  9.90108E-01 -1.45585E-02
    9044.518     46.127   3.840  9.94153E-01  9.89304E-01  4.84907E-03
    9045.695     47.303   3.880  1.00767E+00  9.88548E-01  1.91168E-02
    9046.883     48.492   3.920  1.01446E+00  9.87864E-01  2.65950E-02
    9048.084     49.693   3.960  1.01454E+00  9.87250E-01  2.72891E-02
    9049.297     50.906   4.000  1.00924E+00  9.86687E-01  2.25547E-02
    9050.523     52.131   4.040  1.00086E+00  9.86195E-01  1.46620E-02
    9051.760     53.369   4.080  9.92197E-01  9.85752E-01  6.44493E-03
    9053.010     54.619   4.120  9.86161E-01  9.85380E-01  7.81018E-04
    9054.272     55.881   4.160  9.85028E-01  9.85078E-01 -5.03323E-05
    9055.546     57.155   4.200  9.89649E-01  9.84805E-01  4.84472E-03
    9056.832     58.441   4.240  9.99169E-01  9.84621E-01  1.45482E-02
    9058.131     59.739   4.280  1.01116E+00  9.84464E-01  2.66926E-02
    9059.441     61.050   4.320  1.02297E+00  9.84396E-01  3.85698E-02
    9060.764     62.373   4.360  1.03271E+00  9.84352E-01  4.83601E-02
    9062.099     63.708   4.400  1.04004E+00  9.84374E-01  5.56626E-02
    9063.446     65.055   4.440  1.04542E+00  9.84440E-01  6.09806E-02
    9064.806     66.414   4.480  1.04902E+00  9.84546E-01  6.44722E-02
    9066.177     67.786   4.520  1.05037E+00  9.84693E-01  6.56814E-02
    9067.561     69.170   4.560  1.04922E+00  9.84880E-01  6.43371E-02
    9068.957     70.566   4.600  1.04635E+00  9.85106E-01  6.12439E-02
    9070.365     71.974   4.640  1.04355E+00  9.85370E-01  5.81794E-02
    9071.786     73.394   4.680  1.04265E+00  9.85671E-01  5.69794E-02
    9073.218     74.827   4.720  1.04461E+00  9.86006E-01  5.86064E-02
    9074.663     76.272   4.760  1.04925E+00  9.86351E-01  6.29009E-02
    9076.120     77.728   4.800  1.05546E+00  9.86706E-01  6.87517E-02
    9077.589     79.198   4.840  1.06164E+00  9.87112E-01  7.45295E-02
    9079.070     80.679   4.880  1.06613E+00  9.87504E-01  7.86256E-02
    9080.564     82.172   4.920  1.06768E+00  9.87925E-01  7.97568E-02
    9082.069     83.678   4.960  1.06538E+00  9.88371E-01  7.70128E-02
    9083.587     85.196   5.000  1.05878E+00  9.88799E-01  6.99838E-02
    9085.117     86.726   5.040  1.04824E+00  9.89248E-01  5.89876E-02
    9086.660     88.268   5.080  1.03472E+00  9.89675E-01  4.50491E-02
    9088.214     89.823   5.120  1.01949E+00  9.90122E-01  2.93645E-02
    9089.781     91.390   5.160  1.00333E+00  9.90543E-01  1.27828E-02
    9091.360     92.968   5.200  9.86697E-01  9.90959E-01 -4.26197E-03
    9092.951     94.559   5.240  9.69770E-01  9.91369E-01 -2.15993E-02
    9094.554     96.163   5.280  9.52673E-01  9.91750E-01 -3.90770E-02
    9096.169     97.778   5.320  9.35878E-01  9.92124E-01 -5.62454E-02
    9097.797     99.406   5.360  9.20265E-01  9.92488E-01 -7.22234E-02
    9099.437    101.046   5.400  9.06828E-01  9.92820E-01 -8.59925E-02
    9101.089    102.698   5.440  8.96356E-01  9.93119E-01 -9.67626E-02
    9102.753    104.362   5.480  8.89415E-01  9.93404E-01 -1.03989E-01
    9104.429    106.038   5.520  8.86426E-01  9.93654E-01 -1.07228E-01
    9106.118    107.727   5.560  8.87763E-01  9.93869E-01 -1.06106E-01
    9107.819    109.428   5.600  8.93613E-01  9.94069E-01 -1.00456E-01
    9109.532    111.141   5.640  9.03873E-01  9.94208E-01 -9.03354E-02
    9111.257    112.866   5.680  9.18290E-01  9.94332E-01 -7.60422E-02
    9112.994    114.603   5.720  9.36307E-01  9.94418E-01 -5.81108E-02
    9114.744    116.353   5.760  9.57298E-01  9.94467E-01 -3.71691E-02
    9116.506    118.114   5.800  9.80408E-01  9.94477E-01 -1.40681E-02
    9118.280    119.888   5.840  1.00419E+00  9.94449E-01  9.73600E-03
    9120.066    121.674   5.880  1.02633E+00  9.94407E-01  3.19235E-02
    9121.864    123.473   5.920  1.04381E+00  9.94302E-01  4.95101E-02
    9123.674    125.283   5.960  1.05385E+00  9.94155E-01  5.96924E-02
    9125.497    127.106   6.000  1.05462E+00  9.93974E-01  6.06511E-02
