# # comment:                                                     FEFF 9.9.1  
# # Source:
# # Structure
# # Reduced
# # space
# # abc:
# # angles:
# # sites:
# # POT  SCF 100  7.0000   0, screened core-hole, AFOLP (folp(0)= 1.150)
# # Abs   Z=29 Rmt= 1.266 Rnm= 1.327 K  shell
# # Pot 1 Z=26 Rmt= 1.322 Rnm= 1.415
# # Pot 2 Z=29 Rmt= 1.260 Rnm= 1.326
# # Pot 3 Z= 8 Rmt= 1.024 Rnm= 1.104
# # Gam_ch=1.729E+00 H-L exch Vi= 0.000E+00 Vr= 0.000E+00
# # Mu=-1.034E+01eV kf=2.151E+00 Vint=-1.748E+01eV Rs_int= 1.686
# FMS rfms= 9.0000
# # PATH  Rmax=-1.000,  Keep_limit= 0.00, Heap_limit 0.00  Pwcrit= 2.50%
#  S02=0.950  Temp=   0.00  Debye_temp=   0.00  Global_sig2= 0.00000
#  Energy zero shift, vr, vi    0.00000E+00   0.00000E+00
#  Curved wave amplitude ratio filter   4.000%
#     file         sig2 tot  cw amp ratio   deg  nlegs   reff  inp sig2
#     0/   0 paths used
#  xsedge+ 50, used to normalize mu           2.4725E-04
#  -----------------------------------------------------------------------
#  omega    e    k    mu    mu0     chi     @#
    8984.541    -14.146  -1.000  3.09838E-02  4.85199E-02 -1.75361E-02
    8984.840    -13.847  -0.960  3.23359E-02  5.18681E-02 -1.95322E-02
    8985.127    -13.561  -0.920  3.37786E-02  5.55731E-02 -2.17944E-02
    8985.401    -13.286  -0.880  3.53236E-02  5.96858E-02 -2.43622E-02
    8985.663    -13.024  -0.840  3.69849E-02  6.42656E-02 -2.72807E-02
    8985.913    -12.774  -0.800  3.87790E-02  6.93810E-02 -3.06020E-02
    8986.151    -12.536  -0.760  4.07256E-02  7.51105E-02 -3.43849E-02
    8986.376    -12.311  -0.720  4.28473E-02  8.15426E-02 -3.86952E-02
    8986.590    -12.097  -0.680  4.51699E-02  8.87743E-02 -4.36044E-02
    8986.791    -11.896  -0.640  4.77210E-02  9.69079E-02 -4.91869E-02
    8986.980    -11.707  -0.600  5.05283E-02  1.06043E-01 -5.55151E-02
    8987.157    -11.531  -0.560  5.36158E-02  1.16265E-01 -6.26495E-02
    8987.321    -11.366  -0.520  5.69978E-02  1.27623E-01 -7.06252E-02
    8987.473    -11.214  -0.480  6.06707E-02  1.40103E-01 -7.94322E-02
    8987.614    -11.073  -0.440  6.46028E-02  1.53596E-01 -8.89931E-02
    8987.742    -10.945  -0.400  6.87265E-02  1.67871E-01 -9.91448E-02
    8987.858    -10.830  -0.360  7.29352E-02  1.82568E-01 -1.09632E-01
    8987.961    -10.726  -0.320  7.70908E-02  1.97215E-01 -1.20124E-01
    8988.053    -10.634  -0.280  8.10414E-02  2.11292E-01 -1.30250E-01
    8988.132    -10.555  -0.240  8.46444E-02  2.24293E-01 -1.39648E-01
    8988.199    -10.488  -0.200  8.77866E-02  2.35794E-01 -1.48007E-01
    8988.254    -10.433  -0.160  9.03939E-02  2.45480E-01 -1.55086E-01
    8988.296    -10.391  -0.120  9.24285E-02  2.53146E-01 -1.60718E-01
    8988.327    -10.360  -0.080  9.38779E-02  2.58676E-01 -1.64798E-01
    8988.351    -10.336   0.000  9.50274E-02  2.63124E-01 -1.68096E-01
    8988.406    -10.281   0.120  9.75613E-02  2.73162E-01 -1.75601E-01
    8988.449    -10.238   0.160  9.94766E-02  2.80964E-01 -1.81487E-01
    8988.504    -10.183   0.200  1.01848E-01  2.90971E-01 -1.89124E-01
    8988.571    -10.116   0.240  1.04571E-01  3.03049E-01 -1.98478E-01
    8988.650    -10.037   0.280  1.07479E-01  3.16985E-01 -2.09506E-01
    8988.741     -9.946   0.320  1.10343E-01  3.32445E-01 -2.22102E-01
    8988.845     -9.842   0.360  1.12999E-01  3.49053E-01 -2.36054E-01
    8988.961     -9.726   0.400  1.15257E-01  3.66388E-01 -2.51132E-01
    8989.089     -9.598   0.440  1.17042E-01  3.84021E-01 -2.66979E-01
    8989.229     -9.458   0.480  1.18463E-01  4.01671E-01 -2.83209E-01
    8989.382     -9.306   0.520  1.19678E-01  4.19149E-01 -2.99471E-01
    8989.546     -9.141   0.560  1.20789E-01  4.36328E-01 -3.15539E-01
    8989.723     -8.964   0.600  1.21831E-01  4.53219E-01 -3.31388E-01
    8989.912     -8.775   0.640  1.22793E-01  4.69845E-01 -3.47052E-01
    8990.113     -8.574   0.680  1.23786E-01  4.86256E-01 -3.62470E-01
    8990.326     -8.361   0.720  1.25224E-01  5.02530E-01 -3.77306E-01
    8990.552     -8.135   0.760  1.27757E-01  5.18724E-01 -3.90966E-01
    8990.790     -7.897   0.800  1.31971E-01  5.34867E-01 -4.02897E-01
    8991.040     -7.647   0.840  1.38150E-01  5.51039E-01 -4.12889E-01
    8991.302     -7.385   0.880  1.46311E-01  5.67243E-01 -4.20933E-01
    8991.576     -7.111   0.920  1.56459E-01  5.83498E-01 -4.27040E-01
    8991.863     -6.824   0.960  1.69039E-01  5.99809E-01 -4.30770E-01
    8992.161     -6.526   1.000  1.85182E-01  6.16151E-01 -4.30969E-01
    8992.472     -6.215   1.040  2.06267E-01  6.32557E-01 -4.26290E-01
    8992.795     -5.892   1.080  2.33165E-01  6.48949E-01 -4.15784E-01
    8993.131     -5.557   1.120  2.65713E-01  6.65345E-01 -3.99632E-01
    8993.478     -5.209   1.160  3.02555E-01  6.81699E-01 -3.79145E-01
    8993.838     -4.849   1.200  3.40757E-01  6.97962E-01 -3.57204E-01
    8994.210     -4.478   1.240  3.76232E-01  7.14100E-01 -3.37868E-01
    8994.594     -4.093   1.280  4.08812E-01  7.30101E-01 -3.21289E-01
    8994.990     -3.697   1.320  4.45168E-01  7.45889E-01 -3.00721E-01
    8995.398     -3.289   1.360  4.93367E-01  7.61428E-01 -2.68061E-01
    8995.819     -2.868   1.400  5.55698E-01  7.76699E-01 -2.21001E-01
    8996.252     -2.435   1.440  6.27184E-01  7.91647E-01 -1.64463E-01
    8996.697     -1.990   1.480  7.00238E-01  8.06236E-01 -1.05997E-01
    8997.154     -1.533   1.520  7.70708E-01  8.20429E-01 -4.97209E-02
    8997.623     -1.064   1.560  8.38317E-01  8.34192E-01  4.12504E-03
    8998.105     -0.582   1.600  9.01429E-01  8.47512E-01  5.39170E-02
    8998.599     -0.088   1.640  9.57617E-01  8.60336E-01  9.72809E-02
    8999.105      0.418   1.680  1.00876E+00  8.72654E-01  1.36110E-01
    8999.623      0.936   1.720  1.05775E+00  8.84457E-01  1.73291E-01
    9000.153      1.466   1.760  1.10637E+00  8.95718E-01  2.10649E-01
    9000.696      2.009   1.800  1.16762E+00  9.06411E-01  2.61213E-01
    9001.250      2.563   1.840  1.26916E+00  9.16552E-01  3.52611E-01
    9001.817      3.130   1.880  1.43643E+00  9.26120E-01  5.10312E-01
    9002.396      3.709   1.920  1.66844E+00  9.35111E-01  7.33333E-01
    9002.988      4.301   1.960  1.89093E+00  9.43529E-01  9.47401E-01
    9003.591      4.904   2.000  1.94987E+00  9.51375E-01  9.98493E-01
    9004.207      5.520   2.040  1.80852E+00  9.58674E-01  8.49845E-01
    9004.835      6.148   2.080  1.58486E+00  9.65410E-01  6.19454E-01
    9005.475      6.788   2.120  1.35308E+00  9.71611E-01  3.81465E-01
    9006.127      7.440   2.160  1.15852E+00  9.77302E-01  1.81218E-01
    9006.792      8.105   2.200  1.03298E+00  9.82453E-01  5.05315E-02
    9007.468      8.781   2.240  9.66101E-01  9.87133E-01 -2.10323E-02
    9008.157      9.470   2.280  9.30359E-01  9.91351E-01 -6.09920E-02
    9008.858     10.171   2.320  9.06850E-01  9.95098E-01 -8.82474E-02
    9009.571     10.884   2.360  8.87500E-01  9.98402E-01 -1.10902E-01
    9010.297     11.610   2.400  8.67535E-01  1.00132E+00 -1.33783E-01
    9011.034     12.347   2.440  8.47123E-01  1.00383E+00 -1.56710E-01
    9011.784     13.097   2.480  8.38219E-01  1.00598E+00 -1.67762E-01
    9012.546     13.859   2.520  8.60620E-01  1.00779E+00 -1.47174E-01
    9013.320     14.633   2.560  9.21419E-01  1.00928E+00 -8.78632E-02
    9014.107     15.420   2.600  9.85878E-01  1.01046E+00 -2.45778E-02
    9014.905     16.218   2.640  1.02695E+00  1.01137E+00  1.55840E-02
    9015.716     17.029   2.680  1.04483E+00  1.01201E+00  3.28198E-02
    9016.539     17.852   2.720  1.04378E+00  1.01242E+00  3.13546E-02
    9017.374     18.687   2.760  1.02669E+00  1.01261E+00  1.40837E-02
    9018.222     19.535   2.800  9.97413E-01  1.01260E+00 -1.51834E-02
    9019.081     20.394   2.840  9.62438E-01  1.01243E+00 -4.99938E-02
    9019.953     21.266   2.880  9.27440E-01  1.01208E+00 -8.46452E-02
    9020.837     22.150   2.920  8.96782E-01  1.01161E+00 -1.14824E-01
    9021.733     23.046   2.960  8.72612E-01  1.01100E+00 -1.38390E-01
    9022.641     23.954   3.000  8.54952E-01  1.01028E+00 -1.55329E-01
    9023.562     24.875   3.040  8.43007E-01  1.00947E+00 -1.66465E-01
    9024.494     25.807   3.080  8.35940E-01  1.00858E+00 -1.72642E-01
    9025.439     26.752   3.120  8.32332E-01  1.00764E+00 -1.75307E-01
    9026.396     27.709   3.160  8.31536E-01  1.00663E+00 -1.75090E-01
    9027.366     28.678   3.200  8.33604E-01  1.00557E+00 -1.71966E-01
    9028.347     29.660   3.240  8.38727E-01  1.00450E+00 -1.65772E-01
    9029.341     30.654   3.280  8.47028E-01  1.00339E+00 -1.56366E-01
    9030.346     31.659   3.320  8.58492E-01  1.00226E+00 -1.43771E-01
    9031.365     32.677   3.360  8.72868E-01  1.00115E+00 -1.28283E-01
    9032.395     33.708   3.400  8.89244E-01  1.00004E+00 -1.10798E-01
    9033.437     34.750   3.440  9.07095E-01  9.98960E-01 -9.18651E-02
    9034.492     35.805   3.480  9.26021E-01  9.97887E-01 -7.18660E-02
    9035.559     36.871   3.520  9.45818E-01  9.96825E-01 -5.10063E-02
    9036.638     37.950   3.560  9.66550E-01  9.95819E-01 -2.92691E-02
    9037.729     39.042   3.600  9.88256E-01  9.94833E-01 -6.57660E-03
    9038.832     40.145   3.640  1.01084E+00  9.93907E-01  1.69369E-02
    9039.948     41.261   3.680  1.03391E+00  9.93024E-01  4.08871E-02
    9041.075     42.388   3.720  1.05682E+00  9.92184E-01  6.46384E-02
    9042.215     43.528   3.760  1.07853E+00  9.91389E-01  8.71397E-02
    9043.367     44.680   3.800  1.09761E+00  9.90661E-01  1.06947E-01
    9044.532     45.845   3.840  1.11294E+00  9.89980E-01  1.22957E-01
    9045.708     47.021   3.880  1.12418E+00  9.89346E-01  1.34834E-01
    9046.897     48.210   3.920  1.13188E+00  9.88783E-01  1.43098E-01
    9048.098     49.411   3.960  1.13690E+00  9.88291E-01  1.48611E-01
    9049.311     50.624   4.000  1.13966E+00  9.87849E-01  1.51807E-01
    9050.536     51.849   4.040  1.13974E+00  9.87476E-01  1.52259E-01
    9051.774     53.087   4.080  1.13599E+00  9.87153E-01  1.48842E-01
    9053.024     54.336   4.120  1.12734E+00  9.86878E-01  1.40459E-01
    9054.285     55.598   4.160  1.11324E+00  9.86693E-01  1.26548E-01
    9055.559     56.872   4.200  1.09411E+00  9.86536E-01  1.07576E-01
    9056.846     58.159   4.240  1.07151E+00  9.86446E-01  8.50685E-02
    9058.144     59.457   4.280  1.04757E+00  9.86403E-01  6.11637E-02
    9059.455     60.768   4.320  1.02435E+00  9.86427E-01  3.79235E-02
    9060.778     62.091   4.360  1.00330E+00  9.86497E-01  1.68070E-02
    9062.113     63.426   4.400  9.85045E-01  9.86609E-01 -1.56361E-03
    9063.460     64.773   4.440  9.69445E-01  9.86763E-01 -1.73182E-02
    9064.819     66.132   4.480  9.56024E-01  9.86980E-01 -3.09555E-02
    9066.191     67.504   4.520  9.44304E-01  9.87214E-01 -4.29101E-02
    9067.575     68.888   4.560  9.34280E-01  9.87486E-01 -5.32062E-02
    9068.971     70.284   4.600  9.26353E-01  9.87795E-01 -6.14414E-02
    9070.379     71.692   4.640  9.21060E-01  9.88140E-01 -6.70807E-02
    9071.799     73.112   4.680  9.18697E-01  9.88520E-01 -6.98227E-02
    9073.232     74.545   4.720  9.19089E-01  9.88910E-01 -6.98209E-02
    9074.676     75.989   4.760  9.21816E-01  9.89330E-01 -6.75144E-02
    9076.133     77.446   4.800  9.26282E-01  9.89757E-01 -6.34750E-02
    9077.602     78.915   4.840  9.31896E-01  9.90189E-01 -5.82933E-02
    9079.084     80.397   4.880  9.38181E-01  9.90648E-01 -5.24670E-02
    9080.577     81.890   4.920  9.44743E-01  9.91111E-01 -4.63678E-02
    9082.083     83.396   4.960  9.51502E-01  9.91574E-01 -4.00724E-02
    9083.601     84.914   5.000  9.58691E-01  9.92039E-01 -3.33481E-02
    9085.131     86.444   5.040  9.66646E-01  9.92523E-01 -2.58776E-02
    9086.673     87.986   5.080  9.75309E-01  9.92961E-01 -1.76524E-02
    9088.228     89.541   5.120  9.84273E-01  9.93415E-01 -9.14263E-03
    9089.794     91.107   5.160  9.93004E-01  9.93864E-01 -8.60234E-04
    9091.373     92.686   5.200  1.00128E+00  9.94283E-01  7.00124E-03
    9092.964     94.277   5.240  1.00917E+00  9.94669E-01  1.44969E-02
    9094.568     95.881   5.280  1.01651E+00  9.95046E-01  2.14595E-02
    9096.183     97.496   5.320  1.02258E+00  9.95413E-01  2.71669E-02
    9097.811     99.124   5.360  1.02624E+00  9.95746E-01  3.04903E-02
    9099.450    100.763   5.400  1.02639E+00  9.96043E-01  3.03453E-02
    9101.102    102.415   5.440  1.02247E+00  9.96303E-01  2.61667E-02
    9102.767    104.080   5.480  1.01470E+00  9.96549E-01  1.81535E-02
    9104.443    105.756   5.520  1.00390E+00  9.96759E-01  7.14216E-03
    9106.132    107.445   5.560  9.91009E-01  9.96929E-01 -5.92013E-03
    9107.832    109.145   5.600  9.76654E-01  9.97060E-01 -2.04057E-02
    9109.545    110.858   5.640  9.61399E-01  9.97151E-01 -3.57519E-02
    9111.271    112.583   5.680  9.46332E-01  9.97202E-01 -5.08696E-02
    9113.008    114.321   5.720  9.33287E-01  9.97211E-01 -6.39244E-02
    9114.757    116.070   5.760  9.24383E-01  9.97181E-01 -7.27985E-02
    9116.519    117.832   5.800  9.21229E-01  9.97112E-01 -7.58834E-02
    9118.293    119.606   5.840  9.24310E-01  9.97005E-01 -7.26957E-02
    9120.079    121.392   5.880  9.33046E-01  9.96885E-01 -6.38390E-02
    9121.878    123.190   5.920  9.46245E-01  9.96703E-01 -5.04579E-02
    9123.688    125.001   5.960  9.62722E-01  9.96479E-01 -3.37570E-02
    9125.511    126.824   6.000  9.81786E-01  9.96190E-01 -1.44039E-02
