# # comment:                                                     FEFF 9.9.1  
# # Source:
# # Structure
# # Reduced
# # space
# # abc:
# # angles:153.144628
# # sites:
# # POT  SCF 100  7.0000   0, screened core-hole, AFOLP (folp(0)= 1.150)
# # Abs   Z=29 Rmt= 1.249 Rnm= 1.356 K  shell
# # Pot 1 Z=29 Rmt= 1.249 Rnm= 1.356
# # Pot 2 Z=82 Rmt= 1.778 Rnm= 1.838
# # Pot 3 Z=17 Rmt= 1.571 Rnm= 1.625
# # Pot 4 Z= 8 Rmt= 1.096 Rnm= 1.150
# # Gam_ch=1.729E+00 H-L exch Vi= 0.000E+00 Vr= 0.000E+00
# # Mu=-4.975E+00eV kf=1.737E+00 Vint=-1.178E+01eV Rs_int= 2.088
# FMS rfms= 9.0000
# # PATH  Rmax=-1.000,  Keep_limit= 0.00, Heap_limit 0.00  Pwcrit= 2.50%
#  S02=0.950  Temp=   0.00  Debye_temp=   0.00  Global_sig2= 0.00000
#  Energy zero shift, vr, vi    0.00000E+00   0.00000E+00
#  Curved wave amplitude ratio filter   4.000%
#     file         sig2 tot  cw amp ratio   deg  nlegs   reff  inp sig2
#     0/   0 paths used
#  xsedge+ 50, used to normalize mu           2.4028E-04
#  -----------------------------------------------------------------------
#  omega    e    k    mu    mu0     chi     @#
    8983.396     -8.785  -1.000  4.52010E-02  6.70495E-02 -2.18485E-02
    8983.694     -8.486  -0.960  4.75416E-02  7.22482E-02 -2.47066E-02
    8983.981     -8.200  -0.920  5.00327E-02  7.80451E-02 -2.80124E-02
    8984.255     -7.925  -0.880  5.26857E-02  8.45293E-02 -3.18436E-02
    8984.517     -7.663  -0.840  5.55129E-02  9.18041E-02 -3.62913E-02
    8984.767     -7.413  -0.800  5.85274E-02  9.99896E-02 -4.14622E-02
    8985.005     -7.176  -0.760  6.17436E-02  1.09223E-01 -4.74796E-02
    8985.231     -6.950  -0.720  6.51762E-02  1.19660E-01 -5.44842E-02
    8985.444     -6.737  -0.680  6.88402E-02  1.31472E-01 -6.26318E-02
    8985.645     -6.536  -0.640  7.27497E-02  1.44839E-01 -7.20890E-02
    8985.834     -6.347  -0.600  7.69160E-02  1.59938E-01 -8.30219E-02
    8986.011     -6.170  -0.560  8.13446E-02  1.76921E-01 -9.55767E-02
    8986.175     -6.005  -0.520  8.60302E-02  1.95879E-01 -1.09849E-01
    8986.328     -5.853  -0.480  9.09511E-02  2.16794E-01 -1.25843E-01
    8986.468     -5.713  -0.440  9.60618E-02  2.39481E-01 -1.43419E-01
    8986.596     -5.585  -0.400  1.01287E-01  2.63546E-01 -1.62259E-01
    8986.712     -5.469  -0.360  1.06523E-01  2.88366E-01 -1.81843E-01
    8986.816     -5.365  -0.320  1.11639E-01  3.13131E-01 -2.01492E-01
    8986.907     -5.274  -0.280  1.16495E-01  3.36941E-01 -2.20446E-01
    8986.986     -5.194  -0.240  1.20956E-01  3.58931E-01 -2.37974E-01
    8987.053     -5.127  -0.200  1.24906E-01  3.78372E-01 -2.53467E-01
    8987.108     -5.073  -0.160  1.28250E-01  3.94733E-01 -2.66483E-01
    8987.151     -5.030  -0.120  1.30917E-01  4.07670E-01 -2.76752E-01
    8987.181     -4.999  -0.080  1.32857E-01  4.16992E-01 -2.84135E-01
    8987.206     -4.975   0.000  1.34430E-01  4.24482E-01 -2.90052E-01
    8987.261     -4.920   0.120  1.38164E-01  4.41376E-01 -3.03212E-01
    8987.303     -4.878   0.160  1.41031E-01  4.54499E-01 -3.13467E-01
    8987.358     -4.823   0.200  1.44775E-01  4.71271E-01 -3.26496E-01
    8987.425     -4.756   0.240  1.49397E-01  4.91458E-01 -3.42061E-01
    8987.504     -4.676   0.280  1.54952E-01  5.14671E-01 -3.59720E-01
    8987.596     -4.585   0.320  1.61408E-01  5.40274E-01 -3.78866E-01
    8987.699     -4.481   0.360  1.68866E-01  5.67570E-01 -3.98704E-01
    8987.815     -4.365   0.400  1.77333E-01  5.95727E-01 -4.18394E-01
    8987.943     -4.237   0.440  1.86894E-01  6.24039E-01 -4.37145E-01
    8988.084     -4.097   0.480  1.97630E-01  6.51912E-01 -4.54282E-01
    8988.236     -3.945   0.520  2.09589E-01  6.78945E-01 -4.69356E-01
    8988.401     -3.780   0.560  2.22884E-01  7.04917E-01 -4.82033E-01
    8988.577     -3.603   0.600  2.37661E-01  7.29746E-01 -4.92085E-01
    8988.766     -3.414   0.640  2.54179E-01  7.53444E-01 -4.99264E-01
    8988.967     -3.213   0.680  2.72707E-01  7.76068E-01 -5.03361E-01
    8989.181     -3.000   0.720  2.93486E-01  7.97670E-01 -5.04185E-01
    8989.406     -2.774   0.760  3.17230E-01  8.18324E-01 -5.01094E-01
    8989.644     -2.537   0.800  3.46054E-01  8.38088E-01 -4.92034E-01
    8989.894     -2.287   0.840  3.84075E-01  8.56987E-01 -4.72912E-01
    8990.156     -2.025   0.880  4.37333E-01  8.75026E-01 -4.37693E-01
    8990.430     -1.750   0.920  5.13884E-01  8.92238E-01 -3.78354E-01
    8990.717     -1.464   0.960  6.22952E-01  9.08581E-01 -2.85629E-01
    8991.016     -1.165   1.000  7.68670E-01  9.24083E-01 -1.55413E-01
    8991.327     -0.854   1.040  9.31610E-01  9.38705E-01 -7.09564E-03
    8991.650     -0.531   1.080  1.05416E+00  9.52443E-01  1.01720E-01
    8991.985     -0.196   1.120  1.08104E+00  9.65267E-01  1.15774E-01
    8992.332      0.152   1.160  1.02191E+00  9.77168E-01  4.47456E-02
    8992.692      0.511   1.200  9.27109E-01  9.88115E-01 -6.10056E-02
    8993.064      0.883   1.240  8.37473E-01  9.98139E-01 -1.60666E-01
    8993.448      1.267   1.280  7.75509E-01  1.00723E+00 -2.31721E-01
    8993.844      1.663   1.320  7.49620E-01  1.01538E+00 -2.65762E-01
    8994.253      2.072   1.360  7.61087E-01  1.02263E+00 -2.61543E-01
    8994.673      2.493   1.400  8.13190E-01  1.02899E+00 -2.15801E-01
    8995.106      2.925   1.440  9.13720E-01  1.03446E+00 -1.20745E-01
    8995.551      3.370   1.480  1.05872E+00  1.03911E+00  1.96131E-02
    8996.008      3.828   1.520  1.20661E+00  1.04298E+00  1.63630E-01
    8996.478      4.297   1.560  1.30316E+00  1.04606E+00  2.57093E-01
    8996.959      4.779   1.600  1.34935E+00  1.04846E+00  3.00893E-01
    8997.453      5.272   1.640  1.38717E+00  1.05017E+00  3.37001E-01
    8997.959      5.778   1.680  1.43959E+00  1.05128E+00  3.88313E-01
    8998.477      6.296   1.720  1.49059E+00  1.05182E+00  4.38768E-01
    8999.008      6.827   1.760  1.50401E+00  1.05184E+00  4.52168E-01
    8999.550      7.369   1.800  1.46629E+00  1.05138E+00  4.14909E-01
    9000.105      7.924   1.840  1.40902E+00  1.05051E+00  3.58515E-01
    9000.672      8.491   1.880  1.36061E+00  1.04925E+00  3.11360E-01
    9001.251      9.070   1.920  1.32024E+00  1.04765E+00  2.72584E-01
    9001.842      9.661   1.960  1.27910E+00  1.04580E+00  2.33297E-01
    9002.446     10.265   2.000  1.24057E+00  1.04367E+00  1.96896E-01
    9003.061     10.881   2.040  1.21325E+00  1.04137E+00  1.71880E-01
    9003.689     11.508   2.080  1.20080E+00  1.03888E+00  1.61915E-01
    9004.329     12.149   2.120  1.20418E+00  1.03626E+00  1.67929E-01
    9004.982     12.801   2.160  1.22089E+00  1.03355E+00  1.87342E-01
    9005.646     13.465   2.200  1.23829E+00  1.03077E+00  2.07521E-01
    9006.323     14.142   2.240  1.24668E+00  1.02793E+00  2.18743E-01
    9007.012     14.831   2.280  1.23933E+00  1.02507E+00  2.14256E-01
    9007.713     15.532   2.320  1.21421E+00  1.02224E+00  1.91962E-01
    9008.426     16.245   2.360  1.17186E+00  1.01941E+00  1.52453E-01
    9009.151     16.970   2.400  1.11507E+00  1.01666E+00  9.84113E-02
    9009.889     17.708   2.440  1.05127E+00  1.01396E+00  3.73103E-02
    9010.639     18.458   2.480  9.91583E-01  1.01134E+00 -1.97565E-02
    9011.401     19.220   2.520  9.43004E-01  1.00880E+00 -6.58007E-02
    9012.175     19.994   2.560  9.06868E-01  1.00638E+00 -9.95142E-02
    9012.961     20.780   2.600  8.81559E-01  1.00408E+00 -1.22520E-01
    9013.760     21.579   2.640  8.63595E-01  1.00190E+00 -1.38305E-01
    9014.571     22.390   2.680  8.50128E-01  9.99850E-01 -1.49722E-01
    9015.394     23.213   2.720  8.39906E-01  9.97952E-01 -1.58046E-01
    9016.229     24.048   2.760  8.32640E-01  9.96211E-01 -1.63571E-01
    9017.076     24.895   2.800  8.28819E-01  9.94606E-01 -1.65787E-01
    9017.936     25.755   2.840  8.29164E-01  9.93162E-01 -1.63998E-01
    9018.807     26.626   2.880  8.33612E-01  9.91880E-01 -1.58268E-01
    9019.691     27.510   2.920  8.41580E-01  9.90761E-01 -1.49181E-01
    9020.587     28.407   2.960  8.52245E-01  9.89806E-01 -1.37560E-01
    9021.496     29.315   3.000  8.64689E-01  9.89014E-01 -1.24326E-01
    9022.416     30.235   3.040  8.78233E-01  9.88386E-01 -1.10153E-01
    9023.349     31.168   3.080  8.91666E-01  9.87922E-01 -9.62555E-02
    9024.294     32.113   3.120  9.03035E-01  9.87620E-01 -8.45849E-02
    9025.251     33.070   3.160  9.11263E-01  9.87456E-01 -7.61937E-02
    9026.220     34.039   3.200  9.16922E-01  9.87454E-01 -7.05317E-02
    9027.201     35.021   3.240  9.21562E-01  9.87631E-01 -6.60695E-02
    9028.195     36.014   3.280  9.26148E-01  9.87924E-01 -6.17765E-02
    9029.201     37.020   3.320  9.31429E-01  9.88371E-01 -5.69423E-02
    9030.219     38.038   3.360  9.37926E-01  9.88971E-01 -5.10444E-02
    9031.249     39.068   3.400  9.46159E-01  9.89699E-01 -4.35398E-02
    9032.292     40.111   3.440  9.56344E-01  9.90553E-01 -3.42095E-02
    9033.346     41.165   3.480  9.68257E-01  9.91530E-01 -2.32728E-02
    9034.413     42.232   3.520  9.80867E-01  9.92605E-01 -1.17372E-02
    9035.492     43.311   3.560  9.92667E-01  9.93818E-01 -1.15103E-03
    9036.583     44.402   3.600  1.00166E+00  9.95124E-01  6.53818E-03
    9037.686     45.506   3.640  1.00633E+00  9.96516E-01  9.80977E-03
    9038.802     46.621   3.680  1.00637E+00  9.97994E-01  8.37661E-03
    9039.930     47.749   3.720  1.00334E+00  9.99574E-01  3.76166E-03
    9041.070     48.889   3.760  9.99387E-01  1.00121E+00 -1.82101E-03
    9042.222     50.041   3.800  9.95879E-01  1.00289E+00 -7.01398E-03
    9043.386     51.205   3.840  9.93131E-01  1.00465E+00 -1.15160E-02
    9044.563     52.382   3.880  9.91343E-01  1.00644E+00 -1.50998E-02
    9045.751     53.571   3.920  9.91369E-01  1.00828E+00 -1.69078E-02
    9046.952     54.772   3.960  9.94713E-01  1.01012E+00 -1.54082E-02
    9048.165     55.985   4.000  1.00289E+00  1.01200E+00 -9.10086E-03
    9049.391     57.210   4.040  1.01643E+00  1.01387E+00  2.55759E-03
    9050.628     58.447   4.080  1.03472E+00  1.01575E+00  1.89681E-02
    9051.878     59.697   4.120  1.05634E+00  1.01763E+00  3.87127E-02
    9053.140     60.959   4.160  1.07993E+00  1.01949E+00  6.04383E-02
    9054.414     62.233   4.200  1.10478E+00  1.02132E+00  8.34545E-02
    9055.700     63.519   4.240  1.13054E+00  1.02311E+00  1.07430E-01
    9056.999     64.818   4.280  1.15638E+00  1.02486E+00  1.31522E-01
    9058.309     66.128   4.320  1.18007E+00  1.02656E+00  1.53506E-01
    9059.632     67.451   4.360  1.19845E+00  1.02821E+00  1.70243E-01
    9060.967     68.786   4.400  1.20909E+00  1.02979E+00  1.79304E-01
    9062.314     70.133   4.440  1.21096E+00  1.03128E+00  1.79675E-01
    9063.674     71.493   4.480  1.20375E+00  1.03269E+00  1.71060E-01
    9065.045     72.864   4.520  1.18733E+00  1.03404E+00  1.53288E-01
    9066.429     74.248   4.560  1.16179E+00  1.03528E+00  1.26503E-01
    9067.825     75.644   4.600  1.12823E+00  1.03641E+00  9.18203E-02
    9069.233     77.052   4.640  1.08941E+00  1.03747E+00  5.19458E-02
    9070.654     78.473   4.680  1.04947E+00  1.03841E+00  1.10571E-02
    9072.086     79.905   4.720  1.01291E+00  1.03923E+00 -2.63248E-02
    9073.531     81.350   4.760  9.83223E-01  1.03996E+00 -5.67377E-02
    9074.988     82.807   4.800  9.61788E-01  1.04057E+00 -7.87820E-02
    9076.457     84.276   4.840  9.48026E-01  1.04108E+00 -9.30555E-02
    9077.938     85.757   4.880  9.40303E-01  1.04145E+00 -1.01145E-01
    9079.432     87.251   4.920  9.37177E-01  1.04172E+00 -1.04543E-01
    9080.937     88.757   4.960  9.38057E-01  1.04189E+00 -1.03836E-01
    9082.455     90.275   5.000  9.43133E-01  1.04192E+00 -9.87910E-02
    9083.985     91.805   5.040  9.52226E-01  1.04186E+00 -8.96325E-02
    9085.528     93.347   5.080  9.63709E-01  1.04170E+00 -7.79911E-02
    9087.082     94.901   5.120  9.74870E-01  1.04142E+00 -6.65539E-02
    9088.649     96.468   5.160  9.83103E-01  1.04103E+00 -5.79310E-02
    9090.228     98.047   5.200  9.87278E-01  1.04058E+00 -5.32972E-02
    9091.819     99.638   5.240  9.88423E-01  1.04001E+00 -5.15833E-02
    9093.422    101.241   5.280  9.89261E-01  1.03933E+00 -5.00648E-02
    9095.037    102.857   5.320  9.92124E-01  1.03859E+00 -4.64637E-02
    9096.665    104.484   5.360  9.97239E-01  1.03779E+00 -4.05535E-02
    9098.305    106.124   5.400  1.00305E+00  1.03690E+00 -3.38458E-02
    9099.957    107.776   5.440  1.00798E+00  1.03594E+00 -2.79673E-02
    9101.621    109.440   5.480  1.01148E+00  1.03492E+00 -2.34465E-02
    9103.297    111.117   5.520  1.01445E+00  1.03388E+00 -1.94230E-02
    9104.986    112.805   5.560  1.01868E+00  1.03277E+00 -1.40893E-02
    9106.687    114.506   5.600  1.02573E+00  1.03161E+00 -5.87751E-03
    9108.400    116.219   5.640  1.03569E+00  1.03042E+00  5.26574E-03
    9110.125    117.944   5.680  1.04685E+00  1.02922E+00  1.76337E-02
    9111.862    119.682   5.720  1.05682E+00  1.02798E+00  2.88376E-02
    9113.612    121.431   5.760  1.06394E+00  1.02675E+00  3.71883E-02
    9115.374    123.193   5.800  1.06754E+00  1.02552E+00  4.20285E-02
    9117.148    124.967   5.840  1.06735E+00  1.02429E+00  4.30604E-02
    9118.934    126.753   5.880  1.06296E+00  1.02307E+00  3.98866E-02
    9120.732    128.551   5.920  1.05433E+00  1.02187E+00  3.24526E-02
    9122.542    130.362   5.960  1.04230E+00  1.02071E+00  2.15853E-02
    9124.365    132.184   6.000  1.02863E+00  1.01959E+00  9.04321E-03
