# # comment:                                                     FEFF 9.9.1  
# # Source:
# # Structure
# # Reduced
# # space
# # abc:
# # angles:113.755361
# # sites:
# # POT  SCF 100  7.0000   0, screened core-hole, AFOLP (folp(0)= 1.150)
# # Abs   Z=29 Rmt= 1.267 Rnm= 1.348 K  shell
# # Pot 1 Z=25 Rmt= 1.294 Rnm= 1.402
# # Pot 2 Z=29 Rmt= 1.269 Rnm= 1.326
# # Pot 3 Z= 8 Rmt= 1.031 Rnm= 1.105
# # Gam_ch=1.729E+00 H-L exch Vi= 0.000E+00 Vr= 0.000E+00
# # Mu=-1.015E+01eV kf=2.169E+00 Vint=-1.776E+01eV Rs_int= 1.672
# FMS rfms= 9.0000
# # PATH  Rmax=-1.000,  Keep_limit= 0.00, Heap_limit 0.00  Pwcrit= 2.50%
#  S02=0.950  Temp=   0.00  Debye_temp=   0.00  Global_sig2= 0.00000
#  Energy zero shift, vr, vi    0.00000E+00   0.00000E+00
#  Curved wave amplitude ratio filter   4.000%
#     file         sig2 tot  cw amp ratio   deg  nlegs   reff  inp sig2
#     0/   0 paths used
#  xsedge+ 50, used to normalize mu           2.4948E-04
#  -----------------------------------------------------------------------
#  omega    e    k    mu    mu0     chi     @#
    8984.090    -13.956  -1.000  3.22617E-02  4.62838E-02 -1.40221E-02
    8984.388    -13.657  -0.960  3.38235E-02  4.94326E-02 -1.56091E-02
    8984.675    -13.371  -0.920  3.55020E-02  5.29148E-02 -1.74127E-02
    8984.949    -13.096  -0.880  3.73115E-02  5.67781E-02 -1.94666E-02
    8985.211    -12.834  -0.840  3.92681E-02  6.10781E-02 -2.18099E-02
    8985.461    -12.584  -0.800  4.13909E-02  6.58788E-02 -2.44879E-02
    8985.699    -12.346  -0.760  4.37016E-02  7.12538E-02 -2.75522E-02
    8985.925    -12.121  -0.720  4.62246E-02  7.72858E-02 -3.10612E-02
    8986.138    -11.907  -0.680  4.89869E-02  8.40658E-02 -3.50789E-02
    8986.339    -11.706  -0.640  5.20165E-02  9.16896E-02 -3.96731E-02
    8986.528    -11.517  -0.600  5.53403E-02  1.00251E-01 -4.49106E-02
    8986.705    -11.341  -0.560  5.89793E-02  1.09829E-01 -5.08496E-02
    8986.869    -11.176  -0.520  6.29419E-02  1.20470E-01 -5.75282E-02
    8987.022    -11.024  -0.480  6.72141E-02  1.32162E-01 -6.49475E-02
    8987.162    -10.883  -0.440  7.17486E-02  1.44801E-01 -7.30525E-02
    8987.290    -10.755  -0.400  7.64571E-02  1.58172E-01 -8.17154E-02
    8987.406    -10.640  -0.360  8.12097E-02  1.71937E-01 -9.07268E-02
    8987.509    -10.536  -0.320  8.58478E-02  1.85653E-01 -9.98054E-02
    8987.601    -10.444  -0.280  9.02070E-02  1.98833E-01 -1.08626E-01
    8987.680    -10.365  -0.240  9.41443E-02  2.11003E-01 -1.16859E-01
    8987.747    -10.298  -0.200  9.75550E-02  2.21767E-01 -1.24212E-01
    8987.802    -10.243  -0.160  1.00376E-01  2.30830E-01 -1.30454E-01
    8987.845    -10.201  -0.120  1.02574E-01  2.38001E-01 -1.35427E-01
    8987.875    -10.170  -0.080  1.04137E-01  2.43172E-01 -1.39035E-01
    8987.900    -10.146   0.000  1.05362E-01  2.47330E-01 -1.41968E-01
    8987.954    -10.091   0.120  1.08318E-01  2.56716E-01 -1.48398E-01
    8987.997    -10.048   0.160  1.10601E-01  2.64033E-01 -1.53432E-01
    8988.052     -9.993   0.200  1.13504E-01  2.73385E-01 -1.59881E-01
    8988.119     -9.926   0.240  1.17011E-01  2.84660E-01 -1.67649E-01
    8988.198     -9.847   0.280  1.21120E-01  2.97658E-01 -1.76538E-01
    8988.290     -9.756   0.320  1.25879E-01  3.12101E-01 -1.86223E-01
    8988.393     -9.652   0.360  1.31376E-01  3.27574E-01 -1.96198E-01
    8988.509     -9.536   0.400  1.37804E-01  3.43717E-01 -2.05912E-01
    8988.637     -9.408   0.440  1.45382E-01  3.60122E-01 -2.14740E-01
    8988.777     -9.268   0.480  1.54296E-01  3.76529E-01 -2.22233E-01
    8988.930     -9.116   0.520  1.64417E-01  3.92740E-01 -2.28323E-01
    8989.094     -8.951   0.560  1.75191E-01  4.08652E-01 -2.33461E-01
    8989.271     -8.774   0.600  1.85661E-01  4.24301E-01 -2.38640E-01
    8989.460     -8.585   0.640  1.94545E-01  4.39691E-01 -2.45147E-01
    8989.661     -8.384   0.680  2.00632E-01  4.54870E-01 -2.54239E-01
    8989.875     -8.171   0.720  2.03163E-01  4.69938E-01 -2.66775E-01
    8990.100     -7.945   0.760  2.02479E-01  4.84951E-01 -2.82472E-01
    8990.338     -7.707   0.800  2.00671E-01  4.99958E-01 -2.99286E-01
    8990.588     -7.457   0.840  2.01038E-01  5.14998E-01 -3.13960E-01
    8990.850     -7.195   0.880  2.06698E-01  5.30140E-01 -3.23442E-01
    8991.124     -6.921   0.920  2.19827E-01  5.45364E-01 -3.25537E-01
    8991.411     -6.634   0.960  2.42500E-01  5.60720E-01 -3.18220E-01
    8991.710     -6.336   1.000  2.77100E-01  5.76188E-01 -2.99088E-01
    8992.020     -6.025   1.040  3.25353E-01  5.91783E-01 -2.66430E-01
    8992.344     -5.702   1.080  3.84655E-01  6.07474E-01 -2.22819E-01
    8992.679     -5.366   1.120  4.43323E-01  6.23263E-01 -1.79939E-01
    8993.026     -5.019   1.160  4.80133E-01  6.39127E-01 -1.58994E-01
    8993.386     -4.659   1.200  4.80802E-01  6.55023E-01 -1.74222E-01
    8993.758     -4.288   1.240  4.60693E-01  6.70921E-01 -2.10229E-01
    8994.142     -3.903   1.280  4.47675E-01  6.86792E-01 -2.39117E-01
    8994.538     -3.507   1.320  4.51733E-01  7.02623E-01 -2.50890E-01
    8994.947     -3.099   1.360  4.70416E-01  7.18358E-01 -2.47942E-01
    8995.367     -2.678   1.400  5.00940E-01  7.33943E-01 -2.33003E-01
    8995.800     -2.245   1.440  5.40155E-01  7.49362E-01 -2.09208E-01
    8996.245     -1.800   1.480  5.86193E-01  7.64579E-01 -1.78387E-01
    8996.702     -1.343   1.520  6.42633E-01  7.79557E-01 -1.36925E-01
    8997.172     -0.874   1.560  7.09760E-01  7.94260E-01 -8.44998E-02
    8997.653     -0.392   1.600  7.68447E-01  8.08631E-01 -4.01837E-02
    8998.147      0.102   1.640  7.91313E-01  8.22635E-01 -3.13216E-02
    8998.653      0.608   1.680  7.80319E-01  8.36276E-01 -5.59575E-02
    8999.171      1.126   1.720  7.67712E-01  8.49503E-01 -8.17910E-02
    8999.701      1.656   1.760  7.83329E-01  8.62303E-01 -7.89738E-02
    9000.244      2.199   1.800  8.42417E-01  8.74622E-01 -3.22055E-02
    9000.799      2.753   1.840  9.55184E-01  8.86452E-01  6.87315E-02
    9001.366      3.320   1.880  1.12243E+00  8.97784E-01  2.24643E-01
    9001.945      3.899   1.920  1.30311E+00  9.08610E-01  3.94503E-01
    9002.536      4.491   1.960  1.40097E+00  9.18885E-01  4.82081E-01
    9003.140      5.094   2.000  1.36572E+00  9.28626E-01  4.37097E-01
    9003.755      5.710   2.040  1.27845E+00  9.37827E-01  3.40623E-01
    9004.383      6.338   2.080  1.22971E+00  9.46468E-01  2.83246E-01
    9005.023      6.978   2.120  1.22883E+00  9.54571E-01  2.74259E-01
    9005.675      7.630   2.160  1.24886E+00  9.62114E-01  2.86747E-01
    9006.340      8.295   2.200  1.28207E+00  9.69100E-01  3.12974E-01
    9007.017      8.971   2.240  1.31956E+00  9.75573E-01  3.43990E-01
    9007.705      9.660   2.280  1.32141E+00  9.81497E-01  3.39913E-01
    9008.406     10.361   2.320  1.27319E+00  9.86899E-01  2.86287E-01
    9009.120     11.074   2.360  1.20212E+00  9.91806E-01  2.10312E-01
    9009.845     11.800   2.400  1.11806E+00  9.96224E-01  1.21838E-01
    9010.583     12.537   2.440  1.02477E+00  1.00016E+00  2.46065E-02
    9011.333     13.287   2.480  9.53822E-01  1.00363E+00 -4.98041E-02
    9012.095     14.049   2.520  9.24011E-01  1.00667E+00 -8.26572E-02
    9012.869     14.823   2.560  9.25994E-01  1.00928E+00 -8.32847E-02
    9013.655     15.610   2.600  9.47757E-01  1.01151E+00 -6.37520E-02
    9014.454     16.408   2.640  9.65383E-01  1.01335E+00 -4.79624E-02
    9015.264     17.219   2.680  9.78508E-01  1.01482E+00 -3.63133E-02
    9016.087     18.042   2.720  9.87102E-01  1.01597E+00 -2.88666E-02
    9016.923     18.877   2.760  9.89803E-01  1.01681E+00 -2.70117E-02
    9017.770     19.725   2.800  9.87366E-01  1.01733E+00 -2.99652E-02
    9018.629     20.584   2.840  9.82781E-01  1.01761E+00 -3.48281E-02
    9019.501     21.456   2.880  9.78098E-01  1.01760E+00 -3.94996E-02
    9020.385     22.340   2.920  9.74318E-01  1.01739E+00 -4.30705E-02
    9021.281     23.236   2.960  9.70803E-01  1.01693E+00 -4.61277E-02
    9022.189     24.144   3.000  9.65858E-01  1.01632E+00 -5.04575E-02
    9023.110     25.065   3.040  9.57699E-01  1.01549E+00 -5.77913E-02
    9024.043     25.997   3.080  9.46212E-01  1.01453E+00 -6.83150E-02
    9024.988     26.942   3.120  9.32848E-01  1.01343E+00 -8.05863E-02
    9025.945     27.899   3.160  9.19782E-01  1.01222E+00 -9.24373E-02
    9026.914     28.869   3.200  9.08700E-01  1.01089E+00 -1.02190E-01
    9027.895     29.850   3.240  9.00364E-01  1.00947E+00 -1.09109E-01
    9028.889     30.844   3.280  8.94847E-01  1.00798E+00 -1.13132E-01
    9029.895     31.849   3.320  8.92070E-01  1.00641E+00 -1.14341E-01
    9030.913     32.867   3.360  8.91990E-01  1.00482E+00 -1.12829E-01
    9031.943     33.898   3.400  8.93928E-01  1.00317E+00 -1.09239E-01
    9032.985     34.940   3.440  8.97189E-01  1.00150E+00 -1.04316E-01
    9034.040     35.995   3.480  9.01122E-01  9.99835E-01 -9.87130E-02
    9035.107     37.061   3.520  9.05334E-01  9.98165E-01 -9.28315E-02
    9036.186     38.140   3.560  9.09701E-01  9.96499E-01 -8.67973E-02
    9037.277     39.232   3.600  9.14601E-01  9.94859E-01 -8.02581E-02
    9038.380     40.335   3.640  9.20562E-01  9.93231E-01 -7.26686E-02
    9039.496     41.451   3.680  9.28117E-01  9.91639E-01 -6.35213E-02
    9040.624     42.578   3.720  9.37675E-01  9.90086E-01 -5.24116E-02
    9041.764     43.718   3.760  9.49367E-01  9.88596E-01 -3.92294E-02
    9042.916     44.870   3.800  9.62836E-01  9.87132E-01 -2.42957E-02
    9044.080     46.035   3.840  9.77724E-01  9.85756E-01 -8.03182E-03
    9045.257     47.211   3.880  9.93743E-01  9.84410E-01  9.33269E-03
    9046.445     48.400   3.920  1.01076E+00  9.83156E-01  2.76024E-02
    9047.646     49.601   3.960  1.02815E+00  9.81957E-01  4.61960E-02
    9048.859     50.814   4.000  1.04487E+00  9.80834E-01  6.40346E-02
    9050.085     52.039   4.040  1.05951E+00  9.79787E-01  7.97251E-02
    9051.322     53.277   4.080  1.07096E+00  9.78819E-01  9.21371E-02
    9052.572     54.526   4.120  1.07920E+00  9.77930E-01  1.01267E-01
    9053.834     55.788   4.160  1.08536E+00  9.77121E-01  1.08240E-01
    9055.108     57.062   4.200  1.09091E+00  9.76392E-01  1.14514E-01
    9056.394     58.349   4.240  1.09688E+00  9.75743E-01  1.21137E-01
    9057.692     59.647   4.280  1.10345E+00  9.75175E-01  1.28276E-01
    9059.003     60.958   4.320  1.10958E+00  9.74708E-01  1.34872E-01
    9060.326     62.281   4.360  1.11267E+00  9.74299E-01  1.38371E-01
    9061.661     63.616   4.400  1.10920E+00  9.73968E-01  1.35236E-01
    9063.008     64.963   4.440  1.09623E+00  9.73716E-01  1.22511E-01
    9064.368     66.322   4.480  1.07321E+00  9.73542E-01  9.96650E-02
    9065.739     67.694   4.520  1.04247E+00  9.73446E-01  6.90290E-02
    9067.123     69.078   4.560  1.00824E+00  9.73425E-01  3.48136E-02
    9068.519     70.474   4.600  9.74848E-01  9.73481E-01  1.36702E-03
    9069.927     71.882   4.640  9.45536E-01  9.73587E-01 -2.80508E-02
    9071.347     73.302   4.680  9.22056E-01  9.73764E-01 -5.17077E-02
    9072.780     74.735   4.720  9.04977E-01  9.73992E-01 -6.90142E-02
    9074.225     76.179   4.760  8.94300E-01  9.74287E-01 -7.99868E-02
    9075.682     77.636   4.800  8.89605E-01  9.74629E-01 -8.50239E-02
    9077.151     79.105   4.840  8.90245E-01  9.75037E-01 -8.47913E-02
    9078.632     80.587   4.880  8.95404E-01  9.75466E-01 -8.00612E-02
    9080.126     82.080   4.920  9.04484E-01  9.75954E-01 -7.14702E-02
    9081.631     83.586   4.960  9.17161E-01  9.76461E-01 -5.93004E-02
    9083.149     85.104   5.000  9.33126E-01  9.77027E-01 -4.39009E-02
    9084.679     86.634   5.040  9.51329E-01  9.77605E-01 -2.62768E-02
    9086.222     88.176   5.080  9.69824E-01  9.78214E-01 -8.39073E-03
    9087.776     89.731   5.120  9.86071E-01  9.78830E-01  7.24046E-03
    9089.343     91.297   5.160  9.98026E-01  9.79453E-01  1.85723E-02
    9090.922     92.876   5.200  1.00504E+00  9.80103E-01  2.49414E-02
    9092.513     94.467   5.240  1.00782E+00  9.80755E-01  2.70629E-02
    9094.116     96.071   5.280  1.00744E+00  9.81408E-01  2.60320E-02
    9095.731     97.686   5.320  1.00441E+00  9.82059E-01  2.23473E-02
    9097.359     99.314   5.360  9.98514E-01  9.82705E-01  1.58088E-02
    9098.999    100.953   5.400  9.89517E-01  9.83324E-01  6.19294E-03
    9100.651    102.605   5.440  9.77998E-01  9.83935E-01 -5.93660E-03
    9102.315    104.270   5.480  9.65410E-01  9.84537E-01 -1.91279E-02
    9103.991    105.946   5.520  9.53490E-01  9.85106E-01 -3.16161E-02
    9105.680    107.635   5.560  9.43475E-01  9.85638E-01 -4.21630E-02
    9107.381    109.335   5.600  9.35686E-01  9.86133E-01 -5.04469E-02
    9109.094    111.048   5.640  9.29676E-01  9.86612E-01 -5.69361E-02
    9110.819    112.773   5.680  9.24787E-01  9.87030E-01 -6.22429E-02
    9112.556    114.511   5.720  9.20890E-01  9.87428E-01 -6.65388E-02
    9114.306    116.260   5.760  9.18241E-01  9.87763E-01 -6.95219E-02
    9116.067    118.022   5.800  9.17276E-01  9.88052E-01 -7.07763E-02
    9117.841    119.796   5.840  9.18472E-01  9.88299E-01 -6.98268E-02
    9119.628    121.582   5.880  9.22507E-01  9.88501E-01 -6.59940E-02
    9121.426    123.380   5.920  9.30211E-01  9.88631E-01 -5.84200E-02
    9123.236    125.191   5.960  9.42196E-01  9.88706E-01 -4.65104E-02
    9125.059    127.014   6.000  9.58908E-01  9.88706E-01 -2.97978E-02
