# # comment:                                                     FEFF 9.9.1  
# # Source:
# # Structure
# # Reduced
# # space
# # abc:
# # angles:
# # sites:
# # POT  SCF 100  7.0000   0, screened core-hole, AFOLP (folp(0)= 1.150)
# # Abs   Z=29 Rmt= 1.191 Rnm= 1.325 K  shell
# # Pot 1 Z=21 Rmt= 1.462 Rnm= 1.542
# # Pot 2 Z=29 Rmt= 1.157 Rnm= 1.272
# # Pot 3 Z= 8 Rmt= 1.028 Rnm= 1.113
# # Gam_ch=1.729E+00 H-L exch Vi= 0.000E+00 Vr= 0.000E+00
# # Mu=-9.586E+00eV kf=2.129E+00 Vint=-1.864E+01eV Rs_int= 1.703
# FMS rfms= 9.0000
# # PATH  Rmax=-1.000,  Keep_limit= 0.00, Heap_limit 0.00  Pwcrit= 2.50%
#  S02=0.950  Temp=   0.00  Debye_temp=   0.00  Global_sig2= 0.00000
#  Energy zero shift, vr, vi    0.00000E+00   0.00000E+00
#  Curved wave amplitude ratio filter   4.000%
#     file         sig2 tot  cw amp ratio   deg  nlegs   reff  inp sig2
#     0/   0 paths used
#  xsedge+ 50, used to normalize mu           2.5011E-04
#  -----------------------------------------------------------------------
#  omega    e    k    mu    mu0     chi     @#
    8984.468    -13.396  -1.000  4.12877E-02  5.03613E-02 -9.07359E-03
    8984.767    -13.097  -0.960  4.39830E-02  5.39383E-02 -9.95534E-03
    8985.053    -12.811  -0.920  4.69798E-02  5.79076E-02 -1.09278E-02
    8985.327    -12.537  -0.880  5.03276E-02  6.23266E-02 -1.19991E-02
    8985.590    -12.274  -0.840  5.40849E-02  6.72622E-02 -1.31773E-02
    8985.839    -12.025  -0.800  5.83213E-02  7.27917E-02 -1.44704E-02
    8986.077    -11.787  -0.760  6.31181E-02  7.90038E-02 -1.58857E-02
    8986.303    -11.561  -0.720  6.85695E-02  8.59990E-02 -1.74294E-02
    8986.516    -11.348  -0.680  7.47813E-02  9.38875E-02 -1.91062E-02
    8986.717    -11.147  -0.640  8.18675E-02  1.02786E-01 -2.09184E-02
    8986.906    -10.958  -0.600  8.99425E-02  1.12808E-01 -2.28659E-02
    8987.083    -10.781  -0.560  9.91062E-02  1.24053E-01 -2.49463E-02
    8987.248    -10.616  -0.520  1.09420E-01  1.36576E-01 -2.71562E-02
    8987.400    -10.464  -0.480  1.20872E-01  1.50365E-01 -2.94926E-02
    8987.540    -10.324  -0.440  1.33343E-01  1.65299E-01 -3.19556E-02
    8987.668    -10.196  -0.400  1.46570E-01  1.81118E-01 -3.45479E-02
    8987.784    -10.080  -0.360  1.60146E-01  1.97416E-01 -3.72704E-02
    8987.888     -9.976  -0.320  1.73552E-01  2.13665E-01 -4.01124E-02
    8987.979     -9.885  -0.280  1.86240E-01  2.29276E-01 -4.30367E-02
    8988.058     -9.806  -0.240  1.97717E-01  2.43687E-01 -4.59696E-02
    8988.125     -9.739  -0.200  2.07623E-01  2.56422E-01 -4.87993E-02
    8988.180     -9.684  -0.160  2.15750E-01  2.67137E-01 -5.13872E-02
    8988.223     -9.641  -0.120  2.22018E-01  2.75608E-01 -5.35898E-02
    8988.253     -9.611  -0.080  2.26428E-01  2.81711E-01 -5.52835E-02
    8988.278     -9.586   0.000  2.29840E-01  2.86616E-01 -5.67757E-02
    8988.333     -9.531   0.120  2.37283E-01  2.97673E-01 -6.03902E-02
    8988.375     -9.489   0.160  2.43037E-01  3.06265E-01 -6.32282E-02
    8988.430     -9.434   0.200  2.50195E-01  3.17247E-01 -6.70517E-02
    8988.497     -9.367   0.240  2.58471E-01  3.30471E-01 -7.19996E-02
    8988.577     -9.287   0.280  2.67446E-01  3.45660E-01 -7.82138E-02
    8988.668     -9.196   0.320  2.76637E-01  3.62432E-01 -8.57945E-02
    8988.772     -9.092   0.360  2.85542E-01  3.80313E-01 -9.47710E-02
    8988.887     -8.977   0.400  2.93738E-01  3.98803E-01 -1.05065E-01
    8989.015     -8.849   0.440  3.00944E-01  4.17419E-01 -1.16475E-01
    8989.156     -8.708   0.480  3.07173E-01  4.35828E-01 -1.28655E-01
    8989.308     -8.556   0.520  3.12632E-01  4.53764E-01 -1.41132E-01
    8989.473     -8.391   0.560  3.17810E-01  4.71146E-01 -1.53337E-01
    8989.649     -8.215   0.600  3.23216E-01  4.87945E-01 -1.64729E-01
    8989.838     -8.026   0.640  3.29232E-01  5.04192E-01 -1.74960E-01
    8990.040     -7.824   0.680  3.36074E-01  5.19996E-01 -1.83922E-01
    8990.253     -7.611   0.720  3.43527E-01  5.35413E-01 -1.91886E-01
    8990.478     -7.386   0.760  3.50729E-01  5.50519E-01 -1.99789E-01
    8990.716     -7.148   0.800  3.56030E-01  5.65423E-01 -2.09392E-01
    8990.966     -6.898   0.840  3.58058E-01  5.80181E-01 -2.22123E-01
    8991.228     -6.636   0.880  3.56747E-01  5.94817E-01 -2.38070E-01
    8991.503     -6.361   0.920  3.52625E-01  6.09383E-01 -2.56758E-01
    8991.789     -6.075   0.960  3.46006E-01  6.23880E-01 -2.77874E-01
    8992.088     -5.776   1.000  3.37857E-01  6.38381E-01 -3.00524E-01
    8992.399     -5.465   1.040  3.30254E-01  6.52828E-01 -3.22574E-01
    8992.722     -5.142   1.080  3.26318E-01  6.67257E-01 -3.40938E-01
    8993.057     -4.807   1.120  3.28923E-01  6.81640E-01 -3.52717E-01
    8993.405     -4.459   1.160  3.38754E-01  6.95959E-01 -3.57206E-01
    8993.764     -4.100   1.200  3.54632E-01  7.10218E-01 -3.55586E-01
    8994.136     -3.728   1.240  3.76577E-01  7.24395E-01 -3.47819E-01
    8994.520     -3.344   1.280  4.07372E-01  7.38445E-01 -3.31073E-01
    8994.916     -2.948   1.320  4.50808E-01  7.52341E-01 -3.01533E-01
    8995.325     -2.539   1.360  5.09412E-01  7.66075E-01 -2.56663E-01
    8995.745     -2.119   1.400  5.85322E-01  7.79620E-01 -1.94298E-01
    8996.178     -1.686   1.440  6.80536E-01  7.92921E-01 -1.12385E-01
    8996.623     -1.241   1.480  7.87517E-01  8.05971E-01 -1.84536E-02
    8997.080     -0.784   1.520  8.84425E-01  8.18759E-01  6.56662E-02
    8997.550     -0.314   1.560  9.58794E-01  8.31214E-01  1.27579E-01
    8998.031      0.167   1.600  1.01568E+00  8.43347E-01  1.72329E-01
    8998.525      0.661   1.640  1.05798E+00  8.55127E-01  2.02856E-01
    8999.031      1.167   1.680  1.08929E+00  8.66547E-01  2.22742E-01
    8999.549      1.685   1.720  1.11316E+00  8.77556E-01  2.35608E-01
    9000.080      2.216   1.760  1.12656E+00  8.88147E-01  2.38415E-01
    9000.622      2.758   1.800  1.12444E+00  8.98315E-01  2.26121E-01
    9001.177      3.313   1.840  1.10427E+00  9.08034E-01  1.96232E-01
    9001.744      3.880   1.880  1.06847E+00  9.17320E-01  1.51151E-01
    9002.323      4.459   1.920  1.02935E+00  9.26130E-01  1.03224E-01
    9002.914      5.050   1.960  1.00236E+00  9.34481E-01  6.78806E-02
    9003.518      5.654   2.000  9.95441E-01  9.42373E-01  5.30678E-02
    9004.133      6.269   2.040  1.01277E+00  9.49787E-01  6.29871E-02
    9004.761      6.897   2.080  1.04980E+00  9.56743E-01  9.30526E-02
    9005.401      7.537   2.120  1.08207E+00  9.63243E-01  1.18824E-01
    9006.054      8.190   2.160  1.08362E+00  9.69268E-01  1.14348E-01
    9006.718      8.854   2.200  1.05872E+00  9.74845E-01  8.38735E-02
    9007.395      9.531   2.240  1.02902E+00  9.79999E-01  4.90204E-02
    9008.084     10.220   2.280  1.00985E+00  9.84712E-01  2.51346E-02
    9008.785     10.921   2.320  1.01090E+00  9.88990E-01  2.19067E-02
    9009.498     11.634   2.360  1.03669E+00  9.92862E-01  4.38287E-02
    9010.223     12.359   2.400  1.08713E+00  9.96354E-01  9.07807E-02
    9010.961     13.097   2.440  1.15589E+00  9.99453E-01  1.56438E-01
    9011.711     13.847   2.480  1.22790E+00  1.00219E+00  2.25713E-01
    9012.473     14.609   2.520  1.27483E+00  1.00459E+00  2.70240E-01
    9013.247     15.383   2.560  1.25813E+00  1.00663E+00  2.51497E-01
    9014.033     16.169   2.600  1.20905E+00  1.00838E+00  2.00664E-01
    9014.832     16.968   2.640  1.15464E+00  1.00982E+00  1.44824E-01
    9015.643     17.779   2.680  1.10588E+00  1.01097E+00  9.49066E-02
    9016.466     18.602   2.720  1.06616E+00  1.01187E+00  5.42813E-02
    9017.301     19.437   2.760  1.03498E+00  1.01253E+00  2.24511E-02
    9018.148     20.284   2.800  1.00994E+00  1.01293E+00 -2.98623E-03
    9019.008     21.144   2.840  9.89105E-01  1.01313E+00 -2.40277E-02
    9019.879     22.015   2.880  9.71005E-01  1.01314E+00 -4.21335E-02
    9020.763     22.899   2.920  9.54589E-01  1.01295E+00 -5.83634E-02
    9021.659     23.795   2.960  9.39376E-01  1.01260E+00 -7.32244E-02
    9022.568     24.704   3.000  9.25115E-01  1.01209E+00 -8.69738E-02
    9023.488     25.624   3.040  9.12063E-01  1.01145E+00 -9.93851E-02
    9024.421     26.557   3.080  9.01051E-01  1.01069E+00 -1.09635E-01
    9025.366     27.502   3.120  8.92864E-01  1.00981E+00 -1.16943E-01
    9026.323     28.459   3.160  8.87777E-01  1.00884E+00 -1.21061E-01
    9027.292     29.428   3.200  8.85741E-01  1.00779E+00 -1.22044E-01
    9028.274     30.410   3.240  8.86651E-01  1.00665E+00 -1.20003E-01
    9029.267     31.403   3.280  8.90192E-01  1.00545E+00 -1.15258E-01
    9030.273     32.409   3.320  8.96027E-01  1.00420E+00 -1.08174E-01
    9031.291     33.427   3.360  9.03816E-01  1.00293E+00 -9.91141E-02
    9032.321     34.457   3.400  9.13171E-01  1.00160E+00 -8.84316E-02
    9033.364     35.500   3.440  9.23697E-01  1.00026E+00 -7.65666E-02
    9034.418     36.554   3.480  9.35114E-01  9.98919E-01 -6.38054E-02
    9035.485     37.621   3.520  9.47054E-01  9.97571E-01 -5.05170E-02
    9036.564     38.700   3.560  9.58769E-01  9.96221E-01 -3.74519E-02
    9037.655     39.791   3.600  9.69201E-01  9.94874E-01 -2.56734E-02
    9038.759     40.895   3.640  9.77176E-01  9.93533E-01 -1.63567E-02
    9039.874     42.010   3.680  9.81789E-01  9.92223E-01 -1.04339E-02
    9041.002     43.138   3.720  9.82690E-01  9.90947E-01 -8.25624E-03
    9042.142     44.278   3.760  9.80332E-01  9.89704E-01 -9.37265E-03
    9043.294     45.430   3.800  9.75818E-01  9.88479E-01 -1.26614E-02
    9044.458     46.594   3.840  9.70719E-01  9.87313E-01 -1.65936E-02
    9045.635     47.771   3.880  9.66664E-01  9.86166E-01 -1.95022E-02
    9046.824     48.960   3.920  9.64955E-01  9.85083E-01 -2.01280E-02
    9048.024     50.160   3.960  9.66077E-01  9.84045E-01 -1.79680E-02
    9049.238     51.374   4.000  9.69769E-01  9.83073E-01 -1.33039E-02
    9050.463     52.599   4.040  9.75195E-01  9.82147E-01 -6.95242E-03
    9051.700     53.836   4.080  9.81288E-01  9.81267E-01  2.02993E-05
    9052.950     55.086   4.120  9.87012E-01  9.80455E-01  6.55660E-03
    9054.212     56.348   4.160  9.91698E-01  9.79690E-01  1.20079E-02
    9055.486     57.622   4.200  9.95256E-01  9.78973E-01  1.62828E-02
    9056.772     58.908   4.240  9.98323E-01  9.78348E-01  1.99749E-02
    9058.071     60.207   4.280  1.00196E+00  9.77752E-01  2.42051E-02
    9059.381     61.517   4.320  1.00739E+00  9.77246E-01  3.01492E-02
    9060.704     62.840   4.360  1.01523E+00  9.76789E-01  3.84366E-02
    9062.039     64.175   4.400  1.02517E+00  9.76378E-01  4.87928E-02
    9063.386     65.522   4.440  1.03612E+00  9.76015E-01  6.01092E-02
    9064.746     66.882   4.480  1.04636E+00  9.75741E-01  7.06168E-02
    9066.117     68.253   4.520  1.05381E+00  9.75494E-01  7.83170E-02
    9067.501     69.637   4.560  1.05694E+00  9.75314E-01  8.16267E-02
    9068.897     71.033   4.600  1.05516E+00  9.75179E-01  7.99849E-02
    9070.305     72.441   4.640  1.04910E+00  9.75112E-01  7.39900E-02
    9071.726     73.862   4.680  1.03996E+00  9.75089E-01  6.48698E-02
    9073.158     75.294   4.720  1.02899E+00  9.75106E-01  5.38848E-02
    9074.603     76.739   4.760  1.01727E+00  9.75164E-01  4.21101E-02
    9076.060     78.196   4.800  1.00574E+00  9.75262E-01  3.04736E-02
    9077.529     79.665   4.840  9.95097E-01  9.75398E-01  1.96982E-02
    9079.010     81.146   4.880  9.85742E-01  9.75573E-01  1.01686E-02
    9080.504     82.640   4.920  9.77636E-01  9.75783E-01  1.85222E-03
    9082.010     84.146   4.960  9.70403E-01  9.76008E-01 -5.60503E-03
    9083.527     85.663   5.000  9.63757E-01  9.76290E-01 -1.25328E-02
    9085.058     87.194   5.040  9.57718E-01  9.76582E-01 -1.88640E-02
    9086.600     88.736   5.080  9.52723E-01  9.76884E-01 -2.41615E-02
    9088.154     90.290   5.120  9.49322E-01  9.77238E-01 -2.79157E-02
    9089.721     91.857   5.160  9.47741E-01  9.77577E-01 -2.98357E-02
    9091.300     93.436   5.200  9.48093E-01  9.77943E-01 -2.98497E-02
    9092.891     95.027   5.240  9.50198E-01  9.78312E-01 -2.81138E-02
    9094.494     96.630   5.280  9.53591E-01  9.78683E-01 -2.50925E-02
    9096.110     98.246   5.320  9.57555E-01  9.79056E-01 -2.15012E-02
    9097.737     99.873   5.360  9.61480E-01  9.79451E-01 -1.79706E-02
    9099.377    101.513   5.400  9.65068E-01  9.79823E-01 -1.47541E-02
    9101.029    103.165   5.440  9.68407E-01  9.80190E-01 -1.17833E-02
    9102.693    104.829   5.480  9.71467E-01  9.80553E-01 -9.08614E-03
    9104.370    106.506   5.520  9.73865E-01  9.80890E-01 -7.02492E-03
    9106.058    108.194   5.560  9.75150E-01  9.81243E-01 -6.09279E-03
    9107.759    109.895   5.600  9.75042E-01  9.81567E-01 -6.52524E-03
    9109.472    111.608   5.640  9.73827E-01  9.81858E-01 -8.03080E-03
    9111.197    113.333   5.680  9.72416E-01  9.82138E-01 -9.72225E-03
    9112.934    115.070   5.720  9.71948E-01  9.82387E-01 -1.04385E-02
    9114.684    116.820   5.760  9.73260E-01  9.82623E-01 -9.36265E-03
    9116.446    118.582   5.800  9.76215E-01  9.82801E-01 -6.58608E-03
    9118.220    120.356   5.840  9.79819E-01  9.82990E-01 -3.17139E-03
    9120.006    122.142   5.880  9.82426E-01  9.83121E-01 -6.94690E-04
    9121.804    123.940   5.920  9.82597E-01  9.83237E-01 -6.39497E-04
    9123.615    125.751   5.960  9.79440E-01  9.83284E-01 -3.84424E-03
    9125.437    127.573   6.000  9.73154E-01  9.83301E-01 -1.01466E-02
