# # comment:                                                     FEFF 9.9.1  
# # Source:
# # Structure
# # Reduced
# # space
# # abc:
# # angles:
# # sites:
# # POT  SCF 100  7.0000   0, screened core-hole, AFOLP (folp(0)= 1.150)
# # Abs   Z=29 Rmt= 1.271 Rnm= 1.340 K  shell
# # Pot 1 Z=29 Rmt= 1.285 Rnm= 1.351
# # Pot 2 Z= 1 Rmt= 0.909 Rnm= 0.959
# # Pot 3 Z= 6 Rmt= 0.709 Rnm= 0.926
# # Pot 4 Z= 8 Rmt= 0.846 Rnm= 1.019
# # Gam_ch=1.729E+00 H-L exch Vi= 0.000E+00 Vr= 0.000E+00
# # Mu=-6.644E+00eV kf=2.557E+00 Vint=-1.672E+01eV Rs_int= 1.418
# FMS rfms= 9.0000
# # PATH  Rmax=-1.000,  Keep_limit= 0.00, Heap_limit 0.00  Pwcrit= 2.50%
#  S02=0.950  Temp=   0.00  Debye_temp=   0.00  Global_sig2= 0.00000
#  Energy zero shift, vr, vi    0.00000E+00   0.00000E+00
#  Curved wave amplitude ratio filter   4.000%
#     file         sig2 tot  cw amp ratio   deg  nlegs   reff  inp sig2
#     0/   0 paths used
#  xsedge+ 50, used to normalize mu           2.4833E-04
#  -----------------------------------------------------------------------
#  omega    e    k    mu    mu0     chi     @#
    8983.292    -10.454  -1.000  3.93560E-02  5.17835E-02 -1.24274E-02
    8983.591    -10.156  -0.960  4.17330E-02  5.55252E-02 -1.37923E-02
    8983.878     -9.869  -0.920  4.43520E-02  5.96837E-02 -1.53317E-02
    8984.152     -9.595  -0.880  4.72504E-02  6.43206E-02 -1.70702E-02
    8984.414     -9.333  -0.840  5.04717E-02  6.95076E-02 -1.90359E-02
    8984.664     -9.083  -0.800  5.40676E-02  7.53279E-02 -2.12603E-02
    8984.902     -8.845  -0.760  5.80979E-02  8.18771E-02 -2.37792E-02
    8985.127     -8.619  -0.720  6.26317E-02  8.92632E-02 -2.66315E-02
    8985.341     -8.406  -0.680  6.77459E-02  9.76052E-02 -2.98593E-02
    8985.542     -8.205  -0.640  7.35233E-02  1.07029E-01 -3.35056E-02
    8985.731     -8.016  -0.600  8.00463E-02  1.17658E-01 -3.76115E-02
    8985.908     -7.839  -0.560  8.73867E-02  1.29598E-01 -4.22108E-02
    8986.072     -7.674  -0.520  9.55889E-02  1.42911E-01 -4.73222E-02
    8986.224     -7.522  -0.480  1.04646E-01  1.57585E-01 -5.29386E-02
    8986.365     -7.382  -0.440  1.14474E-01  1.73490E-01 -5.90154E-02
    8986.493     -7.254  -0.400  1.24888E-01  1.90348E-01 -6.54600E-02
    8986.609     -7.138  -0.360  1.35595E-01  2.07723E-01 -7.21279E-02
    8986.712     -7.034  -0.320  1.46219E-01  2.25048E-01 -7.88294E-02
    8986.804     -6.943  -0.280  1.56345E-01  2.41693E-01 -8.53475E-02
    8986.883     -6.864  -0.240  1.65591E-01  2.57053E-01 -9.14612E-02
    8986.950     -6.797  -0.200  1.73655E-01  2.70622E-01 -9.69670E-02
    8987.005     -6.742  -0.160  1.80341E-01  2.82033E-01 -1.01691E-01
    8987.047     -6.699  -0.120  1.85553E-01  2.91049E-01 -1.05496E-01
    8987.078     -6.669  -0.080  1.89264E-01  2.97543E-01 -1.08278E-01
    8987.102     -6.644   0.000  1.92217E-01  3.02758E-01 -1.10541E-01
    8987.157     -6.589   0.120  1.98640E-01  3.14507E-01 -1.15868E-01
    8987.200     -6.547   0.160  2.03544E-01  3.23643E-01 -1.20099E-01
    8987.255     -6.492   0.200  2.09633E-01  3.35293E-01 -1.25660E-01
    8987.322     -6.425   0.240  2.16700E-01  3.49312E-01 -1.32612E-01
    8987.401     -6.346   0.280  2.24370E-01  3.65369E-01 -1.40999E-01
    8987.492     -6.254   0.320  2.32249E-01  3.83065E-01 -1.50816E-01
    8987.596     -6.150   0.360  2.39902E-01  4.01880E-01 -1.61978E-01
    8987.712     -6.035   0.400  2.46990E-01  4.21258E-01 -1.74268E-01
    8987.840     -5.907   0.440  2.53319E-01  4.40657E-01 -1.87338E-01
    8987.980     -5.766   0.480  2.58995E-01  4.59729E-01 -2.00734E-01
    8988.133     -5.614   0.520  2.64176E-01  4.78185E-01 -2.14008E-01
    8988.297     -5.449   0.560  2.69165E-01  4.95891E-01 -2.26726E-01
    8988.474     -5.273   0.600  2.74436E-01  5.12881E-01 -2.38445E-01
    8988.663     -5.084   0.640  2.80647E-01  5.29173E-01 -2.48526E-01
    8988.864     -4.882   0.680  2.88730E-01  5.44841E-01 -2.56111E-01
    8989.077     -4.669   0.720  2.99693E-01  5.60012E-01 -2.60320E-01
    8989.303     -4.444   0.760  3.13913E-01  5.74754E-01 -2.60841E-01
    8989.541     -4.206   0.800  3.30420E-01  5.89165E-01 -2.58745E-01
    8989.791     -3.956   0.840  3.46950E-01  6.03312E-01 -2.56361E-01
    8990.053     -3.694   0.880  3.61021E-01  6.17265E-01 -2.56244E-01
    8990.327     -3.419   0.920  3.70688E-01  6.31068E-01 -2.60380E-01
    8990.614     -3.133   0.960  3.75144E-01  6.44747E-01 -2.69604E-01
    8990.912     -2.834   1.000  3.75631E-01  6.58321E-01 -2.82690E-01
    8991.223     -2.523   1.040  3.75801E-01  6.71799E-01 -2.95998E-01
    8991.546     -2.200   1.080  3.80216E-01  6.85222E-01 -3.05005E-01
    8991.882     -1.865   1.120  3.91138E-01  6.98547E-01 -3.07408E-01
    8992.229     -1.518   1.160  4.07287E-01  7.11783E-01 -3.04496E-01
    8992.589     -1.158   1.200  4.25398E-01  7.24916E-01 -2.99518E-01
    8992.961     -0.786   1.240  4.42990E-01  7.37949E-01 -2.94959E-01
    8993.345     -0.402   1.280  4.60967E-01  7.50842E-01 -2.89875E-01
    8993.741     -0.006   1.320  4.82687E-01  7.63591E-01 -2.80904E-01
    8994.149      0.403   1.360  5.09748E-01  7.76152E-01 -2.66403E-01
    8994.570      0.823   1.400  5.43393E-01  7.88539E-01 -2.45146E-01
    8995.003      1.256   1.440  5.83536E-01  8.00686E-01 -2.17150E-01
    8995.448      1.701   1.480  6.26506E-01  8.12604E-01 -1.86098E-01
    8995.905      2.158   1.520  6.71818E-01  8.24268E-01 -1.52450E-01
    8996.374      2.628   1.560  7.25906E-01  8.35649E-01 -1.09743E-01
    8996.856      3.109   1.600  7.96159E-01  8.46739E-01 -5.05799E-02
    8997.350      3.603   1.640  8.81303E-01  8.57490E-01  2.38130E-02
    8997.856      4.109   1.680  9.69512E-01  8.67917E-01  1.01595E-01
    8998.374      4.627   1.720  1.04608E+00  8.77991E-01  1.68087E-01
    8998.904      5.158   1.760  1.10181E+00  8.87688E-01  2.14121E-01
    8999.447      5.700   1.800  1.14215E+00  8.97001E-01  2.45146E-01
    9000.001      6.255   1.840  1.18449E+00  9.05949E-01  2.78545E-01
    9000.568      6.822   1.880  1.23285E+00  9.14466E-01  3.18386E-01
    9001.147      7.401   1.920  1.27332E+00  9.22590E-01  3.50732E-01
    9001.739      7.992   1.960  1.29014E+00  9.30300E-01  3.59841E-01
    9002.342      8.596   2.000  1.28048E+00  9.37596E-01  3.42887E-01
    9002.958      9.211   2.040  1.25203E+00  9.44496E-01  3.07530E-01
    9003.586      9.839   2.080  1.21632E+00  9.50961E-01  2.65354E-01
    9004.226     10.479   2.120  1.19157E+00  9.57014E-01  2.34551E-01
    9004.878     11.132   2.160  1.18560E+00  9.62659E-01  2.22946E-01
    9005.543     11.796   2.200  1.18662E+00  9.67916E-01  2.18706E-01
    9006.219     12.473   2.240  1.18164E+00  9.72771E-01  2.08872E-01
    9006.908     13.162   2.280  1.17682E+00  9.77248E-01  1.99573E-01
    9007.609     13.863   2.320  1.18487E+00  9.81333E-01  2.03532E-01
    9008.322     14.576   2.360  1.20363E+00  9.85072E-01  2.18561E-01
    9009.048     15.301   2.400  1.21585E+00  9.88449E-01  2.27402E-01
    9009.785     16.039   2.440  1.21146E+00  9.91494E-01  2.19967E-01
    9010.535     16.789   2.480  1.19590E+00  9.94210E-01  2.01690E-01
    9011.297     17.551   2.520  1.17127E+00  9.96605E-01  1.74662E-01
    9012.071     18.325   2.560  1.13479E+00  9.98707E-01  1.36080E-01
    9012.858     19.111   2.600  1.09082E+00  1.00052E+00  9.02924E-02
    9013.656     19.910   2.640  1.04744E+00  1.00206E+00  4.53738E-02
    9014.467     20.721   2.680  1.00982E+00  1.00335E+00  6.46911E-03
    9015.290     21.544   2.720  9.80490E-01  1.00440E+00 -2.39057E-02
    9016.125     22.379   2.760  9.59154E-01  1.00523E+00 -4.60732E-02
    9016.973     23.226   2.800  9.40043E-01  1.00585E+00 -6.58080E-02
    9017.832     24.086   2.840  9.17473E-01  1.00628E+00 -8.88025E-02
    9018.704     24.957   2.880  8.95801E-01  1.00651E+00 -1.10706E-01
    9019.588     25.841   2.920  8.82860E-01  1.00659E+00 -1.23734E-01
    9020.484     26.737   2.960  8.87817E-01  1.00652E+00 -1.18707E-01
    9021.392     27.646   3.000  8.99049E-01  1.00630E+00 -1.07254E-01
    9022.313     28.566   3.040  9.09309E-01  1.00598E+00 -9.66682E-02
    9023.245     29.499   3.080  9.14598E-01  1.00551E+00 -9.09167E-02
    9024.190     30.444   3.120  9.14109E-01  1.00498E+00 -9.08718E-02
    9025.147     31.401   3.160  9.09036E-01  1.00434E+00 -9.53062E-02
    9026.117     32.370   3.200  9.01271E-01  1.00365E+00 -1.02375E-01
    9027.098     33.351   3.240  8.92542E-01  1.00287E+00 -1.10331E-01
    9028.092     34.345   3.280  8.84282E-01  1.00203E+00 -1.17750E-01
    9029.097     35.351   3.320  8.77477E-01  1.00117E+00 -1.23692E-01
    9030.116     36.369   3.360  8.72671E-01  1.00027E+00 -1.27596E-01
    9031.146     37.399   3.400  8.70410E-01  9.99331E-01 -1.28921E-01
    9032.188     38.442   3.440  8.71201E-01  9.98385E-01 -1.27184E-01
    9033.243     39.496   3.480  8.75279E-01  9.97432E-01 -1.22153E-01
    9034.310     40.563   3.520  8.82879E-01  9.96457E-01 -1.13579E-01
    9035.389     41.642   3.560  8.94025E-01  9.95505E-01 -1.01479E-01
    9036.480     42.733   3.600  9.08215E-01  9.94556E-01 -8.63417E-02
    9037.583     43.837   3.640  9.24725E-01  9.93636E-01 -6.89101E-02
    9038.699     44.952   3.680  9.42536E-01  9.92725E-01 -5.01891E-02
    9039.826     46.080   3.720  9.60447E-01  9.91845E-01 -3.13974E-02
    9040.966     47.220   3.760  9.77329E-01  9.90979E-01 -1.36506E-02
    9042.118     48.372   3.800  9.92500E-01  9.90172E-01  2.32797E-03
    9043.283     49.536   3.840  1.00552E+00  9.89382E-01  1.61380E-02
    9044.459     50.713   3.880  1.01651E+00  9.88655E-01  2.78529E-02
    9045.648     51.902   3.920  1.02587E+00  9.87969E-01  3.79004E-02
    9046.849     53.102   3.960  1.03406E+00  9.87325E-01  4.67304E-02
    9048.062     54.316   4.000  1.04127E+00  9.86723E-01  5.45424E-02
    9049.287     55.541   4.040  1.04751E+00  9.86165E-01  6.13427E-02
    9050.525     56.778   4.080  1.05256E+00  9.85674E-01  6.68851E-02
    9051.775     58.028   4.120  1.05602E+00  9.85228E-01  7.07919E-02
    9053.036     59.290   4.160  1.05764E+00  9.84849E-01  7.27911E-02
    9054.310     60.564   4.200  1.05741E+00  9.84494E-01  7.29168E-02
    9055.597     61.850   4.240  1.05577E+00  9.84206E-01  7.15628E-02
    9056.895     63.149   4.280  1.05335E+00  9.83984E-01  6.93702E-02
    9058.206     64.459   4.320  1.05076E+00  9.83787E-01  6.69698E-02
    9059.529     65.782   4.360  1.04829E+00  9.83677E-01  6.46161E-02
    9060.864     67.117   4.400  1.04584E+00  9.83590E-01  6.22478E-02
    9062.211     68.464   4.440  1.04321E+00  9.83546E-01  5.96690E-02
    9063.570     69.824   4.480  1.04021E+00  9.83566E-01  5.66480E-02
    9064.942     71.195   4.520  1.03662E+00  9.83629E-01  5.29922E-02
    9066.326     72.579   4.560  1.03238E+00  9.83732E-01  4.86475E-02
    9067.722     73.975   4.600  1.02760E+00  9.83873E-01  4.37251E-02
    9069.130     75.383   4.640  1.02250E+00  9.84031E-01  3.84705E-02
    9070.550     76.804   4.680  1.01745E+00  9.84249E-01  3.32005E-02
    9071.983     78.236   4.720  1.01267E+00  9.84503E-01  2.81670E-02
    9073.427     79.681   4.760  1.00818E+00  9.84772E-01  2.34055E-02
    9074.884     81.138   4.800  1.00380E+00  9.85074E-01  1.87215E-02
    9076.353     82.607   4.840  9.99135E-01  9.85408E-01  1.37271E-02
    9077.835     84.088   4.880  9.93731E-01  9.85752E-01  7.97921E-03
    9079.328     85.582   4.920  9.87325E-01  9.86126E-01  1.19910E-03
    9080.834     87.087   4.960  9.79912E-01  9.86506E-01 -6.59373E-03
    9082.352     88.605   5.000  9.71866E-01  9.86890E-01 -1.50242E-02
    9083.882     90.135   5.040  9.63852E-01  9.87302E-01 -2.34493E-02
    9085.424     91.678   5.080  9.56518E-01  9.87716E-01 -3.11973E-02
    9086.979     93.232   5.120  9.50395E-01  9.88128E-01 -3.77331E-02
    9088.545     94.799   5.160  9.45736E-01  9.88517E-01 -4.27804E-02
    9090.124     96.378   5.200  9.42724E-01  9.88925E-01 -4.62018E-02
    9091.715     97.969   5.240  9.41420E-01  9.89332E-01 -4.79125E-02
    9093.319     99.572   5.280  9.41856E-01  9.89711E-01 -4.78551E-02
    9094.934    101.187   5.320  9.43994E-01  9.90080E-01 -4.60860E-02
    9096.562    102.815   5.360  9.47586E-01  9.90420E-01 -4.28344E-02
    9098.201    104.455   5.400  9.52313E-01  9.90752E-01 -3.84390E-02
    9099.853    106.107   5.440  9.57809E-01  9.91076E-01 -3.32669E-02
    9101.518    107.771   5.480  9.63674E-01  9.91365E-01 -2.76911E-02
    9103.194    109.448   5.520  9.69449E-01  9.91617E-01 -2.21685E-02
    9104.883    111.136   5.560  9.74534E-01  9.91834E-01 -1.73008E-02
    9106.583    112.837   5.600  9.78234E-01  9.92038E-01 -1.38048E-02
    9108.296    114.550   5.640  9.79885E-01  9.92206E-01 -1.23211E-02
    9110.022    116.275   5.680  9.79218E-01  9.92335E-01 -1.31177E-02
    9111.759    118.012   5.720  9.76490E-01  9.92424E-01 -1.59346E-02
    9113.508    119.762   5.760  9.72464E-01  9.92475E-01 -2.00109E-02
    9115.270    121.524   5.800  9.68180E-01  9.92489E-01 -2.43088E-02
    9117.044    123.298   5.840  9.64667E-01  9.92487E-01 -2.78203E-02
    9118.830    125.084   5.880  9.62612E-01  9.92422E-01 -2.98095E-02
    9120.629    126.882   5.920  9.62431E-01  9.92315E-01 -2.98848E-02
    9122.439    128.693   5.960  9.64253E-01  9.92166E-01 -2.79136E-02
    9124.262    130.515   6.000  9.68148E-01  9.91952E-01 -2.38041E-02
