# # comment:                                                     FEFF 9.9.1  
# # Source:
# # Structure
# # Reduced
# # space
# # abc:
# # angles:114.548066
# # sites:
# # POT  SCF 100  7.0000   0, screened core-hole, AFOLP (folp(0)= 1.150)
# # Abs   Z=29 Rmt= 1.259 Rnm= 1.329 K  shell
# # Pot 1 Z=37 Rmt= 1.964 Rnm= 2.005
# # Pot 2 Z=29 Rmt= 1.262 Rnm= 1.336
# # Pot 3 Z=14 Rmt= 1.004 Rnm= 1.222
# # Pot 4 Z= 8 Rmt= 0.976 Rnm= 1.092
# # Gam_ch=1.729E+00 H-L exch Vi= 0.000E+00 Vr= 0.000E+00
# # Mu=-8.610E+00eV kf=2.110E+00 Vint=-1.621E+01eV Rs_int= 1.718
# FMS rfms= 9.0000
# # PATH  Rmax=-1.000,  Keep_limit= 0.00, Heap_limit 0.00  Pwcrit= 2.50%
#  S02=0.950  Temp=   0.00  Debye_temp=   0.00  Global_sig2= 0.00000
#  Energy zero shift, vr, vi    0.00000E+00   0.00000E+00
#  Curved wave amplitude ratio filter   4.000%
#     file         sig2 tot  cw amp ratio   deg  nlegs   reff  inp sig2
#     0/   0 paths used
#  xsedge+ 50, used to normalize mu           2.4491E-04
#  -----------------------------------------------------------------------
#  omega    e    k    mu    mu0     chi     @#
    8984.348    -12.420  -1.000  3.81718E-02  5.17895E-02 -1.36177E-02
    8984.647    -12.122  -0.960  4.03681E-02  5.54760E-02 -1.51078E-02
    8984.933    -11.835  -0.920  4.27691E-02  5.95647E-02 -1.67956E-02
    8985.208    -11.561  -0.880  4.54026E-02  6.41141E-02 -1.87115E-02
    8985.470    -11.299  -0.840  4.83013E-02  6.91921E-02 -2.08908E-02
    8985.720    -11.049  -0.800  5.15024E-02  7.48773E-02 -2.33749E-02
    8985.957    -10.811  -0.760  5.50485E-02  8.12597E-02 -2.62112E-02
    8986.183    -10.585  -0.720  5.89872E-02  8.84408E-02 -2.94536E-02
    8986.396    -10.372  -0.680  6.33706E-02  9.65323E-02 -3.31618E-02
    8986.598    -10.171  -0.640  6.82531E-02  1.05652E-01 -3.73989E-02
    8986.787     -9.982  -0.600  7.36882E-02  1.15915E-01 -4.22268E-02
    8986.963     -9.805  -0.560  7.97219E-02  1.27419E-01 -4.76975E-02
    8987.128     -9.641  -0.520  8.63838E-02  1.40223E-01 -5.38392E-02
    8987.280     -9.488  -0.480  9.36738E-02  1.54311E-01 -6.06374E-02
    8987.421     -9.348  -0.440  1.01547E-01  1.69561E-01 -6.80134E-02
    8987.549     -9.220  -0.400  1.09901E-01  1.85709E-01 -7.58078E-02
    8987.664     -9.104  -0.360  1.18564E-01  2.02343E-01 -8.37791E-02
    8987.768     -9.000  -0.320  1.27300E-01  2.18927E-01 -9.16271E-02
    8987.859     -8.909  -0.280  1.35826E-01  2.34865E-01 -9.90386E-02
    8987.939     -8.830  -0.240  1.43843E-01  2.49582E-01 -1.05739E-01
    8988.006     -8.763  -0.200  1.51067E-01  2.62596E-01 -1.11529E-01
    8988.061     -8.708  -0.160  1.57261E-01  2.73551E-01 -1.16290E-01
    8988.103     -8.665  -0.120  1.62246E-01  2.82216E-01 -1.19970E-01
    8988.134     -8.635  -0.080  1.65904E-01  2.88463E-01 -1.22559E-01
    8988.158     -8.610   0.000  1.68931E-01  2.93485E-01 -1.24554E-01
    8988.213     -8.555   0.120  1.75429E-01  3.04825E-01 -1.29396E-01
    8988.256     -8.513   0.160  1.80490E-01  3.13626E-01 -1.33136E-01
    8988.311     -8.458   0.200  1.87019E-01  3.24916E-01 -1.37897E-01
    8988.378     -8.391   0.240  1.94882E-01  3.38497E-01 -1.43614E-01
    8988.457     -8.312   0.280  2.03874E-01  3.54137E-01 -1.50263E-01
    8988.548     -8.220   0.320  2.13657E-01  3.71466E-01 -1.57808E-01
    8988.652     -8.117   0.360  2.23737E-01  3.89998E-01 -1.66261E-01
    8988.768     -8.001   0.400  2.33694E-01  4.09257E-01 -1.75563E-01
    8988.896     -7.873   0.440  2.43327E-01  4.28747E-01 -1.85421E-01
    8989.036     -7.733   0.480  2.53036E-01  4.48118E-01 -1.95082E-01
    8989.188     -7.580   0.520  2.63662E-01  4.67144E-01 -2.03482E-01
    8989.353     -7.416   0.560  2.75847E-01  4.85701E-01 -2.09854E-01
    8989.530     -7.239   0.600  2.89159E-01  5.03756E-01 -2.14597E-01
    8989.719     -7.050   0.640  3.01406E-01  5.21358E-01 -2.19952E-01
    8989.920     -6.849   0.680  3.09240E-01  5.38564E-01 -2.29324E-01
    8990.133     -6.635   0.720  3.10581E-01  5.55446E-01 -2.44865E-01
    8990.359     -6.410   0.760  3.06774E-01  5.72071E-01 -2.65297E-01
    8990.597     -6.172   0.800  3.01815E-01  5.88499E-01 -2.86684E-01
    8990.846     -5.922   0.840  2.99220E-01  6.04776E-01 -3.05556E-01
    8991.109     -5.660   0.880  2.99997E-01  6.20937E-01 -3.20939E-01
    8991.383     -5.386   0.920  3.03632E-01  6.37004E-01 -3.33371E-01
    8991.669     -5.099   0.960  3.10825E-01  6.52969E-01 -3.42143E-01
    8991.968     -4.800   1.000  3.24051E-01  6.68832E-01 -3.44780E-01
    8992.279     -4.489   1.040  3.45351E-01  6.84588E-01 -3.39237E-01
    8992.602     -4.166   1.080  3.75093E-01  7.00223E-01 -3.25130E-01
    8992.937     -3.831   1.120  4.11398E-01  7.15699E-01 -3.04301E-01
    8993.285     -3.484   1.160  4.49283E-01  7.31013E-01 -2.81729E-01
    8993.644     -3.124   1.200  4.80857E-01  7.46097E-01 -2.65240E-01
    8994.016     -2.752   1.240  5.00426E-01  7.60925E-01 -2.60498E-01
    8994.400     -2.368   1.280  5.10397E-01  7.75484E-01 -2.65088E-01
    8994.797     -1.972   1.320  5.19819E-01  7.89726E-01 -2.69907E-01
    8995.205     -1.563   1.360  5.35618E-01  8.03617E-01 -2.67998E-01
    8995.626     -1.143   1.400  5.58544E-01  8.17144E-01 -2.58600E-01
    8996.058     -0.710   1.440  5.89598E-01  8.30235E-01 -2.40637E-01
    8996.504     -0.265   1.480  6.32250E-01  8.42901E-01 -2.10651E-01
    8996.961      0.192   1.520  6.82849E-01  8.55114E-01 -1.72265E-01
    8997.430      0.662   1.560  7.31686E-01  8.66842E-01 -1.35156E-01
    8997.912      1.143   1.600  7.79388E-01  8.78057E-01 -9.86694E-02
    8998.405      1.637   1.640  8.33053E-01  8.88756E-01 -5.57027E-02
    8998.911      2.143   1.680  9.00603E-01  8.98934E-01  1.66949E-03
    8999.430      2.661   1.720  9.88491E-01  9.08588E-01  7.99033E-02
    8999.960      3.191   1.760  1.09640E+00  9.17675E-01  1.78727E-01
    9000.502      3.734   1.800  1.21316E+00  9.26239E-01  2.86918E-01
    9001.057      4.289   1.840  1.31892E+00  9.34259E-01  3.84663E-01
    9001.624      4.856   1.880  1.38863E+00  9.41739E-01  4.46896E-01
    9002.203      5.435   1.920  1.40041E+00  9.48705E-01  4.51702E-01
    9002.795      6.026   1.960  1.36031E+00  9.55141E-01  4.05165E-01
    9003.398      6.630   2.000  1.29787E+00  9.61095E-01  3.36780E-01
    9004.014      7.245   2.040  1.23612E+00  9.66534E-01  2.69586E-01
    9004.642      7.873   2.080  1.18604E+00  9.71508E-01  2.14532E-01
    9005.282      8.513   2.120  1.15387E+00  9.76046E-01  1.77823E-01
    9005.934      9.166   2.160  1.14264E+00  9.80117E-01  1.62518E-01
    9006.598      9.830   2.200  1.14952E+00  9.83792E-01  1.65725E-01
    9007.275     10.507   2.240  1.16624E+00  9.87062E-01  1.79178E-01
    9007.964     11.195   2.280  1.18426E+00  9.89978E-01  1.94279E-01
    9008.665     11.897   2.320  1.19821E+00  9.92512E-01  2.05702E-01
    9009.378     12.610   2.360  1.20563E+00  9.94734E-01  2.10896E-01
    9010.104     13.335   2.400  1.20362E+00  9.96634E-01  2.06982E-01
    9010.841     14.073   2.440  1.18861E+00  9.98267E-01  1.90342E-01
    9011.591     14.823   2.480  1.15995E+00  9.99621E-01  1.60330E-01
    9012.353     15.585   2.520  1.12279E+00  1.00073E+00  1.22068E-01
    9013.127     16.359   2.560  1.08613E+00  1.00160E+00  8.45302E-02
    9013.914     17.145   2.600  1.05272E+00  1.00228E+00  5.04424E-02
    9014.712     17.944   2.640  1.02133E+00  1.00276E+00  1.85638E-02
    9015.523     18.754   2.680  9.92591E-01  1.00308E+00 -1.04887E-02
    9016.346     19.577   2.720  9.67377E-01  1.00326E+00 -3.58833E-02
    9017.181     20.413   2.760  9.46187E-01  1.00329E+00 -5.71031E-02
    9018.028     21.260   2.800  9.29000E-01  1.00322E+00 -7.42190E-02
    9018.888     22.119   2.840  9.15602E-01  1.00303E+00 -8.74322E-02
    9019.760     22.991   2.880  9.05651E-01  1.00276E+00 -9.71120E-02
    9020.644     23.875   2.920  8.98312E-01  1.00241E+00 -1.04100E-01
    9021.540     24.771   2.960  8.92577E-01  1.00201E+00 -1.09432E-01
    9022.448     25.680   3.000  8.87692E-01  1.00156E+00 -1.13869E-01
    9023.368     26.600   3.040  8.82765E-01  1.00107E+00 -1.18308E-01
    9024.301     27.533   3.080  8.77363E-01  1.00055E+00 -1.23184E-01
    9025.246     28.478   3.120  8.71541E-01  1.00001E+00 -1.28472E-01
    9026.203     29.435   3.160  8.65615E-01  9.99471E-01 -1.33856E-01
    9027.172     30.404   3.200  8.60155E-01  9.98908E-01 -1.38753E-01
    9028.154     31.385   3.240  8.55868E-01  9.98366E-01 -1.42498E-01
    9029.147     32.379   3.280  8.53434E-01  9.97831E-01 -1.44397E-01
    9030.153     33.385   3.320  8.53094E-01  9.97326E-01 -1.44232E-01
    9031.171     34.403   3.360  8.55176E-01  9.96853E-01 -1.41677E-01
    9032.202     35.433   3.400  8.59935E-01  9.96393E-01 -1.36458E-01
    9033.244     36.475   3.440  8.67487E-01  9.95969E-01 -1.28482E-01
    9034.299     37.530   3.480  8.77826E-01  9.95582E-01 -1.17756E-01
    9035.365     38.597   3.520  8.90943E-01  9.95234E-01 -1.04290E-01
    9036.444     39.676   3.560  9.06735E-01  9.94927E-01 -8.81921E-02
    9037.536     40.767   3.600  9.24723E-01  9.94663E-01 -6.99405E-02
    9038.639     41.870   3.640  9.44472E-01  9.94463E-01 -4.99910E-02
    9039.754     42.986   3.680  9.65386E-01  9.94285E-01 -2.88997E-02
    9040.882     44.114   3.720  9.86824E-01  9.94171E-01 -7.34714E-03
    9042.022     45.254   3.760  1.00808E+00  9.94103E-01  1.39807E-02
    9043.174     46.406   3.800  1.02849E+00  9.94100E-01  3.43922E-02
    9044.339     47.570   3.840  1.04723E+00  9.94119E-01  5.31070E-02
    9045.515     48.747   3.880  1.06363E+00  9.94204E-01  6.94277E-02
    9046.704     49.935   3.920  1.07717E+00  9.94331E-01  8.28350E-02
    9047.905     51.136   3.960  1.08745E+00  9.94500E-01  9.29498E-02
    9049.118     52.349   4.000  1.09429E+00  9.94711E-01  9.95749E-02
    9050.343     53.575   4.040  1.09777E+00  9.94984E-01  1.02782E-01
    9051.581     54.812   4.080  1.09803E+00  9.95276E-01  1.02751E-01
    9052.830     56.062   4.120  1.09535E+00  9.95606E-01  9.97478E-02
    9054.092     57.324   4.160  1.09007E+00  9.95973E-01  9.41021E-02
    9055.366     58.598   4.200  1.08262E+00  9.96379E-01  8.62374E-02
    9056.652     59.884   4.240  1.07355E+00  9.96821E-01  7.67292E-02
    9057.951     61.182   4.280  1.06363E+00  9.97295E-01  6.63362E-02
    9059.262     62.493   4.320  1.05383E+00  9.97780E-01  5.60545E-02
    9060.584     63.816   4.360  1.04511E+00  9.98273E-01  4.68403E-02
    9061.919     65.151   4.400  1.03816E+00  9.98797E-01  3.93658E-02
    9063.267     66.498   4.440  1.03324E+00  9.99349E-01  3.38932E-02
    9064.626     67.858   4.480  1.03024E+00  9.99907E-01  3.03283E-02
    9065.998     69.229   4.520  1.02891E+00  1.00047E+00  2.84409E-02
    9067.381     70.613   4.560  1.02910E+00  1.00103E+00  2.80688E-02
    9068.777     72.009   4.600  1.03062E+00  1.00159E+00  2.90247E-02
    9070.186     73.417   4.640  1.03298E+00  1.00215E+00  3.08267E-02
    9071.606     74.837   4.680  1.03528E+00  1.00273E+00  3.25424E-02
    9073.038     76.270   4.720  1.03623E+00  1.00329E+00  3.29445E-02
    9074.483     77.715   4.760  1.03467E+00  1.00381E+00  3.08587E-02
    9075.940     79.172   4.800  1.02998E+00  1.00435E+00  2.56281E-02
    9077.409     80.641   4.840  1.02220E+00  1.00486E+00  1.73332E-02
    9078.891     82.122   4.880  1.01202E+00  1.00534E+00  6.67718E-03
    9080.384     83.616   4.920  1.00060E+00  1.00581E+00 -5.21144E-03
    9081.890     85.121   4.960  9.89096E-01  1.00624E+00 -1.71451E-02
    9083.408     86.639   5.000  9.78493E-01  1.00666E+00 -2.81688E-02
    9084.938     88.169   5.040  9.69343E-01  1.00705E+00 -3.77039E-02
    9086.480     89.712   5.080  9.61851E-01  1.00739E+00 -4.55435E-02
    9088.035     91.266   5.120  9.56106E-01  1.00773E+00 -5.16187E-02
    9089.601     92.833   5.160  9.52088E-01  1.00800E+00 -5.59083E-02
    9091.180     94.412   5.200  9.49881E-01  1.00825E+00 -5.83674E-02
    9092.771     96.003   5.240  9.49446E-01  1.00846E+00 -5.90149E-02
    9094.374     97.606   5.280  9.50605E-01  1.00861E+00 -5.80054E-02
    9095.990     99.221   5.320  9.53103E-01  1.00874E+00 -5.56369E-02
    9097.617    100.849   5.360  9.56484E-01  1.00883E+00 -5.23473E-02
    9099.257    102.489   5.400  9.60430E-01  1.00888E+00 -4.84514E-02
    9100.909    104.141   5.440  9.64770E-01  1.00889E+00 -4.41178E-02
    9102.573    105.805   5.480  9.69441E-01  1.00883E+00 -3.93893E-02
    9104.250    107.481   5.520  9.74485E-01  1.00875E+00 -3.42700E-02
    9105.938    109.170   5.560  9.79836E-01  1.00864E+00 -2.88041E-02
    9107.639    110.871   5.600  9.85362E-01  1.00849E+00 -2.31231E-02
    9109.352    112.584   5.640  9.90911E-01  1.00829E+00 -1.73791E-02
    9111.077    114.309   5.680  9.96081E-01  1.00805E+00 -1.19733E-02
    9112.815    116.046   5.720  1.00058E+00  1.00778E+00 -7.20315E-03
    9114.564    117.796   5.760  1.00415E+00  1.00746E+00 -3.31373E-03
    9116.326    119.558   5.800  1.00670E+00  1.00711E+00 -4.11308E-04
    9118.100    121.331   5.840  1.00834E+00  1.00672E+00  1.61559E-03
    9119.886    123.118   5.880  1.00936E+00  1.00633E+00  3.03544E-03
    9121.684    124.916   5.920  1.01000E+00  1.00590E+00  4.10024E-03
    9123.495    126.726   5.960  1.01035E+00  1.00545E+00  4.89970E-03
    9125.318    128.549   6.000  1.01036E+00  1.00493E+00  5.42348E-03
