# # comment:                                                     FEFF 9.9.1  
# # Source:
# # Structure
# # Reduced
# # space
# # abc:
# # angles:
# # sites:
# # POT  SCF 100  7.0000   0, screened core-hole, AFOLP (folp(0)= 1.150)
# # Abs   Z=29 Rmt= 1.186 Rnm= 1.286 K  shell
# # Pot 1 Z=29 Rmt= 1.184 Rnm= 1.285
# # Pot 2 Z= 7 Rmt= 0.643 Rnm= 0.882
# # Pot 3 Z= 8 Rmt= 1.050 Rnm= 1.115
# # Gam_ch=1.729E+00 H-L exch Vi= 0.000E+00 Vr= 0.000E+00
# # Mu=-7.021E+00eV kf=2.285E+00 Vint=-1.588E+01eV Rs_int= 1.587
# FMS rfms= 9.0000
# # PATH  Rmax=-1.000,  Keep_limit= 0.00, Heap_limit 0.00  Pwcrit= 2.50%
#  S02=0.950  Temp=   0.00  Debye_temp=   0.00  Global_sig2= 0.00000
#  Energy zero shift, vr, vi    0.00000E+00   0.00000E+00
#  Curved wave amplitude ratio filter   4.000%
#     file         sig2 tot  cw amp ratio   deg  nlegs   reff  inp sig2
#     0/   0 paths used
#  xsedge+ 50, used to normalize mu           2.4411E-04
#  -----------------------------------------------------------------------
#  omega    e    k    mu    mu0     chi     @#
    8983.820    -10.831  -1.000  3.84522E-02  5.67390E-02 -1.82868E-02
    8984.119    -10.532  -0.960  4.05514E-02  6.09328E-02 -2.03815E-02
    8984.405    -10.246  -0.920  4.28159E-02  6.55982E-02 -2.27823E-02
    8984.680     -9.971  -0.880  4.52619E-02  7.08048E-02 -2.55429E-02
    8984.942     -9.709  -0.840  4.79070E-02  7.66339E-02 -2.87270E-02
    8985.192     -9.459  -0.800  5.07700E-02  8.31796E-02 -3.24096E-02
    8985.430     -9.222  -0.760  5.38709E-02  9.05500E-02 -3.66791E-02
    8985.655     -8.996  -0.720  5.72302E-02  9.88672E-02 -4.16370E-02
    8985.868     -8.783  -0.680  6.08683E-02  1.08266E-01 -4.73974E-02
    8986.070     -8.581  -0.640  6.48038E-02  1.18887E-01 -5.40837E-02
    8986.259     -8.393  -0.600  6.90516E-02  1.30872E-01 -6.18206E-02
    8986.435     -8.216  -0.560  7.36196E-02  1.44339E-01 -7.07196E-02
    8986.600     -8.051  -0.520  7.85032E-02  1.59359E-01 -8.08561E-02
    8986.752     -7.899  -0.480  8.36800E-02  1.75918E-01 -9.22377E-02
    8986.893     -7.759  -0.440  8.91019E-02  1.93869E-01 -1.04767E-01
    8987.021     -7.631  -0.400  9.46902E-02  2.12899E-01 -1.18209E-01
    8987.136     -7.515  -0.360  1.00334E-01  2.32516E-01 -1.32182E-01
    8987.240     -7.411  -0.320  1.05894E-01  2.52080E-01 -1.46186E-01
    8987.332     -7.320  -0.280  1.11217E-01  2.70879E-01 -1.59662E-01
    8987.411     -7.240  -0.240  1.16151E-01  2.88232E-01 -1.72080E-01
    8987.478     -7.173  -0.200  1.20559E-01  3.03565E-01 -1.83006E-01
    8987.533     -7.118  -0.160  1.24324E-01  3.16462E-01 -1.92138E-01
    8987.575     -7.076  -0.120  1.27356E-01  3.26655E-01 -1.99300E-01
    8987.606     -7.045  -0.080  1.29586E-01  3.33998E-01 -2.04412E-01
    8987.630     -7.021   0.000  1.31444E-01  3.39897E-01 -2.08453E-01
    8987.685     -6.966   0.120  1.35674E-01  3.53188E-01 -2.17514E-01
    8987.728     -6.923   0.160  1.38956E-01  3.63529E-01 -2.24573E-01
    8987.783     -6.869   0.200  1.43215E-01  3.76701E-01 -2.33486E-01
    8987.850     -6.801   0.240  1.48547E-01  3.92561E-01 -2.44014E-01
    8987.929     -6.722   0.280  1.55056E-01  4.10770E-01 -2.55714E-01
    8988.020     -6.631   0.320  1.62843E-01  4.30838E-01 -2.67994E-01
    8988.124     -6.527   0.360  1.72182E-01  4.52184E-01 -2.80002E-01
    8988.240     -6.411   0.400  1.83427E-01  4.74190E-01 -2.90763E-01
    8988.368     -6.283   0.440  1.97117E-01  4.96270E-01 -2.99152E-01
    8988.508     -6.143   0.480  2.14024E-01  5.17965E-01 -3.03941E-01
    8988.660     -5.991   0.520  2.35249E-01  5.39018E-01 -3.03770E-01
    8988.825     -5.826   0.560  2.62231E-01  5.59237E-01 -2.97006E-01
    8989.002     -5.649   0.600  2.96964E-01  5.78628E-01 -2.81664E-01
    8989.191     -5.460   0.640  3.41852E-01  5.97230E-01 -2.55378E-01
    8989.392     -5.259   0.680  3.98975E-01  6.15123E-01 -2.16148E-01
    8989.605     -5.046   0.720  4.67867E-01  6.32378E-01 -1.64511E-01
    8989.831     -4.820   0.760  5.40890E-01  6.49109E-01 -1.08219E-01
    8990.069     -4.583   0.800  5.98373E-01  6.65399E-01 -6.70253E-02
    8990.319     -4.333   0.840  6.15207E-01  6.81315E-01 -6.61075E-02
    8990.581     -4.070   0.880  5.82397E-01  6.96891E-01 -1.14494E-01
    8990.855     -3.796   0.920  5.17190E-01  7.12185E-01 -1.94995E-01
    8991.141     -3.510   0.960  4.46463E-01  7.27205E-01 -2.80742E-01
    8991.440     -3.211   1.000  3.87914E-01  7.41965E-01 -3.54051E-01
    8991.751     -2.900   1.040  3.46555E-01  7.56470E-01 -4.09915E-01
    8992.074     -2.577   1.080  3.20689E-01  7.70720E-01 -4.50031E-01
    8992.409     -2.242   1.120  3.07608E-01  7.84684E-01 -4.77076E-01
    8992.757     -1.894   1.160  3.06498E-01  7.98370E-01 -4.91872E-01
    8993.117     -1.535   1.200  3.18349E-01  8.11740E-01 -4.93390E-01
    8993.488     -1.163   1.240  3.44209E-01  8.24793E-01 -4.80584E-01
    8993.872     -0.779   1.280  3.82137E-01  8.37466E-01 -4.55329E-01
    8994.269     -0.382   1.320  4.22102E-01  8.49776E-01 -4.27674E-01
    8994.677      0.026   1.360  4.48245E-01  8.61678E-01 -4.13433E-01
    8995.098      0.447   1.400  4.59670E-01  8.73188E-01 -4.13518E-01
    8995.531      0.879   1.440  4.71856E-01  8.84237E-01 -4.12381E-01
    8995.976      1.324   1.480  4.95964E-01  8.94824E-01 -3.98861E-01
    8996.433      1.782   1.520  5.34994E-01  9.04942E-01 -3.69948E-01
    8996.902      2.251   1.560  5.87455E-01  9.14569E-01 -3.27114E-01
    8997.384      2.733   1.600  6.51051E-01  9.23723E-01 -2.72671E-01
    8997.878      3.226   1.640  7.20988E-01  9.32361E-01 -2.11373E-01
    8998.384      3.732   1.680  7.90846E-01  9.40487E-01 -1.49641E-01
    8998.902      4.251   1.720  8.65775E-01  9.48118E-01 -8.23428E-02
    8999.432      4.781   1.760  9.52450E-01  9.55258E-01 -2.80776E-03
    8999.975      5.323   1.800  1.04359E+00  9.61871E-01  8.17166E-02
    9000.529      5.878   1.840  1.14665E+00  9.68001E-01  1.78648E-01
    9001.096      6.445   1.880  1.28273E+00  9.73655E-01  3.09070E-01
    9001.675      7.024   1.920  1.45156E+00  9.78838E-01  4.72722E-01
    9002.267      7.616   1.960  1.60970E+00  9.83557E-01  6.26147E-01
    9002.870      8.219   2.000  1.70210E+00  9.87820E-01  7.14280E-01
    9003.486      8.835   2.040  1.71548E+00  9.91657E-01  7.23827E-01
    9004.114      9.463   2.080  1.66096E+00  9.95077E-01  6.65884E-01
    9004.754     10.103   2.120  1.57154E+00  9.98111E-01  5.73430E-01
    9005.406     10.755   2.160  1.48794E+00  1.00079E+00  4.87149E-01
    9006.071     11.419   2.200  1.41628E+00  1.00308E+00  4.13200E-01
    9006.747     12.096   2.240  1.35626E+00  1.00506E+00  3.51205E-01
    9007.436     12.785   2.280  1.32288E+00  1.00671E+00  3.16175E-01
    9008.137     13.486   2.320  1.31011E+00  1.00809E+00  3.02026E-01
    9008.850     14.199   2.360  1.27570E+00  1.00918E+00  2.66519E-01
    9009.576     14.925   2.400  1.19785E+00  1.01001E+00  1.87843E-01
    9010.313     15.662   2.440  1.10800E+00  1.01063E+00  9.73760E-02
    9011.063     16.412   2.480  1.04545E+00  1.01102E+00  3.44335E-02
    9011.825     17.174   2.520  1.02105E+00  1.01123E+00  9.82910E-03
    9012.599     17.948   2.560  1.01306E+00  1.01124E+00  1.81835E-03
    9013.386     18.735   2.600  9.99855E-01  1.01111E+00 -1.12575E-02
    9014.184     19.533   2.640  9.77877E-01  1.01083E+00 -3.29536E-02
    9014.995     20.344   2.680  9.57703E-01  1.01045E+00 -5.27423E-02
    9015.818     21.167   2.720  9.46793E-01  1.00994E+00 -6.31507E-02
    9016.653     22.002   2.760  9.38875E-01  1.00935E+00 -7.04781E-02
    9017.500     22.849   2.800  9.30631E-01  1.00868E+00 -7.80506E-02
    9018.360     23.709   2.840  9.24389E-01  1.00795E+00 -8.35662E-02
    9019.232     24.581   2.880  9.22617E-01  1.00716E+00 -8.45443E-02
    9020.116     25.465   2.920  9.26006E-01  1.00635E+00 -8.03389E-02
    9021.012     26.361   2.960  9.33627E-01  1.00549E+00 -7.18652E-02
    9021.920     27.269   3.000  9.43422E-01  1.00461E+00 -6.11868E-02
    9022.841     28.189   3.040  9.52959E-01  1.00374E+00 -5.07830E-02
    9023.773     29.122   3.080  9.59985E-01  1.00285E+00 -4.28681E-02
    9024.718     30.067   3.120  9.62886E-01  1.00199E+00 -3.91032E-02
    9025.675     31.024   3.160  9.60970E-01  1.00116E+00 -4.01854E-02
    9026.644     31.993   3.200  9.54637E-01  1.00033E+00 -4.56932E-02
    9027.626     32.975   3.240  9.45222E-01  9.99518E-01 -5.42957E-02
    9028.620     33.968   3.280  9.34289E-01  9.98765E-01 -6.44754E-02
    9029.625     34.974   3.320  9.23166E-01  9.98053E-01 -7.48872E-02
    9030.643     35.992   3.360  9.12980E-01  9.97383E-01 -8.44035E-02
    9031.674     37.023   3.400  9.04336E-01  9.96757E-01 -9.24217E-02
    9032.716     38.065   3.440  8.97227E-01  9.96199E-01 -9.89721E-02
    9033.771     39.120   3.480  8.91180E-01  9.95688E-01 -1.04508E-01
    9034.837     40.186   3.520  8.85736E-01  9.95226E-01 -1.09489E-01
    9035.916     41.265   3.560  8.80676E-01  9.94833E-01 -1.14157E-01
    9037.008     42.356   3.600  8.76303E-01  9.94513E-01 -1.18211E-01
    9038.111     43.460   3.640  8.73245E-01  9.94245E-01 -1.21000E-01
    9039.227     44.575   3.680  8.72249E-01  9.94048E-01 -1.21799E-01
    9040.354     45.703   3.720  8.73872E-01  9.93902E-01 -1.20031E-01
    9041.494     46.843   3.760  8.78614E-01  9.93829E-01 -1.15215E-01
    9042.646     47.995   3.800  8.86818E-01  9.93829E-01 -1.07011E-01
    9043.811     49.160   3.840  8.98516E-01  9.93877E-01 -9.53610E-02
    9044.987     50.336   3.880  9.13483E-01  9.93976E-01 -8.04925E-02
    9046.176     51.525   3.920  9.31193E-01  9.94145E-01 -6.29523E-02
    9047.377     52.726   3.960  9.50812E-01  9.94385E-01 -4.35730E-02
    9048.590     53.939   4.000  9.71389E-01  9.94673E-01 -2.32840E-02
    9049.815     55.164   4.040  9.92291E-01  9.95005E-01 -2.71447E-03
    9051.053     56.402   4.080  1.01317E+00  9.95404E-01  1.77684E-02
    9052.302     57.651   4.120  1.03381E+00  9.95825E-01  3.79842E-02
    9053.564     58.913   4.160  1.05410E+00  9.96309E-01  5.77949E-02
    9054.838     60.187   4.200  1.07359E+00  9.96834E-01  7.67554E-02
    9056.125     61.473   4.240  1.09150E+00  9.97398E-01  9.41052E-02
    9057.423     62.772   4.280  1.10699E+00  9.97977E-01  1.09008E-01
    9058.734     64.083   4.320  1.11915E+00  9.98612E-01  1.20538E-01
    9060.056     65.405   4.360  1.12695E+00  9.99260E-01  1.27687E-01
    9061.392     66.740   4.400  1.12976E+00  9.99917E-01  1.29846E-01
    9062.739     68.088   4.440  1.12780E+00  1.00060E+00  1.27200E-01
    9064.098     69.447   4.480  1.12192E+00  1.00132E+00  1.20600E-01
    9065.470     70.819   4.520  1.11323E+00  1.00204E+00  1.11185E-01
    9066.853     72.202   4.560  1.10262E+00  1.00277E+00  9.98490E-02
    9068.249     73.598   4.600  1.09057E+00  1.00349E+00  8.70804E-02
    9069.658     75.007   4.640  1.07768E+00  1.00422E+00  7.34617E-02
    9071.078     76.427   4.680  1.06498E+00  1.00494E+00  6.00453E-02
    9072.511     77.859   4.720  1.05388E+00  1.00566E+00  4.82228E-02
    9073.955     79.304   4.760  1.04563E+00  1.00637E+00  3.92605E-02
    9075.412     80.761   4.800  1.04059E+00  1.00705E+00  3.35396E-02
    9076.881     82.230   4.840  1.03791E+00  1.00773E+00  3.01852E-02
    9078.363     83.712   4.880  1.03580E+00  1.00837E+00  2.74390E-02
    9079.856     85.205   4.920  1.03251E+00  1.00899E+00  2.35237E-02
    9081.362     86.711   4.960  1.02697E+00  1.00956E+00  1.74078E-02
    9082.880     88.229   5.000  1.01908E+00  1.01013E+00  8.94366E-03
    9084.410     89.759   5.040  1.00927E+00  1.01065E+00 -1.37203E-03
    9085.952     91.301   5.080  9.98537E-01  1.01112E+00 -1.25796E-02
    9087.507     92.856   5.120  9.88093E-01  1.01155E+00 -2.34547E-02
    9089.073     94.422   5.160  9.79076E-01  1.01196E+00 -3.28839E-02
    9090.652     96.001   5.200  9.72117E-01  1.01231E+00 -4.01892E-02
    9092.243     97.592   5.240  9.67337E-01  1.01261E+00 -4.52701E-02
    9093.846     99.195   5.280  9.64403E-01  1.01286E+00 -4.84600E-02
    9095.462    100.811   5.320  9.62739E-01  1.01305E+00 -5.03124E-02
    9097.090    102.438   5.360  9.61869E-01  1.01322E+00 -5.13486E-02
    9098.729    104.078   5.400  9.61418E-01  1.01332E+00 -5.18974E-02
    9100.381    105.730   5.440  9.61410E-01  1.01337E+00 -5.19578E-02
    9102.046    107.394   5.480  9.62066E-01  1.01337E+00 -5.13082E-02
    9103.722    109.071   5.520  9.63529E-01  1.01331E+00 -4.97843E-02
    9105.411    110.759   5.560  9.65637E-01  1.01323E+00 -4.75920E-02
    9107.111    112.460   5.600  9.67876E-01  1.01308E+00 -4.52007E-02
    9108.824    114.173   5.640  9.69949E-01  1.01286E+00 -4.29062E-02
    9110.549    115.898   5.680  9.72262E-01  1.01261E+00 -4.03527E-02
    9112.287    117.636   5.720  9.75692E-01  1.01233E+00 -3.66391E-02
    9114.036    119.385   5.760  9.80940E-01  1.01198E+00 -3.10428E-02
    9115.798    121.147   5.800  9.87770E-01  1.01159E+00 -2.38238E-02
    9117.572    122.921   5.840  9.94856E-01  1.01119E+00 -1.63329E-02
    9119.358    124.707   5.880  1.00031E+00  1.01072E+00 -1.04115E-02
    9121.156    126.505   5.920  1.00273E+00  1.01022E+00 -7.49817E-03
    9122.967    128.316   5.960  1.00170E+00  1.00972E+00 -8.01135E-03
    9124.790    130.139   6.000  9.97939E-01  1.00912E+00 -1.11791E-02
