# # comment:                                                     FEFF 9.9.1  
# # Source:
# # Structure
# # Reduced
# # space
# # abc:
# # angles:
# # sites:
# # POT  SCF 100  7.0000   0, screened core-hole, AFOLP (folp(0)= 1.150)
# # Abs   Z=29 Rmt= 1.289 Rnm= 1.361 K  shell
# # Pot 1 Z=29 Rmt= 1.306 Rnm= 1.368
# # Pot 2 Z=33 Rmt= 1.085 Rnm= 1.292
# # Pot 3 Z=17 Rmt= 1.466 Rnm= 1.538
# # Pot 4 Z= 8 Rmt= 0.917 Rnm= 1.077
# # Gam_ch=1.729E+00 H-L exch Vi= 0.000E+00 Vr= 0.000E+00
# # Mu=-5.271E+00eV kf=2.227E+00 Vint=-1.453E+01eV Rs_int= 1.629
# FMS rfms= 9.0000
# # PATH  Rmax=-1.000,  Keep_limit= 0.00, Heap_limit 0.00  Pwcrit= 2.50%
#  S02=0.950  Temp=   0.00  Debye_temp=   0.00  Global_sig2= 0.00000
#  Energy zero shift, vr, vi    0.00000E+00   0.00000E+00
#  Curved wave amplitude ratio filter   4.000%
#     file         sig2 tot  cw amp ratio   deg  nlegs   reff  inp sig2
#     0/   0 paths used
#  xsedge+ 50, used to normalize mu           2.4394E-04
#  -----------------------------------------------------------------------
#  omega    e    k    mu    mu0     chi     @#
    8983.328     -9.081  -1.000  4.41009E-02  5.98751E-02 -1.57743E-02
    8983.626     -8.782  -0.960  4.64489E-02  6.44133E-02 -1.79644E-02
    8983.913     -8.496  -0.920  4.89603E-02  6.94715E-02 -2.05112E-02
    8984.187     -8.221  -0.880  5.16494E-02  7.51277E-02 -2.34783E-02
    8984.449     -7.959  -0.840  5.45316E-02  8.14724E-02 -2.69407E-02
    8984.699     -7.709  -0.800  5.76239E-02  8.86108E-02 -3.09869E-02
    8984.937     -7.472  -0.760  6.09442E-02  9.66638E-02 -3.57196E-02
    8985.163     -7.246  -0.720  6.45116E-02  1.05768E-01 -4.12565E-02
    8985.376     -7.033  -0.680  6.83453E-02  1.16074E-01 -4.77292E-02
    8985.577     -6.832  -0.640  7.24634E-02  1.27742E-01 -5.52788E-02
    8985.766     -6.643  -0.600  7.68812E-02  1.40928E-01 -6.40470E-02
    8985.943     -6.466  -0.560  8.16076E-02  1.55767E-01 -7.41591E-02
    8986.107     -6.301  -0.520  8.66409E-02  1.72339E-01 -8.56977E-02
    8986.260     -6.149  -0.480  9.19625E-02  1.90628E-01 -9.86658E-02
    8986.400     -6.009  -0.440  9.75301E-02  2.10474E-01 -1.12944E-01
    8986.528     -5.881  -0.400  1.03272E-01  2.31529E-01 -1.28256E-01
    8986.644     -5.765  -0.360  1.09085E-01  2.53242E-01 -1.44157E-01
    8986.748     -5.661  -0.320  1.14835E-01  2.74900E-01 -1.60065E-01
    8986.839     -5.570  -0.280  1.20372E-01  2.95712E-01 -1.75341E-01
    8986.918     -5.490  -0.240  1.25537E-01  3.14918E-01 -1.89381E-01
    8986.985     -5.423  -0.200  1.30182E-01  3.31883E-01 -2.01702E-01
    8987.040     -5.369  -0.160  1.34174E-01  3.46146E-01 -2.11972E-01
    8987.083     -5.326  -0.120  1.37406E-01  3.57413E-01 -2.20007E-01
    8987.113     -5.295  -0.080  1.39793E-01  3.65526E-01 -2.25733E-01
    8987.138     -5.271   0.000  1.41786E-01  3.72039E-01 -2.30253E-01
    8987.193     -5.216   0.120  1.46282E-01  3.86731E-01 -2.40448E-01
    8987.235     -5.173   0.160  1.49793E-01  3.98129E-01 -2.48336E-01
    8987.290     -5.119   0.200  1.54391E-01  4.12650E-01 -2.58260E-01
    8987.357     -5.052   0.240  1.60162E-01  4.30104E-01 -2.69942E-01
    8987.436     -4.972   0.280  1.67185E-01  4.50100E-01 -2.82915E-01
    8987.528     -4.881   0.320  1.75555E-01  4.72102E-01 -2.96547E-01
    8987.631     -4.777   0.360  1.85362E-01  4.95427E-01 -3.10065E-01
    8987.747     -4.661   0.400  1.96704E-01  5.19370E-01 -3.22666E-01
    8987.875     -4.533   0.440  2.09598E-01  5.43246E-01 -3.33648E-01
    8988.016     -4.393   0.480  2.24017E-01  5.66557E-01 -3.42540E-01
    8988.168     -4.241   0.520  2.39851E-01  5.88984E-01 -3.49134E-01
    8988.333     -4.076   0.560  2.56902E-01  6.10358E-01 -3.53457E-01
    8988.509     -3.899   0.600  2.74967E-01  6.30619E-01 -3.55652E-01
    8988.698     -3.710   0.640  2.94074E-01  6.49835E-01 -3.55761E-01
    8988.899     -3.509   0.680  3.14455E-01  6.68095E-01 -3.53641E-01
    8989.113     -3.296   0.720  3.36436E-01  6.85490E-01 -3.49054E-01
    8989.338     -3.070   0.760  3.60503E-01  7.02146E-01 -3.41643E-01
    8989.576     -2.833   0.800  3.87103E-01  7.18139E-01 -3.31036E-01
    8989.826     -2.583   0.840  4.16717E-01  7.33553E-01 -3.16836E-01
    8990.088     -2.321   0.880  4.49635E-01  7.48473E-01 -2.98837E-01
    8990.362     -2.046   0.920  4.85425E-01  7.62907E-01 -2.77483E-01
    8990.649     -1.760   0.960  5.22875E-01  7.76913E-01 -2.54038E-01
    8990.948     -1.461   1.000  5.60379E-01  7.90512E-01 -2.30133E-01
    8991.259     -1.150   1.040  5.96725E-01  8.03701E-01 -2.06976E-01
    8991.582     -0.827   1.080  6.32061E-01  8.16484E-01 -1.84422E-01
    8991.917     -0.492   1.120  6.69604E-01  8.28858E-01 -1.59255E-01
    8992.264     -0.144   1.160  7.15302E-01  8.40839E-01 -1.25538E-01
    8992.624      0.215   1.200  7.74347E-01  8.52396E-01 -7.80496E-02
    8992.996      0.587   1.240  8.47495E-01  8.63515E-01 -1.60206E-02
    8993.380      0.971   1.280  9.29669E-01  8.74203E-01  5.54663E-02
    8993.776      1.368   1.320  1.01181E+00  8.84440E-01  1.27368E-01
    8994.185      1.776   1.360  1.08226E+00  8.94209E-01  1.88048E-01
    8994.605      2.197   1.400  1.13163E+00  9.03512E-01  2.28114E-01
    8995.038      2.629   1.440  1.16281E+00  9.12332E-01  2.50483E-01
    8995.483      3.074   1.480  1.18825E+00  9.20671E-01  2.67576E-01
    8995.940      3.532   1.520  1.21566E+00  9.28532E-01  2.87131E-01
    8996.410      4.001   1.560  1.24277E+00  9.35919E-01  3.06854E-01
    8996.891      4.483   1.600  1.26757E+00  9.42813E-01  3.24755E-01
    8997.385      4.976   1.640  1.29526E+00  9.49222E-01  3.46041E-01
    8997.891      5.482   1.680  1.32649E+00  9.55172E-01  3.71322E-01
    8998.409      6.000   1.720  1.35157E+00  9.60648E-01  3.90924E-01
    8998.939      6.531   1.760  1.35512E+00  9.65679E-01  3.89443E-01
    8999.482      7.073   1.800  1.33187E+00  9.70272E-01  3.61595E-01
    9000.037      7.628   1.840  1.29431E+00  9.74458E-01  3.19853E-01
    9000.604      8.195   1.880  1.25656E+00  9.78225E-01  2.78339E-01
    9001.183      8.774   1.920  1.22172E+00  9.81604E-01  2.40113E-01
    9001.774      9.365   1.960  1.18584E+00  9.84625E-01  2.01220E-01
    9002.378      9.969   2.000  1.14649E+00  9.87278E-01  1.59210E-01
    9002.993     10.585   2.040  1.10811E+00  9.89614E-01  1.18499E-01
    9003.621     11.213   2.080  1.08019E+00  9.91646E-01  8.85458E-02
    9004.261     11.853   2.120  1.06797E+00  9.93383E-01  7.45890E-02
    9004.914     12.505   2.160  1.07031E+00  9.94834E-01  7.54720E-02
    9005.578     13.169   2.200  1.08261E+00  9.96054E-01  8.65541E-02
    9006.255     13.846   2.240  1.09860E+00  9.97031E-01  1.01565E-01
    9006.944     14.535   2.280  1.11146E+00  9.97817E-01  1.13647E-01
    9007.645     15.236   2.320  1.11321E+00  9.98402E-01  1.14807E-01
    9008.358     15.949   2.360  1.09925E+00  9.98814E-01  1.00432E-01
    9009.083     16.675   2.400  1.07371E+00  9.99064E-01  7.46418E-02
    9009.821     17.412   2.440  1.04653E+00  9.99202E-01  4.73228E-02
    9010.571     18.162   2.480  1.02483E+00  9.99196E-01  2.56314E-02
    9011.333     18.924   2.520  1.00711E+00  9.99094E-01  8.01569E-03
    9012.107     19.698   2.560  9.87056E-01  9.98925E-01 -1.18692E-02
    9012.893     20.485   2.600  9.62763E-01  9.98656E-01 -3.58930E-02
    9013.692     21.283   2.640  9.40636E-01  9.98334E-01 -5.76982E-02
    9014.503     22.094   2.680  9.24767E-01  9.97987E-01 -7.32206E-02
    9015.325     22.917   2.720  9.13962E-01  9.97580E-01 -8.36179E-02
    9016.161     23.752   2.760  9.07077E-01  9.97158E-01 -9.00806E-02
    9017.008     24.599   2.800  9.02943E-01  9.96727E-01 -9.37844E-02
    9017.867     25.459   2.840  9.00595E-01  9.96272E-01 -9.56771E-02
    9018.739     26.331   2.880  8.99359E-01  9.95838E-01 -9.64785E-02
    9019.623     27.214   2.920  8.98550E-01  9.95430E-01 -9.68798E-02
    9020.519     28.111   2.960  8.97730E-01  9.95009E-01 -9.72793E-02
    9021.428     29.019   3.000  8.96762E-01  9.94641E-01 -9.78786E-02
    9022.348     29.939   3.040  8.95777E-01  9.94289E-01 -9.85121E-02
    9023.281     30.872   3.080  8.95116E-01  9.93995E-01 -9.88786E-02
    9024.226     31.817   3.120  8.95071E-01  9.93720E-01 -9.86493E-02
    9025.183     32.774   3.160  8.95909E-01  9.93509E-01 -9.75994E-02
    9026.152     33.743   3.200  8.97864E-01  9.93341E-01 -9.54772E-02
    9027.133     34.725   3.240  9.01222E-01  9.93219E-01 -9.19972E-02
    9028.127     35.718   3.280  9.06071E-01  9.93165E-01 -8.70940E-02
    9029.133     36.724   3.320  9.12435E-01  9.93156E-01 -8.07208E-02
    9030.151     37.742   3.360  9.20311E-01  9.93196E-01 -7.28850E-02
    9031.181     38.772   3.400  9.29606E-01  9.93305E-01 -6.36995E-02
    9032.224     39.815   3.440  9.40117E-01  9.93484E-01 -5.33678E-02
    9033.278     40.869   3.480  9.51743E-01  9.93712E-01 -4.19690E-02
    9034.345     41.936   3.520  9.64453E-01  9.93987E-01 -2.95336E-02
    9035.424     43.015   3.560  9.78110E-01  9.94330E-01 -1.62192E-02
    9036.515     44.106   3.600  9.92383E-01  9.94718E-01 -2.33586E-03
    9037.618     45.210   3.640  1.00676E+00  9.95153E-01  1.16089E-02
    9038.734     46.325   3.680  1.02066E+00  9.95655E-01  2.50085E-02
    9039.862     47.453   3.720  1.03350E+00  9.96200E-01  3.72965E-02
    9041.002     48.593   3.760  1.04482E+00  9.96786E-01  4.80323E-02
    9042.154     49.745   3.800  1.05415E+00  9.97414E-01  5.67368E-02
    9043.318     50.910   3.840  1.06096E+00  9.98081E-01  6.28800E-02
    9044.495     52.086   3.880  1.06481E+00  9.98785E-01  6.60228E-02
    9045.683     53.275   3.920  1.06565E+00  9.99525E-01  6.61237E-02
    9046.884     54.476   3.960  1.06395E+00  1.00028E+00  6.36759E-02
    9048.097     55.689   4.000  1.06083E+00  1.00106E+00  5.97621E-02
    9049.323     56.914   4.040  1.05746E+00  1.00188E+00  5.55826E-02
    9050.560     58.152   4.080  1.05465E+00  1.00271E+00  5.19472E-02
    9051.810     59.401   4.120  1.05257E+00  1.00356E+00  4.90096E-02
    9053.072     60.663   4.160  1.05096E+00  1.00442E+00  4.65459E-02
    9054.346     61.937   4.200  1.04954E+00  1.00527E+00  4.42639E-02
    9055.632     63.223   4.240  1.04814E+00  1.00613E+00  4.20081E-02
    9056.931     64.522   4.280  1.04667E+00  1.00696E+00  3.97119E-02
    9058.241     65.832   4.320  1.04501E+00  1.00781E+00  3.71987E-02
    9059.564     67.155   4.360  1.04271E+00  1.00865E+00  3.40539E-02
    9060.899     68.490   4.400  1.03927E+00  1.00947E+00  2.98027E-02
    9062.246     69.838   4.440  1.03439E+00  1.01024E+00  2.41422E-02
    9063.606     71.197   4.480  1.02807E+00  1.01101E+00  1.70610E-02
    9064.977     72.569   4.520  1.02069E+00  1.01174E+00  8.94616E-03
    9066.361     73.952   4.560  1.01298E+00  1.01246E+00  5.19161E-04
    9067.757     75.348   4.600  1.00574E+00  1.01311E+00 -7.36664E-03
    9069.165     76.756   4.640  9.99750E-01  1.01375E+00 -1.39976E-02
    9070.585     78.177   4.680  9.95336E-01  1.01434E+00 -1.90070E-02
    9072.018     79.609   4.720  9.92487E-01  1.01490E+00 -2.24079E-02
    9073.463     81.054   4.760  9.90901E-01  1.01538E+00 -2.44804E-02
    9074.920     82.511   4.800  9.90192E-01  1.01584E+00 -2.56514E-02
    9076.389     83.980   4.840  9.89884E-01  1.01624E+00 -2.63539E-02
    9077.870     85.462   4.880  9.89678E-01  1.01658E+00 -2.69059E-02
    9079.364     86.955   4.920  9.89539E-01  1.01686E+00 -2.73217E-02
    9080.869     88.461   4.960  9.89920E-01  1.01711E+00 -2.71919E-02
    9082.387     89.979   5.000  9.91503E-01  1.01729E+00 -2.57894E-02
    9083.917     91.509   5.040  9.94902E-01  1.01740E+00 -2.24986E-02
    9085.460     93.051   5.080  1.00030E+00  1.01746E+00 -1.71586E-02
    9087.014     94.605   5.120  1.00727E+00  1.01747E+00 -1.02050E-02
    9088.581     96.172   5.160  1.01490E+00  1.01744E+00 -2.53845E-03
    9090.160     97.751   5.200  1.02207E+00  1.01733E+00  4.73407E-03
    9091.751     99.342   5.240  1.02766E+00  1.01718E+00  1.04854E-02
    9093.354    100.945   5.280  1.03074E+00  1.01696E+00  1.37884E-02
    9094.969    102.561   5.320  1.03075E+00  1.01671E+00  1.40437E-02
    9096.597    104.188   5.360  1.02744E+00  1.01639E+00  1.10493E-02
    9098.237    105.828   5.400  1.02108E+00  1.01603E+00  5.04616E-03
    9099.889    107.480   5.440  1.01235E+00  1.01560E+00 -3.25745E-03
    9101.553    109.144   5.480  1.00238E+00  1.01516E+00 -1.27749E-02
    9103.229    110.821   5.520  9.92416E-01  1.01467E+00 -2.22503E-02
    9104.918    112.509   5.560  9.83616E-01  1.01411E+00 -3.04981E-02
    9106.619    114.210   5.600  9.76897E-01  1.01355E+00 -3.66488E-02
    9108.332    115.923   5.640  9.72616E-01  1.01294E+00 -4.03251E-02
    9110.057    117.648   5.680  9.70718E-01  1.01232E+00 -4.16066E-02
    9111.794    119.386   5.720  9.70803E-01  1.01165E+00 -4.08465E-02
    9113.544    121.135   5.760  9.72531E-01  1.01097E+00 -3.84343E-02
    9115.306    122.897   5.800  9.75618E-01  1.01027E+00 -3.46573E-02
    9117.079    124.671   5.840  9.79848E-01  1.00956E+00 -2.97076E-02
    9118.866    126.457   5.880  9.85018E-01  1.00881E+00 -2.37930E-02
    9120.664    128.255   5.920  9.90967E-01  1.00810E+00 -1.71298E-02
    9122.474    130.066   5.960  9.97453E-01  1.00737E+00 -9.91884E-03
    9124.297    131.888   6.000  1.00439E+00  1.00664E+00 -2.24493E-03
