# # comment:                                                     FEFF 9.9.1  
# # Source:
# # Structure
# # Reduced
# # space
# # abc:
# # angles:
# # sites:
# # POT  SCF 100  7.0000   0, screened core-hole, AFOLP (folp(0)= 1.150)
# # Abs   Z=29 Rmt= 1.223 Rnm= 1.343 K  shell
# # Pot 1 Z=29 Rmt= 1.191 Rnm= 1.328
# # Pot 2 Z= 8 Rmt= 1.023 Rnm= 1.112
# # Pot 3 Z= 9 Rmt= 1.051 Rnm= 1.141
# # Gam_ch=1.729E+00 H-L exch Vi= 0.000E+00 Vr= 0.000E+00
# # Mu=-6.999E+00eV kf=2.055E+00 Vint=-1.384E+01eV Rs_int= 1.765
# FMS rfms= 9.0000
# # PATH  Rmax=-1.000,  Keep_limit= 0.00, Heap_limit 0.00  Pwcrit= 2.50%
#  S02=0.950  Temp=   0.00  Debye_temp=   0.00  Global_sig2= 0.00000
#  Energy zero shift, vr, vi    0.00000E+00   0.00000E+00
#  Curved wave amplitude ratio filter   4.000%
#     file         sig2 tot  cw amp ratio   deg  nlegs   reff  inp sig2
#     0/   0 paths used
#  xsedge+ 50, used to normalize mu           2.4295E-04
#  -----------------------------------------------------------------------
#  omega    e    k    mu    mu0     chi     @#
    8983.423    -10.809  -1.000  3.58340E-02  5.41363E-02 -1.83022E-02
    8983.722    -10.510  -0.960  3.75118E-02  5.79980E-02 -2.04863E-02
    8984.008    -10.224  -0.920  3.92920E-02  6.22788E-02 -2.29868E-02
    8984.282     -9.950  -0.880  4.11833E-02  6.70389E-02 -2.58557E-02
    8984.545     -9.688  -0.840  4.31950E-02  7.23485E-02 -2.91535E-02
    8984.795     -9.438  -0.800  4.53377E-02  7.82886E-02 -3.29509E-02
    8985.032     -9.200  -0.760  4.76231E-02  8.49519E-02 -3.73288E-02
    8985.258     -8.974  -0.720  5.00640E-02  9.24430E-02 -4.23790E-02
    8985.471     -8.761  -0.680  5.26736E-02  1.00877E-01 -4.82030E-02
    8985.672     -8.560  -0.640  5.54653E-02  1.10373E-01 -5.49082E-02
    8985.861     -8.371  -0.600  5.84507E-02  1.21052E-01 -6.26013E-02
    8986.038     -8.194  -0.560  6.16371E-02  1.33012E-01 -7.13753E-02
    8986.203     -8.029  -0.520  6.50228E-02  1.46313E-01 -8.12905E-02
    8986.355     -7.877  -0.480  6.85921E-02  1.60939E-01 -9.23469E-02
    8986.495     -7.737  -0.440  7.23083E-02  1.76762E-01 -1.04454E-01
    8986.623     -7.609  -0.400  7.61086E-02  1.93511E-01 -1.17402E-01
    8986.739     -7.493  -0.360  7.99048E-02  2.10760E-01 -1.30856E-01
    8986.843     -7.389  -0.320  8.35896E-02  2.27958E-01 -1.44368E-01
    8986.934     -7.298  -0.280  8.70513E-02  2.44488E-01 -1.57437E-01
    8987.013     -7.219  -0.240  9.01892E-02  2.59758E-01 -1.69569E-01
    8987.081     -7.152  -0.200  9.29257E-02  2.73266E-01 -1.80341E-01
    8987.135     -7.097  -0.160  9.52087E-02  2.84644E-01 -1.89435E-01
    8987.178     -7.054  -0.120  9.70079E-02  2.93648E-01 -1.96640E-01
    8987.209     -7.024  -0.080  9.83072E-02  3.00143E-01 -2.01835E-01
    8987.233     -6.999   0.000  9.93679E-02  3.05366E-01 -2.05998E-01
    8987.288     -6.944   0.120  1.01780E-01  3.17151E-01 -2.15372E-01
    8987.330     -6.902   0.160  1.03615E-01  3.26340E-01 -2.22725E-01
    8987.385     -6.847   0.200  1.05947E-01  3.38095E-01 -2.32148E-01
    8987.452     -6.780   0.240  1.08723E-01  3.52261E-01 -2.43539E-01
    8987.532     -6.700   0.280  1.11978E-01  3.68632E-01 -2.56654E-01
    8987.623     -6.609   0.320  1.15651E-01  3.86776E-01 -2.71125E-01
    8987.727     -6.505   0.360  1.19854E-01  4.06267E-01 -2.86414E-01
    8987.843     -6.390   0.400  1.24659E-01  4.26587E-01 -3.01928E-01
    8987.971     -6.262   0.440  1.30237E-01  4.47237E-01 -3.17000E-01
    8988.111     -6.121   0.480  1.36873E-01  4.67903E-01 -3.31030E-01
    8988.263     -5.969   0.520  1.44842E-01  4.88294E-01 -3.43452E-01
    8988.428     -5.804   0.560  1.54516E-01  5.08325E-01 -3.53809E-01
    8988.605     -5.628   0.600  1.66184E-01  5.27940E-01 -3.61756E-01
    8988.793     -5.439   0.640  1.80166E-01  5.47164E-01 -3.66998E-01
    8988.995     -5.237   0.680  1.96730E-01  5.66072E-01 -3.69341E-01
    8989.208     -5.024   0.720  2.16085E-01  5.84708E-01 -3.68623E-01
    8989.434     -4.799   0.760  2.38420E-01  6.03157E-01 -3.64737E-01
    8989.671     -4.561   0.800  2.63614E-01  6.21430E-01 -3.57816E-01
    8989.921     -4.311   0.840  2.91427E-01  6.39568E-01 -3.48141E-01
    8990.183     -4.049   0.880  3.21773E-01  6.57619E-01 -3.35845E-01
    8990.458     -3.774   0.920  3.55130E-01  6.75555E-01 -3.20426E-01
    8990.744     -3.488   0.960  3.92526E-01  6.93381E-01 -3.00855E-01
    8991.043     -3.189   1.000  4.34268E-01  7.11068E-01 -2.76801E-01
    8991.354     -2.878   1.040  4.78859E-01  7.28582E-01 -2.49723E-01
    8991.677     -2.555   1.080  5.23032E-01  7.45900E-01 -2.22868E-01
    8992.012     -2.220   1.120  5.61838E-01  7.62977E-01 -2.01139E-01
    8992.360     -1.872   1.160  5.90159E-01  7.79780E-01 -1.89621E-01
    8992.719     -1.513   1.200  6.05663E-01  7.96257E-01 -1.90594E-01
    8993.091     -1.141   1.240  6.10685E-01  8.12351E-01 -2.01666E-01
    8993.475     -0.757   1.280  6.12518E-01  8.28025E-01 -2.15507E-01
    8993.871     -0.361   1.320  6.20292E-01  8.43244E-01 -2.22952E-01
    8994.280      0.048   1.360  6.39913E-01  8.57949E-01 -2.18036E-01
    8994.700      0.468   1.400  6.72536E-01  8.72105E-01 -1.99569E-01
    8995.133      0.901   1.440  7.15457E-01  8.85678E-01 -1.70221E-01
    8995.578      1.346   1.480  7.60613E-01  8.98635E-01 -1.38023E-01
    8996.036      1.803   1.520  7.96456E-01  9.10968E-01 -1.14512E-01
    8996.505      2.273   1.560  8.19629E-01  9.22648E-01 -1.03020E-01
    8996.986      2.754   1.600  8.39084E-01  9.33649E-01 -9.45643E-02
    8997.480      3.248   1.640  8.71715E-01  9.43986E-01 -7.22716E-02
    8997.986      3.754   1.680  9.30379E-01  9.53619E-01 -2.32404E-02
    8998.504      4.272   1.720  1.01128E+00  9.62570E-01  4.87144E-02
    8999.035      4.803   1.760  1.09967E+00  9.70840E-01  1.28834E-01
    8999.577      5.345   1.800  1.18655E+00  9.78456E-01  2.08094E-01
    9000.132      5.900   1.840  1.26806E+00  9.85383E-01  2.82680E-01
    9000.699      6.467   1.880  1.33563E+00  9.91672E-01  3.43958E-01
    9001.278      7.046   1.920  1.38065E+00  9.97334E-01  3.83312E-01
    9001.869      7.637   1.960  1.40221E+00  1.00240E+00  3.99807E-01
    9002.473      8.241   2.000  1.40177E+00  1.00688E+00  3.94889E-01
    9003.089      8.856   2.040  1.37938E+00  1.01081E+00  3.68573E-01
    9003.716      9.484   2.080  1.33815E+00  1.01421E+00  3.23948E-01
    9004.357     10.124   2.120  1.28671E+00  1.01710E+00  2.69610E-01
    9005.009     10.777   2.160  1.23858E+00  1.01953E+00  2.19053E-01
    9005.673     11.441   2.200  1.20634E+00  1.02151E+00  1.84837E-01
    9006.350     12.118   2.240  1.18882E+00  1.02309E+00  1.65726E-01
    9007.039     12.807   2.280  1.17451E+00  1.02428E+00  1.50231E-01
    9007.740     13.508   2.320  1.15796E+00  1.02514E+00  1.32820E-01
    9008.453     14.221   2.360  1.14322E+00  1.02566E+00  1.17557E-01
    9009.178     14.946   2.400  1.13347E+00  1.02588E+00  1.07594E-01
    9009.916     15.684   2.440  1.12289E+00  1.02584E+00  9.70452E-02
    9010.666     16.434   2.480  1.10779E+00  1.02558E+00  8.22098E-02
    9011.428     17.196   2.520  1.09429E+00  1.02509E+00  6.92082E-02
    9012.202     17.970   2.560  1.08442E+00  1.02441E+00  6.00040E-02
    9012.988     18.756   2.600  1.07598E+00  1.02355E+00  5.24298E-02
    9013.787     19.555   2.640  1.06738E+00  1.02258E+00  4.48075E-02
    9014.598     20.366   2.680  1.05811E+00  1.02146E+00  3.66570E-02
    9015.421     21.189   2.720  1.04811E+00  1.02024E+00  2.78672E-02
    9016.256     22.024   2.760  1.03669E+00  1.01897E+00  1.77208E-02
    9017.103     22.871   2.800  1.02285E+00  1.01760E+00  5.25341E-03
    9017.963     23.731   2.840  1.00617E+00  1.01620E+00 -1.00274E-02
    9018.834     24.602   2.880  9.86945E-01  1.01476E+00 -2.78165E-02
    9019.718     25.486   2.920  9.66061E-01  1.01329E+00 -4.72340E-02
    9020.614     26.382   2.960  9.45093E-01  1.01184E+00 -6.67500E-02
    9021.523     27.291   3.000  9.25481E-01  1.01037E+00 -8.48925E-02
    9022.443     28.211   3.040  9.07941E-01  1.00893E+00 -1.00991E-01
    9023.376     29.144   3.080  8.92814E-01  1.00752E+00 -1.14710E-01
    9024.321     30.089   3.120  8.80335E-01  1.00615E+00 -1.25820E-01
    9025.278     31.046   3.160  8.70588E-01  1.00483E+00 -1.34239E-01
    9026.247     32.015   3.200  8.63670E-01  1.00355E+00 -1.39875E-01
    9027.229     32.997   3.240  8.59615E-01  1.00231E+00 -1.42697E-01
    9028.222     33.990   3.280  8.58188E-01  1.00117E+00 -1.42986E-01
    9029.228     34.996   3.320  8.58887E-01  1.00009E+00 -1.41203E-01
    9030.246     36.014   3.360  8.61271E-01  9.99084E-01 -1.37813E-01
    9031.276     37.044   3.400  8.64998E-01  9.98158E-01 -1.33160E-01
    9032.319     38.087   3.440  8.69871E-01  9.97313E-01 -1.27442E-01
    9033.373     39.141   3.480  8.75820E-01  9.96550E-01 -1.20730E-01
    9034.440     40.208   3.520  8.82749E-01  9.95871E-01 -1.13122E-01
    9035.519     41.287   3.560  8.90554E-01  9.95274E-01 -1.04720E-01
    9036.610     42.378   3.600  8.99342E-01  9.94784E-01 -9.54424E-02
    9037.714     43.482   3.640  9.09356E-01  9.94359E-01 -8.50028E-02
    9038.829     44.597   3.680  9.20976E-01  9.94040E-01 -7.30640E-02
    9039.957     45.725   3.720  9.34625E-01  9.93827E-01 -5.92023E-02
    9041.097     46.865   3.760  9.50655E-01  9.93678E-01 -4.30226E-02
    9042.249     48.017   3.800  9.69176E-01  9.93611E-01 -2.44353E-02
    9043.413     49.181   3.840  9.89781E-01  9.93649E-01 -3.86798E-03
    9044.590     50.358   3.880  1.01154E+00  9.93748E-01  1.77894E-02
    9045.779     51.547   3.920  1.03321E+00  9.93948E-01  3.92618E-02
    9046.980     52.747   3.960  1.05322E+00  9.94207E-01  5.90089E-02
    9048.193     53.961   4.000  1.07009E+00  9.94565E-01  7.55297E-02
    9049.418     55.186   4.040  1.08269E+00  9.94978E-01  8.77159E-02
    9050.655     56.423   4.080  1.09048E+00  9.95443E-01  9.50374E-02
    9051.905     57.673   4.120  1.09365E+00  9.96001E-01  9.76443E-02
    9053.167     58.935   4.160  1.09299E+00  9.96589E-01  9.64010E-02
    9054.441     60.209   4.200  1.08990E+00  9.97245E-01  9.26553E-02
    9055.727     61.495   4.240  1.08579E+00  9.97968E-01  8.78175E-02
    9057.026     62.794   4.280  1.08158E+00  9.98715E-01  8.28652E-02
    9058.336     64.104   4.320  1.07768E+00  9.99524E-01  7.81533E-02
    9059.659     65.427   4.360  1.07393E+00  1.00037E+00  7.35595E-02
    9060.994     66.762   4.400  1.07012E+00  1.00123E+00  6.88887E-02
    9062.341     68.109   4.440  1.06636E+00  1.00213E+00  6.42280E-02
    9063.701     69.469   4.480  1.06296E+00  1.00303E+00  5.99307E-02
    9065.072     70.840   4.520  1.06031E+00  1.00397E+00  5.63468E-02
    9066.456     72.224   4.560  1.05846E+00  1.00493E+00  5.35341E-02
    9067.852     73.620   4.600  1.05701E+00  1.00587E+00  5.11412E-02
    9069.260     75.028   4.640  1.05553E+00  1.00683E+00  4.86937E-02
    9070.681     76.449   4.680  1.05362E+00  1.00777E+00  4.58480E-02
    9072.113     77.881   4.720  1.05107E+00  1.00871E+00  4.23590E-02
    9073.558     79.326   4.760  1.04758E+00  1.00964E+00  3.79464E-02
    9075.015     80.783   4.800  1.04285E+00  1.01056E+00  3.22898E-02
    9076.484     82.252   4.840  1.03662E+00  1.01144E+00  2.51816E-02
    9077.965     83.733   4.880  1.02899E+00  1.01229E+00  1.66924E-02
    9079.459     85.227   4.920  1.02030E+00  1.01313E+00  7.17350E-03
    9080.965     86.733   4.960  1.01109E+00  1.01390E+00 -2.81523E-03
    9082.483     88.250   5.000  1.00211E+00  1.01466E+00 -1.25529E-02
    9084.013     89.781   5.040  9.94068E-01  1.01537E+00 -2.13030E-02
    9085.555     91.323   5.080  9.87498E-01  1.01602E+00 -2.85202E-02
    9087.109     92.877   5.120  9.82621E-01  1.01664E+00 -3.40202E-02
    9088.676     94.444   5.160  9.79208E-01  1.01720E+00 -3.79887E-02
    9090.255     96.023   5.200  9.76825E-01  1.01770E+00 -4.08775E-02
    9091.846     97.614   5.240  9.74836E-01  1.01814E+00 -4.33027E-02
    9093.449     99.217   5.280  9.72641E-01  1.01852E+00 -4.58840E-02
    9095.065    100.833   5.320  9.69790E-01  1.01886E+00 -4.90712E-02
    9096.692    102.460   5.360  9.66150E-01  1.01913E+00 -5.29769E-02
    9098.332    104.100   5.400  9.61908E-01  1.01934E+00 -5.74313E-02
    9099.984    105.752   5.440  9.57446E-01  1.01948E+00 -6.20301E-02
    9101.648    107.416   5.480  9.53437E-01  1.01954E+00 -6.61026E-02
    9103.325    109.093   5.520  9.50783E-01  1.01955E+00 -6.87695E-02
    9105.013    110.781   5.560  9.50306E-01  1.01952E+00 -6.92104E-02
    9106.714    112.482   5.600  9.52597E-01  1.01941E+00 -6.68105E-02
    9108.427    114.195   5.640  9.58059E-01  1.01925E+00 -6.11904E-02
    9110.152    115.920   5.680  9.66665E-01  1.01902E+00 -5.23521E-02
    9111.890    117.657   5.720  9.77720E-01  1.01871E+00 -4.09936E-02
    9113.639    119.407   5.760  9.89934E-01  1.01839E+00 -2.84532E-02
    9115.401    121.169   5.800  1.00180E+00  1.01799E+00 -1.61901E-02
    9117.175    122.943   5.840  1.01233E+00  1.01753E+00 -5.19725E-03
    9118.961    124.729   5.880  1.02124E+00  1.01705E+00  4.18776E-03
    9120.759    126.527   5.920  1.02850E+00  1.01651E+00  1.19922E-02
    9122.570    128.338   5.960  1.03409E+00  1.01596E+00  1.81305E-02
    9124.392    130.160   6.000  1.03765E+00  1.01531E+00  2.23355E-02
