# # comment:                                                     FEFF 9.9.1  
# # Source:
# # Structure
# # Reduced
# # space
# # abc:
# # angles:118.356009
# # sites:
# # POT  SCF 100  7.0000   0, screened core-hole, AFOLP (folp(0)= 1.150)
# # Abs   Z=29 Rmt= 1.235 Rnm= 1.302 K  shell
# # Pot 1 Z=29 Rmt= 1.168 Rnm= 1.294
# # Pot 2 Z= 8 Rmt= 1.025 Rnm= 1.124
# # Gam_ch=1.729E+00 H-L exch Vi= 0.000E+00 Vr= 0.000E+00
# # Mu=-7.102E+00eV kf=2.142E+00 Vint=-1.453E+01eV Rs_int= 1.693
# FMS rfms= 9.0000
# # PATH  Rmax=-1.000,  Keep_limit= 0.00, Heap_limit 0.00  Pwcrit= 2.50%
#  S02=0.950  Temp=   0.00  Debye_temp=   0.00  Global_sig2= 0.00000
#  Energy zero shift, vr, vi    0.00000E+00   0.00000E+00
#  Curved wave amplitude ratio filter   4.000%
#     file         sig2 tot  cw amp ratio   deg  nlegs   reff  inp sig2
#     0/   0 paths used
#  xsedge+ 50, used to normalize mu           2.4264E-04
#  -----------------------------------------------------------------------
#  omega    e    k    mu    mu0     chi     @#
    8983.635    -10.912  -1.000  3.01800E-02  5.44234E-02 -2.42434E-02
    8983.934    -10.613  -0.960  3.13677E-02  5.83467E-02 -2.69791E-02
    8984.220    -10.327  -0.920  3.26161E-02  6.27010E-02 -3.00849E-02
    8984.495    -10.052  -0.880  3.39309E-02  6.75487E-02 -3.36178E-02
    8984.757     -9.790  -0.840  3.53186E-02  7.29629E-02 -3.76442E-02
    8985.007     -9.540  -0.800  3.67868E-02  7.90276E-02 -4.22408E-02
    8985.245     -9.303  -0.760  3.83443E-02  8.58396E-02 -4.74952E-02
    8985.470     -9.077  -0.720  4.00011E-02  9.35076E-02 -5.35066E-02
    8985.683     -8.864  -0.680  4.17680E-02  1.02152E-01 -6.03836E-02
    8985.885     -8.663  -0.640  4.36566E-02  1.11898E-01 -6.82412E-02
    8986.074     -8.474  -0.600  4.56777E-02  1.22870E-01 -7.71921E-02
    8986.250     -8.297  -0.560  4.78397E-02  1.35173E-01 -8.73332E-02
    8986.415     -8.132  -0.520  5.01456E-02  1.48869E-01 -9.87234E-02
    8986.567     -7.980  -0.480  5.25888E-02  1.63943E-01 -1.11354E-01
    8986.708     -7.840  -0.440  5.51488E-02  1.80262E-01 -1.25114E-01
    8986.836     -7.712  -0.400  5.77867E-02  1.97546E-01 -1.39760E-01
    8986.951     -7.596  -0.360  6.04447E-02  2.15353E-01 -1.54908E-01
    8987.055     -7.492  -0.320  6.30496E-02  2.33107E-01 -1.70058E-01
    8987.146     -7.401  -0.280  6.55217E-02  2.50171E-01 -1.84650E-01
    8987.226     -7.321  -0.240  6.77856E-02  2.65930E-01 -1.98145E-01
    8987.293     -7.254  -0.200  6.97788E-02  2.79866E-01 -2.10087E-01
    8987.348     -7.199  -0.160  7.14565E-02  2.91597E-01 -2.20140E-01
    8987.390     -7.157  -0.120  7.27898E-02  3.00877E-01 -2.28088E-01
    8987.421     -7.126  -0.080  7.37621E-02  3.07568E-01 -2.33806E-01
    8987.445     -7.102   0.000  7.45754E-02  3.12946E-01 -2.38371E-01
    8987.500     -7.047   0.120  7.64229E-02  3.25069E-01 -2.48646E-01
    8987.543     -7.004   0.160  7.78172E-02  3.34521E-01 -2.56704E-01
    8987.598     -6.950   0.200  7.95180E-02  3.46592E-01 -2.67074E-01
    8987.665     -6.882   0.240  8.15293E-02  3.61132E-01 -2.79602E-01
    8987.744     -6.803   0.280  8.37994E-02  3.77894E-01 -2.94094E-01
    8987.835     -6.712   0.320  8.62692E-02  3.96460E-01 -3.10191E-01
    8987.939     -6.608   0.360  8.88661E-02  4.16313E-01 -3.27447E-01
    8988.055     -6.492   0.400  9.15456E-02  4.36920E-01 -3.45375E-01
    8988.183     -6.364   0.440  9.42967E-02  4.57776E-01 -3.63479E-01
    8988.323     -6.224   0.480  9.72064E-02  4.78521E-01 -3.81315E-01
    8988.475     -6.072   0.520  1.00364E-01  4.98874E-01 -3.98510E-01
    8988.640     -5.907   0.560  1.03968E-01  5.18722E-01 -4.14754E-01
    8988.817     -5.730   0.600  1.08197E-01  5.38008E-01 -4.29811E-01
    8989.006     -5.541   0.640  1.13293E-01  5.56803E-01 -4.43510E-01
    8989.207     -5.340   0.680  1.19336E-01  5.75126E-01 -4.55791E-01
    8989.420     -5.127   0.720  1.26213E-01  5.93094E-01 -4.66881E-01
    8989.646     -4.901   0.760  1.33612E-01  6.10735E-01 -4.77123E-01
    8989.884     -4.664   0.800  1.41198E-01  6.28133E-01 -4.86935E-01
    8990.134     -4.414   0.840  1.48768E-01  6.45315E-01 -4.96547E-01
    8990.396     -4.151   0.880  1.56371E-01  6.62316E-01 -5.05945E-01
    8990.670     -3.877   0.920  1.64336E-01  6.79160E-01 -5.14824E-01
    8990.956     -3.591   0.960  1.73411E-01  6.95835E-01 -5.22424E-01
    8991.255     -3.292   1.000  1.84726E-01  7.12342E-01 -5.27617E-01
    8991.566     -2.981   1.040  1.99560E-01  7.28655E-01 -5.29095E-01
    8991.889     -2.658   1.080  2.19330E-01  7.44756E-01 -5.25426E-01
    8992.224     -2.323   1.120  2.45993E-01  7.60606E-01 -5.14613E-01
    8992.572     -1.975   1.160  2.81191E-01  7.76200E-01 -4.95008E-01
    8992.932     -1.616   1.200  3.22683E-01  7.91450E-01 -4.68767E-01
    8993.303     -1.244   1.240  3.63119E-01  8.06387E-01 -4.43268E-01
    8993.687     -0.860   1.280  3.95765E-01  8.20918E-01 -4.25153E-01
    8994.084     -0.463   1.320  4.18860E-01  8.35031E-01 -4.16171E-01
    8994.492     -0.055   1.360  4.35540E-01  8.48673E-01 -4.13133E-01
    8994.913      0.366   1.400  4.54220E-01  8.61855E-01 -4.07635E-01
    8995.346      0.798   1.440  4.83523E-01  8.74504E-01 -3.90981E-01
    8995.791      1.243   1.480  5.29473E-01  8.86613E-01 -3.57139E-01
    8996.248      1.701   1.520  5.97098E-01  8.98171E-01 -3.01073E-01
    8996.717      2.170   1.560  6.87308E-01  9.09154E-01 -2.21845E-01
    8997.199      2.652   1.600  7.93078E-01  9.19535E-01 -1.26457E-01
    8997.693      3.145   1.640  9.00737E-01  9.29312E-01 -2.85746E-02
    8998.198      3.651   1.680  9.92731E-01  9.38483E-01  5.42477E-02
    8998.717      4.170   1.720  1.06421E+00  9.47051E-01  1.17155E-01
    8999.247      4.700   1.760  1.14076E+00  9.55018E-01  1.85743E-01
    8999.790      5.242   1.800  1.24280E+00  9.62367E-01  2.80437E-01
    9000.344      5.797   1.840  1.35012E+00  9.69146E-01  3.80975E-01
    9000.911      6.364   1.880  1.45758E+00  9.75361E-01  4.82220E-01
    9001.490      6.943   1.920  1.60484E+00  9.81000E-01  6.23843E-01
    9002.082      7.534   1.960  1.82025E+00  9.86094E-01  8.34159E-01
    9002.685      8.138   2.000  2.05649E+00  9.90673E-01  1.06581E+00
    9003.301      8.754   2.040  2.16429E+00  9.94729E-01  1.16957E+00
    9003.929      9.382   2.080  2.04944E+00  9.98333E-01  1.05111E+00
    9004.569     10.022   2.120  1.81622E+00  1.00148E+00  8.14738E-01
    9005.221     10.674   2.160  1.58299E+00  1.00418E+00  5.78805E-01
    9005.886     11.338   2.200  1.37812E+00  1.00649E+00  3.71630E-01
    9006.562     12.015   2.240  1.20768E+00  1.00843E+00  1.99251E-01
    9007.251     12.704   2.280  1.08129E+00  1.01000E+00  7.12941E-02
    9007.952     13.405   2.320  9.95483E-01  1.01125E+00 -1.57710E-02
    9008.665     14.118   2.360  9.32181E-01  1.01221E+00 -8.00328E-02
    9009.391     14.844   2.400  8.87525E-01  1.01289E+00 -1.25365E-01
    9010.128     15.581   2.440  8.72902E-01  1.01331E+00 -1.40411E-01
    9010.878     16.331   2.480  8.85011E-01  1.01350E+00 -1.28486E-01
    9011.640     17.093   2.520  9.08452E-01  1.01349E+00 -1.05042E-01
    9012.414     17.867   2.560  9.34785E-01  1.01331E+00 -7.85301E-02
    9013.201     18.654   2.600  9.53820E-01  1.01295E+00 -5.91312E-02
    9013.999     19.452   2.640  9.62955E-01  1.01247E+00 -4.95195E-02
    9014.810     20.263   2.680  9.64840E-01  1.01185E+00 -4.70122E-02
    9015.633     21.086   2.720  9.63033E-01  1.01114E+00 -4.81023E-02
    9016.468     21.921   2.760  9.59773E-01  1.01033E+00 -5.05606E-02
    9017.315     22.768   2.800  9.55670E-01  1.00948E+00 -5.38051E-02
    9018.175     23.628   2.840  9.50311E-01  1.00855E+00 -5.82369E-02
    9019.047     24.500   2.880  9.42430E-01  1.00758E+00 -6.51482E-02
    9019.931     25.383   2.920  9.31127E-01  1.00659E+00 -7.54664E-02
    9020.827     26.280   2.960  9.16493E-01  1.00560E+00 -8.91074E-02
    9021.735     27.188   3.000  8.99182E-01  1.00458E+00 -1.05403E-01
    9022.656     28.108   3.040  8.80502E-01  1.00359E+00 -1.23091E-01
    9023.588     29.041   3.080  8.62478E-01  1.00261E+00 -1.40129E-01
    9024.533     29.986   3.120  8.46553E-01  1.00166E+00 -1.55102E-01
    9025.490     30.943   3.160  8.33431E-01  1.00074E+00 -1.67309E-01
    9026.459     31.912   3.200  8.23501E-01  9.99868E-01 -1.76367E-01
    9027.441     32.894   3.240  8.16800E-01  9.99036E-01 -1.82237E-01
    9028.435     33.887   3.280  8.13038E-01  9.98251E-01 -1.85214E-01
    9029.440     34.893   3.320  8.12132E-01  9.97537E-01 -1.85406E-01
    9030.458     35.911   3.360  8.14314E-01  9.96895E-01 -1.82581E-01
    9031.489     36.941   3.400  8.19652E-01  9.96307E-01 -1.76655E-01
    9032.531     37.984   3.440  8.28454E-01  9.95794E-01 -1.67340E-01
    9033.586     39.038   3.480  8.41095E-01  9.95357E-01 -1.54262E-01
    9034.652     40.105   3.520  8.57669E-01  9.94977E-01 -1.37308E-01
    9035.731     41.184   3.560  8.77953E-01  9.94698E-01 -1.16745E-01
    9036.823     42.275   3.600  9.01512E-01  9.94477E-01 -9.29648E-02
    9037.926     43.379   3.640  9.27722E-01  9.94355E-01 -6.66324E-02
    9039.042     44.494   3.680  9.55668E-01  9.94292E-01 -3.86235E-02
    9040.169     45.622   3.720  9.84449E-01  9.94308E-01 -9.85915E-03
    9041.309     46.762   3.760  1.01309E+00  9.94404E-01  1.86853E-02
    9042.461     47.914   3.800  1.04053E+00  9.94579E-01  4.59478E-02
    9043.626     49.079   3.840  1.06610E+00  9.94832E-01  7.12713E-02
    9044.802     50.255   3.880  1.08958E+00  9.95161E-01  9.44214E-02
    9045.991     51.444   3.920  1.11082E+00  9.95545E-01  1.15279E-01
    9047.192     52.645   3.960  1.12956E+00  9.96003E-01  1.33557E-01
    9048.405     53.858   4.000  1.14526E+00  9.96534E-01  1.48729E-01
    9049.630     55.083   4.040  1.15703E+00  9.97114E-01  1.59914E-01
    9050.868     56.321   4.080  1.16381E+00  9.97741E-01  1.66069E-01
    9052.117     57.570   4.120  1.16505E+00  9.98436E-01  1.66612E-01
    9053.379     58.832   4.160  1.16088E+00  9.99178E-01  1.61699E-01
    9054.653     60.106   4.200  1.15193E+00  9.99961E-01  1.51965E-01
    9055.940     61.392   4.240  1.13913E+00  1.00079E+00  1.38341E-01
    9057.238     62.691   4.280  1.12367E+00  1.00167E+00  1.21998E-01
    9058.549     64.001   4.320  1.10673E+00  1.00255E+00  1.04179E-01
    9059.871     65.324   4.360  1.08959E+00  1.00348E+00  8.61092E-02
    9061.206     66.659   4.400  1.07321E+00  1.00442E+00  6.87829E-02
    9062.554     68.007   4.440  1.05816E+00  1.00540E+00  5.27598E-02
    9063.913     69.366   4.480  1.04453E+00  1.00638E+00  3.81545E-02
    9065.285     70.738   4.520  1.03220E+00  1.00736E+00  2.48407E-02
    9066.668     72.121   4.560  1.02090E+00  1.00834E+00  1.25674E-02
    9068.064     73.517   4.600  1.01035E+00  1.00932E+00  1.03730E-03
    9069.473     74.925   4.640  1.00036E+00  1.01029E+00 -9.93381E-03
    9070.893     76.346   4.680  9.91021E-01  1.01126E+00 -2.02400E-02
    9072.326     77.778   4.720  9.82716E-01  1.01220E+00 -2.94855E-02
    9073.770     79.223   4.760  9.76067E-01  1.01313E+00 -3.70641E-02
    9075.227     80.680   4.800  9.71606E-01  1.01405E+00 -4.24421E-02
    9076.696     82.149   4.840  9.69417E-01  1.01491E+00 -4.54911E-02
    9078.178     83.631   4.880  9.69166E-01  1.01575E+00 -4.65839E-02
    9079.671     85.124   4.920  9.69907E-01  1.01655E+00 -4.66429E-02
    9081.177     86.630   4.960  9.70591E-01  1.01729E+00 -4.66959E-02
    9082.695     88.148   5.000  9.70660E-01  1.01800E+00 -4.73417E-02
    9084.225     89.678   5.040  9.70305E-01  1.01867E+00 -4.83676E-02
    9085.767     91.220   5.080  9.70675E-01  1.01927E+00 -4.86001E-02
    9087.322     92.774   5.120  9.73342E-01  1.01983E+00 -4.64861E-02
    9088.888     94.341   5.160  9.79432E-01  1.02033E+00 -4.09010E-02
    9090.467     95.920   5.200  9.89087E-01  1.02076E+00 -3.16769E-02
    9092.058     97.511   5.240  1.00139E+00  1.02112E+00 -1.97306E-02
    9093.661     99.114   5.280  1.01463E+00  1.02145E+00 -6.82613E-03
    9095.277    100.730   5.320  1.02634E+00  1.02169E+00  4.65676E-03
    9096.904    102.357   5.360  1.03436E+00  1.02189E+00  1.24705E-02
    9098.544    103.997   5.400  1.03730E+00  1.02200E+00  1.53028E-02
    9100.196    105.649   5.440  1.03530E+00  1.02205E+00  1.32483E-02
    9101.861    107.313   5.480  1.02917E+00  1.02206E+00  7.11670E-03
    9103.537    108.990   5.520  1.01946E+00  1.02196E+00 -2.50798E-03
    9105.226    110.678   5.560  1.00649E+00  1.02184E+00 -1.53551E-02
    9106.926    112.379   5.600  9.90872E-01  1.02165E+00 -3.07729E-02
    9108.639    114.092   5.640  9.73907E-01  1.02138E+00 -4.74693E-02
    9110.364    115.817   5.680  9.56972E-01  1.02106E+00 -6.40836E-02
    9112.102    117.555   5.720  9.41120E-01  1.02067E+00 -7.95451E-02
    9113.851    119.304   5.760  9.27453E-01  1.02023E+00 -9.27765E-02
    9115.613    121.066   5.800  9.17275E-01  1.01975E+00 -1.02476E-01
    9117.387    122.840   5.840  9.11998E-01  1.01923E+00 -1.07233E-01
    9119.173    124.626   5.880  9.12903E-01  1.01865E+00 -1.05745E-01
    9120.971    126.424   5.920  9.20896E-01  1.01805E+00 -9.71583E-02
    9122.782    128.235   5.960  9.35901E-01  1.01740E+00 -8.14999E-02
    9124.605    130.057   6.000  9.57482E-01  1.01670E+00 -5.92226E-02
