# # comment:                                                     FEFF 9.9.1  
# # Source:
# # Structure
# # Reduced
# # space
# # abc:
# # angles:113.739118
# # sites:
# # POT  SCF 100  7.0000   0, screened core-hole, AFOLP (folp(0)= 1.150)
# # Abs   Z=29 Rmt= 1.188 Rnm= 1.337 K  shell
# # Pot 1 Z=23 Rmt= 1.151 Rnm= 1.322
# # Pot 2 Z=29 Rmt= 1.165 Rnm= 1.331
# # Pot 3 Z= 8 Rmt= 0.883 Rnm= 1.067
# # Gam_ch=1.729E+00 H-L exch Vi= 0.000E+00 Vr= 0.000E+00
# # Mu=-9.645E+00eV kf=2.335E+00 Vint=-1.856E+01eV Rs_int= 1.553
# FMS rfms= 9.0000
# # PATH  Rmax=-1.000,  Keep_limit= 0.00, Heap_limit 0.00  Pwcrit= 2.50%
#  S02=0.950  Temp=   0.00  Debye_temp=   0.00  Global_sig2= 0.00000
#  Energy zero shift, vr, vi    0.00000E+00   0.00000E+00
#  Curved wave amplitude ratio filter   4.000%
#     file         sig2 tot  cw amp ratio   deg  nlegs   reff  inp sig2
#     0/   0 paths used
#  xsedge+ 50, used to normalize mu           2.5217E-04
#  -----------------------------------------------------------------------
#  omega    e    k    mu    mu0     chi     @#
    8983.828    -13.455  -1.000  3.71193E-02  4.68758E-02 -9.75645E-03
    8984.127    -13.156  -0.960  3.92419E-02  5.01286E-02 -1.08867E-02
    8984.414    -12.869  -0.920  4.15614E-02  5.37330E-02 -1.21716E-02
    8984.688    -12.595  -0.880  4.41060E-02  5.77404E-02 -1.36344E-02
    8984.950    -12.333  -0.840  4.69084E-02  6.22101E-02 -1.53016E-02
    8985.200    -12.083  -0.800  5.00073E-02  6.72110E-02 -1.72037E-02
    8985.438    -11.845  -0.760  5.34475E-02  7.28223E-02 -1.93748E-02
    8985.663    -11.620  -0.720  5.72800E-02  7.91331E-02 -2.18530E-02
    8985.877    -11.406  -0.680  6.15620E-02  8.62415E-02 -2.46796E-02
    8986.078    -11.205  -0.640  6.63542E-02  9.42513E-02 -2.78970E-02
    8986.267    -11.016  -0.600  7.17174E-02  1.03264E-01 -3.15464E-02
    8986.444    -10.839  -0.560  7.77038E-02  1.13365E-01 -3.56617E-02
    8986.608    -10.675  -0.520  8.43454E-02  1.24607E-01 -4.02619E-02
    8986.761    -10.522  -0.480  9.16368E-02  1.36977E-01 -4.53398E-02
    8986.901    -10.382  -0.440  9.95150E-02  1.50365E-01 -5.08501E-02
    8987.029    -10.254  -0.400  1.07842E-01  1.64541E-01 -5.66989E-02
    8987.145    -10.138  -0.360  1.16401E-01  1.79142E-01 -6.27410E-02
    8987.248    -10.035  -0.320  1.24906E-01  1.93695E-01 -6.87897E-02
    8987.340     -9.943  -0.280  1.33040E-01  2.07677E-01 -7.46376E-02
    8987.419     -9.864  -0.240  1.40502E-01  2.20584E-01 -8.00823E-02
    8987.486     -9.797  -0.200  1.47045E-01  2.31992E-01 -8.49469E-02
    8987.541     -9.742  -0.160  1.52501E-01  2.41590E-01 -8.90894E-02
    8987.584     -9.700  -0.120  1.56777E-01  2.49180E-01 -9.24034E-02
    8987.614     -9.669  -0.080  1.59834E-01  2.54649E-01 -9.48155E-02
    8987.638     -9.645   0.000  1.62269E-01  2.59044E-01 -9.67745E-02
    8987.693     -9.590   0.120  1.67547E-01  2.68960E-01 -1.01413E-01
    8987.736     -9.547   0.160  1.71618E-01  2.76670E-01 -1.05051E-01
    8987.791     -9.492   0.200  1.76710E-01  2.86525E-01 -1.09815E-01
    8987.858     -9.425   0.240  1.82639E-01  2.98378E-01 -1.15739E-01
    8987.937     -9.346   0.280  1.89178E-01  3.12017E-01 -1.22839E-01
    8988.029     -9.255   0.320  1.95986E-01  3.27109E-01 -1.31123E-01
    8988.132     -9.151   0.360  2.02677E-01  3.43216E-01 -1.40539E-01
    8988.248     -9.035   0.400  2.08966E-01  3.59893E-01 -1.50927E-01
    8988.376     -8.907   0.440  2.14723E-01  3.76734E-01 -1.62010E-01
    8988.516     -8.767   0.480  2.20039E-01  3.93424E-01 -1.73385E-01
    8988.669     -8.614   0.520  2.25174E-01  4.09748E-01 -1.84574E-01
    8988.833     -8.450   0.560  2.30477E-01  4.25635E-01 -1.95158E-01
    8989.010     -8.273   0.600  2.36161E-01  4.41038E-01 -2.04876E-01
    8989.199     -8.084   0.640  2.42389E-01  4.56026E-01 -2.13637E-01
    8989.400     -7.883   0.680  2.49362E-01  4.70659E-01 -2.21297E-01
    8989.613     -7.670   0.720  2.57514E-01  4.85022E-01 -2.27508E-01
    8989.839     -7.444   0.760  2.67153E-01  4.99185E-01 -2.32032E-01
    8990.077     -7.206   0.800  2.77968E-01  5.13227E-01 -2.35258E-01
    8990.327     -6.956   0.840  2.89145E-01  5.27196E-01 -2.38050E-01
    8990.589     -6.694   0.880  3.00573E-01  5.41151E-01 -2.40579E-01
    8990.863     -6.420   0.920  3.13429E-01  5.55121E-01 -2.41691E-01
    8991.150     -6.133   0.960  3.29449E-01  5.69101E-01 -2.39653E-01
    8991.448     -5.835   1.000  3.49914E-01  5.83164E-01 -2.33250E-01
    8991.759     -5.524   1.040  3.75101E-01  5.97270E-01 -2.22169E-01
    8992.082     -5.201   1.080  4.05432E-01  6.11434E-01 -2.06002E-01
    8992.418     -4.865   1.120  4.41370E-01  6.25666E-01 -1.84297E-01
    8992.765     -4.518   1.160  4.80895E-01  6.39931E-01 -1.59036E-01
    8993.125     -4.158   1.200  5.21600E-01  6.54212E-01 -1.32612E-01
    8993.497     -3.786   1.240  5.66315E-01  6.68507E-01 -1.02192E-01
    8993.881     -3.402   1.280  6.22686E-01  6.82791E-01 -6.01046E-02
    8994.277     -3.006   1.320  6.93599E-01  6.97016E-01 -3.41727E-03
    8994.685     -2.598   1.360  7.67279E-01  7.11175E-01  5.61045E-02
    8995.106     -2.177   1.400  8.25307E-01  7.25260E-01  1.00047E-01
    8995.539     -1.744   1.440  8.59392E-01  7.39200E-01  1.20193E-01
    8995.984     -1.299   1.480  8.69783E-01  7.53002E-01  1.16781E-01
    8996.441     -0.842   1.520  8.63569E-01  7.66617E-01  9.69516E-02
    8996.910     -0.373   1.560  8.48752E-01  7.80032E-01  6.87204E-02
    8997.392      0.109   1.600  8.30888E-01  7.93214E-01  3.76746E-02
    8997.886      0.603   1.640  8.22730E-01  8.06132E-01  1.65983E-02
    8998.392      1.109   1.680  8.30575E-01  8.18733E-01  1.18411E-02
    8998.910      1.627   1.720  8.47851E-01  8.31050E-01  1.68013E-02
    8999.440      2.157   1.760  8.63834E-01  8.43010E-01  2.08237E-02
    8999.983      2.700   1.800  8.73642E-01  8.54623E-01  1.90192E-02
    9000.537      3.254   1.840  8.80958E-01  8.65861E-01  1.50963E-02
    9001.104      3.821   1.880  9.01270E-01  8.76696E-01  2.45733E-02
    9001.684      4.400   1.920  9.45144E-01  8.87121E-01  5.80228E-02
    9002.275      4.992   1.960  1.00332E+00  8.97129E-01  1.06195E-01
    9002.878      5.595   2.000  1.05319E+00  9.06675E-01  1.46517E-01
    9003.494      6.211   2.040  1.07650E+00  9.15796E-01  1.60700E-01
    9004.122      6.839   2.080  1.06636E+00  9.24469E-01  1.41891E-01
    9004.762      7.479   2.120  1.03225E+00  9.32671E-01  9.95779E-02
    9005.414      8.131   2.160  9.94361E-01  9.40422E-01  5.39385E-02
    9006.079      8.796   2.200  9.69410E-01  9.47722E-01  2.16881E-02
    9006.755      9.472   2.240  9.70158E-01  9.54551E-01  1.56075E-02
    9007.444     10.161   2.280  9.99368E-01  9.60930E-01  3.84375E-02
    9008.145     10.862   2.320  1.04428E+00  9.66844E-01  7.74335E-02
    9008.858     11.575   2.360  1.07938E+00  9.72335E-01  1.07050E-01
    9009.584     12.301   2.400  1.08603E+00  9.77387E-01  1.08640E-01
    9010.322     13.038   2.440  1.06421E+00  9.82004E-01  8.22052E-02
    9011.071     13.788   2.480  1.03151E+00  9.86192E-01  4.53216E-02
    9011.833     14.550   2.520  1.01407E+00  9.89999E-01  2.40730E-02
    9012.607     15.324   2.560  1.02543E+00  9.93409E-01  3.20256E-02
    9013.394     16.111   2.600  1.06000E+00  9.96429E-01  6.35738E-02
    9014.192     16.909   2.640  1.09019E+00  9.99089E-01  9.10966E-02
    9015.003     17.720   2.680  1.09188E+00  1.00141E+00  9.04626E-02
    9015.826     18.543   2.720  1.06664E+00  1.00339E+00  6.32479E-02
    9016.661     19.378   2.760  1.03315E+00  1.00507E+00  2.80829E-02
    9017.509     20.226   2.800  1.01058E+00  1.00644E+00  4.14269E-03
    9018.368     21.085   2.840  9.98007E-01  1.00753E+00 -9.51840E-03
    9019.240     21.957   2.880  9.91890E-01  1.00834E+00 -1.64476E-02
    9020.124     22.841   2.920  9.89247E-01  1.00890E+00 -1.96556E-02
    9021.020     23.737   2.960  9.88458E-01  1.00923E+00 -2.07698E-02
    9021.928     24.645   3.000  9.88494E-01  1.00932E+00 -2.08283E-02
    9022.849     25.566   3.040  9.88799E-01  1.00924E+00 -2.04370E-02
    9023.781     26.498   3.080  9.89063E-01  1.00894E+00 -1.98726E-02
    9024.726     27.443   3.120  9.89259E-01  1.00849E+00 -1.92300E-02
    9025.683     28.400   3.160  9.89458E-01  1.00788E+00 -1.84260E-02
    9026.653     29.370   3.200  9.89947E-01  1.00713E+00 -1.71802E-02
    9027.634     30.351   3.240  9.91123E-01  1.00624E+00 -1.51210E-02
    9028.628     31.345   3.280  9.93188E-01  1.00524E+00 -1.20544E-02
    9029.634     32.351   3.320  9.96133E-01  1.00413E+00 -7.99616E-03
    9030.652     33.369   3.360  9.99640E-01  1.00295E+00 -3.31039E-03
    9031.682     34.399   3.400  1.00286E+00  1.00167E+00  1.18864E-03
    9032.724     35.441   3.440  1.00478E+00  1.00034E+00  4.43873E-03
    9033.779     36.496   3.480  1.00443E+00  9.98966E-01  5.46042E-03
    9034.846     37.563   3.520  1.00115E+00  9.97525E-01  3.62147E-03
    9035.925     38.642   3.560  9.94875E-01  9.96068E-01 -1.19323E-03
    9037.016     39.733   3.600  9.86026E-01  9.94577E-01 -8.55128E-03
    9038.119     40.836   3.640  9.75475E-01  9.93079E-01 -1.76035E-02
    9039.235     41.952   3.680  9.64252E-01  9.91577E-01 -2.73248E-02
    9040.362     43.079   3.720  9.53290E-01  9.90074E-01 -3.67843E-02
    9041.502     44.219   3.760  9.43350E-01  9.88573E-01 -4.52223E-02
    9042.655     45.372   3.800  9.35061E-01  9.87078E-01 -5.20167E-02
    9043.819     46.536   3.840  9.28895E-01  9.85612E-01 -5.67171E-02
    9044.995     47.712   3.880  9.25249E-01  9.84180E-01 -5.89307E-02
    9046.184     48.901   3.920  9.24374E-01  9.82763E-01 -5.83894E-02
    9047.385     50.102   3.960  9.26323E-01  9.81405E-01 -5.50826E-02
    9048.598     51.315   4.000  9.30685E-01  9.80087E-01 -4.94022E-02
    9049.823     52.540   4.040  9.36662E-01  9.78790E-01 -4.21283E-02
    9051.061     53.778   4.080  9.43299E-01  9.77578E-01 -3.42786E-02
    9052.311     55.028   4.120  9.49594E-01  9.76390E-01 -2.67962E-02
    9053.572     56.289   4.160  9.55061E-01  9.75268E-01 -2.02075E-02
    9054.846     57.563   4.200  9.59635E-01  9.74195E-01 -1.45607E-02
    9056.133     58.850   4.240  9.63555E-01  9.73192E-01 -9.63690E-03
    9057.431     60.148   4.280  9.67023E-01  9.72260E-01 -5.23685E-03
    9058.742     61.459   4.320  9.70079E-01  9.71380E-01 -1.30103E-03
    9060.065     62.782   4.360  9.72733E-01  9.70572E-01  2.16083E-03
    9061.400     64.117   4.400  9.75045E-01  9.69835E-01  5.20949E-03
    9062.747     65.464   4.440  9.77154E-01  9.69149E-01  8.00545E-03
    9064.106     66.823   4.480  9.79215E-01  9.68533E-01  1.06823E-02
    9065.478     68.195   4.520  9.81210E-01  9.67969E-01  1.32407E-02
    9066.862     69.579   4.560  9.83099E-01  9.67476E-01  1.56224E-02
    9068.258     70.975   4.600  9.84883E-01  9.67058E-01  1.78244E-02
    9069.666     72.383   4.640  9.86716E-01  9.66712E-01  2.00039E-02
    9071.086     73.803   4.680  9.88849E-01  9.66416E-01  2.24323E-02
    9072.519     75.236   4.720  9.91479E-01  9.66190E-01  2.52890E-02
    9073.963     76.680   4.760  9.94497E-01  9.66010E-01  2.84868E-02
    9075.420     78.137   4.800  9.97606E-01  9.65878E-01  3.17272E-02
    9076.890     79.607   4.840  1.00046E+00  9.65836E-01  3.46258E-02
    9078.371     81.088   4.880  1.00279E+00  9.65820E-01  3.69681E-02
    9079.864     82.581   4.920  1.00478E+00  9.65869E-01  3.89160E-02
    9081.370     84.087   4.960  1.00690E+00  9.65960E-01  4.09396E-02
    9082.888     85.605   5.000  1.00957E+00  9.66092E-01  4.34819E-02
    9084.418     87.135   5.040  1.01281E+00  9.66265E-01  4.65483E-02
    9085.960     88.677   5.080  1.01598E+00  9.66478E-01  4.95040E-02
    9087.515     90.232   5.120  1.01807E+00  9.66751E-01  5.13209E-02
    9089.081     91.798   5.160  1.01801E+00  9.67039E-01  5.09728E-02
    9090.660     93.377   5.200  1.01506E+00  9.67339E-01  4.77220E-02
    9092.251     94.968   5.240  1.00892E+00  9.67695E-01  4.12217E-02
    9093.855     96.572   5.280  9.99617E-01  9.68063E-01  3.15543E-02
    9095.470     98.187   5.320  9.87775E-01  9.68462E-01  1.93130E-02
    9097.098     99.815   5.360  9.74410E-01  9.68868E-01  5.54170E-03
    9098.738    101.454   5.400  9.60897E-01  9.69300E-01 -8.40362E-03
    9100.390    103.106   5.440  9.48669E-01  9.69715E-01 -2.10451E-02
    9102.054    104.771   5.480  9.39184E-01  9.70153E-01 -3.09689E-02
    9103.730    106.447   5.520  9.33376E-01  9.70593E-01 -3.72171E-02
    9105.419    108.136   5.560  9.31352E-01  9.71034E-01 -3.96819E-02
    9107.119    109.836   5.600  9.32331E-01  9.71472E-01 -3.91409E-02
    9108.832    111.549   5.640  9.35069E-01  9.71906E-01 -3.68371E-02
    9110.558    113.275   5.680  9.38447E-01  9.72313E-01 -3.38656E-02
    9112.295    115.012   5.720  9.41964E-01  9.72712E-01 -3.07479E-02
    9114.045    116.761   5.760  9.45687E-01  9.73104E-01 -2.74174E-02
    9115.806    118.523   5.800  9.49857E-01  9.73465E-01 -2.36084E-02
    9117.580    120.297   5.840  9.54523E-01  9.73814E-01 -1.92912E-02
    9119.366    122.083   5.880  9.59263E-01  9.74105E-01 -1.48422E-02
    9121.165    123.882   5.920  9.63510E-01  9.74403E-01 -1.08932E-02
    9122.975    125.692   5.960  9.66545E-01  9.74635E-01 -8.09013E-03
    9124.798    127.515   6.000  9.67886E-01  9.74814E-01 -6.92763E-03
