# # comment:                                                     FEFF 9.9.1  
# # Source:
# # Structure
# # Reduced
# # space
# # abc:
# # angles:
# # sites:
# # POT  SCF 100  7.0000   0, screened core-hole, AFOLP (folp(0)= 1.150)
# # Abs   Z=29 Rmt= 1.243 Rnm= 1.332 K  shell
# # Pot 1 Z=29 Rmt= 1.212 Rnm= 1.328
# # Pot 2 Z= 8 Rmt= 0.976 Rnm= 1.109
# # Pot 3 Z= 9 Rmt= 1.055 Rnm= 1.135
# # Gam_ch=1.729E+00 H-L exch Vi= 0.000E+00 Vr= 0.000E+00
# # Mu=-6.823E+00eV kf=2.021E+00 Vint=-1.276E+01eV Rs_int= 1.794
# FMS rfms= 9.0000
# # PATH  Rmax=-1.000,  Keep_limit= 0.00, Heap_limit 0.00  Pwcrit= 2.50%
#  S02=0.950  Temp=   0.00  Debye_temp=   0.00  Global_sig2= 0.00000
#  Energy zero shift, vr, vi    0.00000E+00   0.00000E+00
#  Curved wave amplitude ratio filter   4.000%
#     file         sig2 tot  cw amp ratio   deg  nlegs   reff  inp sig2
#     0/   0 paths used
#  xsedge+ 50, used to normalize mu           2.4185E-04
#  -----------------------------------------------------------------------
#  omega    e    k    mu    mu0     chi     @#
    8983.339    -10.633  -1.000  3.24766E-02  5.63969E-02 -2.39203E-02
    8983.637    -10.334  -0.960  3.38070E-02  6.04629E-02 -2.66558E-02
    8983.924    -10.048  -0.920  3.52081E-02  6.49704E-02 -2.97623E-02
    8984.198     -9.773  -0.880  3.66867E-02  6.99828E-02 -3.32961E-02
    8984.460     -9.511  -0.840  3.82511E-02  7.55734E-02 -3.73222E-02
    8984.710     -9.261  -0.800  3.99113E-02  8.18269E-02 -4.19157E-02
    8984.948     -9.024  -0.760  4.16787E-02  8.88402E-02 -4.71615E-02
    8985.173     -8.798  -0.720  4.35671E-02  9.67223E-02 -5.31552E-02
    8985.387     -8.585  -0.680  4.55918E-02  1.05593E-01 -6.00011E-02
    8985.588     -8.384  -0.640  4.77693E-02  1.15578E-01 -6.78083E-02
    8985.777     -8.195  -0.600  5.01159E-02  1.26799E-01 -7.66834E-02
    8985.954     -8.018  -0.560  5.26451E-02  1.39362E-01 -8.67171E-02
    8986.118     -7.853  -0.520  5.53631E-02  1.53327E-01 -9.79635E-02
    8986.271     -7.701  -0.480  5.82631E-02  1.68676E-01 -1.10412E-01
    8986.411     -7.561  -0.440  6.13186E-02  1.85276E-01 -1.23957E-01
    8986.539     -7.433  -0.400  6.44771E-02  2.02844E-01 -1.38367E-01
    8986.655     -7.317  -0.360  6.76593E-02  2.20937E-01 -1.53278E-01
    8986.758     -7.213  -0.320  7.07649E-02  2.38979E-01 -1.68214E-01
    8986.850     -7.122  -0.280  7.36865E-02  2.56326E-01 -1.82640E-01
    8986.929     -7.042  -0.240  7.63262E-02  2.72359E-01 -1.96032E-01
    8986.996     -6.975  -0.200  7.86102E-02  2.86550E-01 -2.07940E-01
    8987.051     -6.921  -0.160  8.04934E-02  2.98511E-01 -2.18017E-01
    8987.094     -6.878  -0.120  8.19565E-02  3.07983E-01 -2.26026E-01
    8987.124     -6.847  -0.080  8.29963E-02  3.14818E-01 -2.31822E-01
    8987.149     -6.823   0.000  8.38233E-02  3.20318E-01 -2.36494E-01
    8987.203     -6.768   0.120  8.57198E-02  3.32736E-01 -2.47016E-01
    8987.246     -6.725   0.160  8.70861E-02  3.42410E-01 -2.55324E-01
    8987.301     -6.671   0.200  8.87734E-02  3.54827E-01 -2.66054E-01
    8987.368     -6.604   0.240  9.06634E-02  3.69817E-01 -2.79154E-01
    8987.447     -6.524   0.280  9.26330E-02  3.87135E-01 -2.94502E-01
    8987.539     -6.433   0.320  9.45512E-02  4.06411E-01 -3.11859E-01
    8987.642     -6.329   0.360  9.62784E-02  4.27175E-01 -3.30897E-01
    8987.758     -6.213   0.400  9.77181E-02  4.48904E-01 -3.51185E-01
    8987.886     -6.085   0.440  9.89291E-02  4.71110E-01 -3.72181E-01
    8988.026     -5.945   0.480  1.00012E-01  4.93408E-01 -3.93395E-01
    8988.179     -5.793   0.520  1.01276E-01  5.15564E-01 -4.14289E-01
    8988.343     -5.628   0.560  1.02970E-01  5.37423E-01 -4.34453E-01
    8988.520     -5.451   0.600  1.05385E-01  5.58938E-01 -4.53553E-01
    8988.709     -5.262   0.640  1.08753E-01  5.80128E-01 -4.71376E-01
    8988.910     -5.061   0.680  1.13269E-01  6.01019E-01 -4.87750E-01
    8989.124     -4.848   0.720  1.19125E-01  6.21643E-01 -5.02518E-01
    8989.349     -4.622   0.760  1.26532E-01  6.42030E-01 -5.15498E-01
    8989.587     -4.385   0.800  1.35704E-01  6.62244E-01 -5.26540E-01
    8989.837     -4.135   0.840  1.46633E-01  6.82226E-01 -5.35593E-01
    8990.099     -3.873   0.880  1.59457E-01  7.02034E-01 -5.42577E-01
    8990.373     -3.598   0.920  1.74405E-01  7.21583E-01 -5.47177E-01
    8990.660     -3.312   0.960  1.92469E-01  7.40863E-01 -5.48394E-01
    8990.959     -3.013   1.000  2.15124E-01  7.59834E-01 -5.44710E-01
    8991.269     -2.702   1.040  2.43791E-01  7.78427E-01 -5.34636E-01
    8991.593     -2.379   1.080  2.78757E-01  7.96590E-01 -5.17833E-01
    8991.928     -2.044   1.120  3.18982E-01  8.14265E-01 -4.95283E-01
    8992.275     -1.696   1.160  3.63126E-01  8.31415E-01 -4.68289E-01
    8992.635     -1.337   1.200  4.10583E-01  8.47958E-01 -4.37375E-01
    8993.007     -0.965   1.240  4.59735E-01  8.63835E-01 -4.04100E-01
    8993.391     -0.581   1.280  5.05920E-01  8.79008E-01 -3.73089E-01
    8993.787     -0.185   1.320  5.46789E-01  8.93462E-01 -3.46673E-01
    8994.196      0.224   1.360  5.87720E-01  9.07122E-01 -3.19402E-01
    8994.616      0.645   1.400  6.37481E-01  9.19958E-01 -2.82477E-01
    8995.049      1.077   1.440  7.02413E-01  9.31986E-01 -2.29573E-01
    8995.494      1.522   1.480  7.84308E-01  9.43179E-01 -1.58871E-01
    8995.951      1.980   1.520  8.81107E-01  9.53517E-01 -7.24102E-02
    8996.421      2.449   1.560  9.85826E-01  9.63026E-01  2.28001E-02
    8996.902      2.931   1.600  1.09052E+00  9.71691E-01  1.18829E-01
    8997.396      3.424   1.640  1.19509E+00  9.79542E-01  2.15552E-01
    8997.902      3.930   1.680  1.30499E+00  9.86589E-01  3.18402E-01
    8998.420      4.448   1.720  1.41459E+00  9.92869E-01  4.21722E-01
    8998.950      4.979   1.760  1.49199E+00  9.98419E-01  4.93572E-01
    8999.493      5.521   1.800  1.51444E+00  1.00326E+00  5.11182E-01
    9000.048      6.076   1.840  1.50017E+00  1.00742E+00  4.92747E-01
    9000.615      6.643   1.880  1.47974E+00  1.01097E+00  4.68762E-01
    9001.194      7.222   1.920  1.46876E+00  1.01391E+00  4.54842E-01
    9001.785      7.813   1.960  1.45729E+00  1.01631E+00  4.40984E-01
    9002.389      8.417   2.000  1.43899E+00  1.01819E+00  4.20798E-01
    9003.004      9.033   2.040  1.43478E+00  1.01961E+00  4.15166E-01
    9003.632      9.660   2.080  1.44575E+00  1.02061E+00  4.25140E-01
    9004.272     10.301   2.120  1.43295E+00  1.02122E+00  4.11728E-01
    9004.924     10.953   2.160  1.38349E+00  1.02149E+00  3.62007E-01
    9005.589     11.617   2.200  1.32338E+00  1.02143E+00  3.01946E-01
    9006.266     12.294   2.240  1.26068E+00  1.02111E+00  2.39568E-01
    9006.954     12.983   2.280  1.18455E+00  1.02055E+00  1.64000E-01
    9007.655     13.684   2.320  1.09539E+00  1.01977E+00  7.56209E-02
    9008.369     14.397   2.360  1.01357E+00  1.01882E+00 -5.25207E-03
    9009.094     15.122   2.400  9.60215E-01  1.01771E+00 -5.74987E-02
    9009.832     15.860   2.440  9.41234E-01  1.01650E+00 -7.52687E-02
    9010.581     16.610   2.480  9.44964E-01  1.01518E+00 -7.02159E-02
    9011.343     17.372   2.520  9.55560E-01  1.01380E+00 -5.82380E-02
    9012.118     18.146   2.560  9.64165E-01  1.01237E+00 -4.82032E-02
    9012.904     18.932   2.600  9.67354E-01  1.01090E+00 -4.35465E-02
    9013.703     19.731   2.640  9.65187E-01  1.00940E+00 -4.42176E-02
    9014.513     20.542   2.680  9.59062E-01  1.00793E+00 -4.88682E-02
    9015.336     21.365   2.720  9.50314E-01  1.00649E+00 -5.61718E-02
    9016.172     22.200   2.760  9.40118E-01  1.00506E+00 -6.49402E-02
    9017.019     23.047   2.800  9.29074E-01  1.00369E+00 -7.46187E-02
    9017.878     23.907   2.840  9.17671E-01  1.00237E+00 -8.47037E-02
    9018.750     24.778   2.880  9.06499E-01  1.00111E+00 -9.46093E-02
    9019.634     25.662   2.920  8.96140E-01  9.99940E-01 -1.03800E-01
    9020.530     26.559   2.960  8.87304E-01  9.98832E-01 -1.11528E-01
    9021.438     27.467   3.000  8.80540E-01  9.97831E-01 -1.17291E-01
    9022.359     28.387   3.040  8.75592E-01  9.96915E-01 -1.21323E-01
    9023.292     29.320   3.080  8.72032E-01  9.96088E-01 -1.24056E-01
    9024.236     30.265   3.120  8.69622E-01  9.95373E-01 -1.25751E-01
    9025.194     31.222   3.160  8.68400E-01  9.94751E-01 -1.26351E-01
    9026.163     32.191   3.200  8.68608E-01  9.94244E-01 -1.25637E-01
    9027.144     33.173   3.240  8.70643E-01  9.93852E-01 -1.23209E-01
    9028.138     34.166   3.280  8.74530E-01  9.93555E-01 -1.19025E-01
    9029.144     35.172   3.320  8.80089E-01  9.93374E-01 -1.13285E-01
    9030.162     36.190   3.360  8.86935E-01  9.93309E-01 -1.06374E-01
    9031.192     37.220   3.400  8.94911E-01  9.93337E-01 -9.84256E-02
    9032.234     38.263   3.440  9.03970E-01  9.93478E-01 -8.95088E-02
    9033.289     39.317   3.480  9.14115E-01  9.93711E-01 -7.95969E-02
    9034.356     40.384   3.520  9.25456E-01  9.94055E-01 -6.85993E-02
    9035.435     41.463   3.560  9.37976E-01  9.94489E-01 -5.65134E-02
    9036.526     42.554   3.600  9.51770E-01  9.95031E-01 -4.32602E-02
    9037.629     43.658   3.640  9.66969E-01  9.95636E-01 -2.86667E-02
    9038.745     44.773   3.680  9.83748E-01  9.96344E-01 -1.25965E-02
    9039.873     45.901   3.720  1.00202E+00  9.97112E-01  4.90852E-03
    9041.013     47.041   3.760  1.02163E+00  9.97980E-01  2.36464E-02
    9042.165     48.193   3.800  1.04207E+00  9.98904E-01  4.31623E-02
    9043.329     49.357   3.840  1.06258E+00  9.99899E-01  6.26804E-02
    9044.506     50.534   3.880  1.08222E+00  1.00094E+00  8.12722E-02
    9045.694     51.723   3.920  1.09973E+00  1.00203E+00  9.77019E-02
    9046.895     52.924   3.960  1.11361E+00  1.00319E+00  1.10426E-01
    9048.108     54.137   4.000  1.12240E+00  1.00438E+00  1.18017E-01
    9049.334     55.362   4.040  1.12555E+00  1.00559E+00  1.19961E-01
    9050.571     56.599   4.080  1.12366E+00  1.00684E+00  1.16821E-01
    9051.821     57.849   4.120  1.11796E+00  1.00811E+00  1.09849E-01
    9053.083     59.111   4.160  1.10978E+00  1.00939E+00  1.00383E-01
    9054.357     60.385   4.200  1.10009E+00  1.01067E+00  8.94200E-02
    9055.643     61.671   4.240  1.08949E+00  1.01195E+00  7.75384E-02
    9056.941     62.970   4.280  1.07829E+00  1.01323E+00  6.50587E-02
    9058.252     64.280   4.320  1.06673E+00  1.01450E+00  5.22216E-02
    9059.575     65.603   4.360  1.05494E+00  1.01574E+00  3.91925E-02
    9060.910     66.938   4.400  1.04316E+00  1.01697E+00  2.61846E-02
    9062.257     68.285   4.440  1.03183E+00  1.01816E+00  1.36657E-02
    9063.616     69.645   4.480  1.02170E+00  1.01931E+00  2.38543E-03
    9064.988     71.016   4.520  1.01358E+00  1.02042E+00 -6.84444E-03
    9066.372     72.400   4.560  1.00801E+00  1.02148E+00 -1.34739E-02
    9067.768     73.796   4.600  1.00507E+00  1.02250E+00 -1.74338E-02
    9069.176     75.204   4.640  1.00435E+00  1.02344E+00 -1.90942E-02
    9070.596     76.625   4.680  1.00518E+00  1.02434E+00 -1.91551E-02
    9072.029     78.057   4.720  1.00670E+00  1.02516E+00 -1.84512E-02
    9073.474     79.502   4.760  1.00820E+00  1.02592E+00 -1.77224E-02
    9074.931     80.959   4.800  1.00921E+00  1.02661E+00 -1.74011E-02
    9076.400     82.428   4.840  1.00964E+00  1.02724E+00 -1.75968E-02
    9077.881     83.909   4.880  1.00953E+00  1.02777E+00 -1.82350E-02
    9079.375     85.403   4.920  1.00900E+00  1.02823E+00 -1.92314E-02
    9080.880     86.909   4.960  1.00813E+00  1.02860E+00 -2.04678E-02
    9082.398     88.427   5.000  1.00707E+00  1.02890E+00 -2.18276E-02
    9083.928     89.957   5.040  1.00591E+00  1.02913E+00 -2.32175E-02
    9085.471     91.499   5.080  1.00476E+00  1.02927E+00 -2.45089E-02
    9087.025     93.053   5.120  1.00392E+00  1.02933E+00 -2.54023E-02
    9088.592     94.620   5.160  1.00379E+00  1.02930E+00 -2.55125E-02
    9090.171     96.199   5.200  1.00459E+00  1.02922E+00 -2.46343E-02
    9091.762     97.790   5.240  1.00615E+00  1.02904E+00 -2.28871E-02
    9093.365     99.393   5.280  1.00819E+00  1.02880E+00 -2.06087E-02
    9094.980    101.009   5.320  1.01030E+00  1.02848E+00 -1.81856E-02
    9096.608    102.636   5.360  1.01213E+00  1.02809E+00 -1.59595E-02
    9098.248    104.276   5.400  1.01336E+00  1.02764E+00 -1.42808E-02
    9099.900    105.928   5.440  1.01355E+00  1.02712E+00 -1.35710E-02
    9101.564    107.592   5.480  1.01233E+00  1.02655E+00 -1.42174E-02
    9103.240    109.269   5.520  1.00966E+00  1.02590E+00 -1.62435E-02
    9104.929    110.957   5.560  1.00615E+00  1.02524E+00 -1.90930E-02
    9106.630    112.658   5.600  1.00291E+00  1.02451E+00 -2.16012E-02
    9108.343    114.371   5.640  1.00133E+00  1.02374E+00 -2.24030E-02
    9110.068    116.096   5.680  1.00234E+00  1.02293E+00 -2.05907E-02
    9111.805    117.834   5.720  1.00587E+00  1.02210E+00 -1.62291E-02
    9113.555    119.583   5.760  1.01102E+00  1.02125E+00 -1.02265E-02
    9115.316    121.345   5.800  1.01673E+00  1.02036E+00 -3.63104E-03
    9117.090    123.119   5.840  1.02249E+00  1.01944E+00  3.05339E-03
    9118.876    124.905   5.880  1.02839E+00  1.01855E+00  9.84749E-03
    9120.675    126.703   5.920  1.03431E+00  1.01764E+00  1.66745E-02
    9122.485    128.514   5.960  1.03955E+00  1.01675E+00  2.28014E-02
    9124.308    130.336   6.000  1.04283E+00  1.01585E+00  2.69744E-02
