# # comment:                                                     FEFF 9.9.1  
# # Source:
# # Structure
# # Reduced
# # space
# # abc:
# # angles:
# # sites:
# # POT  SCF 100  7.0000   0, screened core-hole, AFOLP (folp(0)= 1.150)
# # Abs   Z=29 Rmt= 1.370 Rnm= 1.431 K  shell
# # Pot 1 Z= 3 Rmt= 1.306 Rnm= 1.367
# # Pot 2 Z=29 Rmt= 1.371 Rnm= 1.431
# # Pot 3 Z=15 Rmt= 0.939 Rnm= 1.155
# # Pot 4 Z= 8 Rmt= 0.903 Rnm= 1.040
# # Gam_ch=1.729E+00 H-L exch Vi= 0.000E+00 Vr= 0.000E+00
# # Mu=-5.811E+00eV kf=2.496E+00 Vint=-1.821E+01eV Rs_int= 1.453
# FMS rfms= 9.0000
# # PATH  Rmax=-1.000,  Keep_limit= 0.00, Heap_limit 0.00  Pwcrit= 2.50%
#  S02=0.950  Temp=   0.00  Debye_temp=   0.00  Global_sig2= 0.00000
#  Energy zero shift, vr, vi    0.00000E+00   0.00000E+00
#  Curved wave amplitude ratio filter   4.000%
#     file         sig2 tot  cw amp ratio   deg  nlegs   reff  inp sig2
#     0/   0 paths used
#  xsedge+ 50, used to normalize mu           2.4316E-04
#  -----------------------------------------------------------------------
#  omega    e    k    mu    mu0     chi     @#
    8983.426     -9.621  -1.000  5.46348E-02  5.67676E-02 -2.13279E-03
    8983.724     -9.323  -0.960  5.79917E-02  6.09087E-02 -2.91705E-03
    8984.011     -9.036  -0.920  6.16299E-02  6.55126E-02 -3.88270E-03
    8984.285     -8.762  -0.880  6.55802E-02  7.06477E-02 -5.06747E-03
    8984.547     -8.500  -0.840  6.98776E-02  7.63939E-02 -6.51635E-03
    8984.797     -8.250  -0.800  7.45611E-02  8.28438E-02 -8.28267E-03
    8985.035     -8.012  -0.760  7.96748E-02  9.01037E-02 -1.04290E-02
    8985.261     -7.787  -0.720  8.52668E-02  9.82940E-02 -1.30273E-02
    8985.474     -7.573  -0.680  9.13885E-02  1.07547E-01 -1.61588E-02
    8985.675     -7.372  -0.640  9.80925E-02  1.18004E-01 -1.99110E-02
    8985.864     -7.183  -0.600  1.05428E-01  1.29801E-01 -2.43729E-02
    8986.041     -7.006  -0.560  1.13432E-01  1.43056E-01 -2.96243E-02
    8986.205     -6.842  -0.520  1.22120E-01  1.57841E-01 -3.57208E-02
    8986.358     -6.689  -0.480  1.31468E-01  1.74139E-01 -4.26712E-02
    8986.498     -6.549  -0.440  1.41396E-01  1.91808E-01 -5.04124E-02
    8986.626     -6.421  -0.400  1.51750E-01  2.10539E-01 -5.87882E-02
    8986.742     -6.305  -0.360  1.62300E-01  2.29844E-01 -6.75432E-02
    8986.846     -6.202  -0.320  1.72750E-01  2.49092E-01 -7.63425E-02
    8986.937     -6.110  -0.280  1.82766E-01  2.67583E-01 -8.48171E-02
    8987.016     -6.031  -0.240  1.92024E-01  2.84644E-01 -9.26207E-02
    8987.083     -5.964  -0.200  2.00238E-01  2.99714E-01 -9.94757E-02
    8987.138     -5.909  -0.160  2.07188E-01  3.12383E-01 -1.05195E-01
    8987.181     -5.866  -0.120  2.12714E-01  3.22391E-01 -1.09677E-01
    8987.211     -5.836  -0.080  2.16714E-01  3.29598E-01 -1.12883E-01
    8987.236     -5.811   0.000  2.19934E-01  3.35385E-01 -1.15451E-01
    8987.291     -5.757   0.120  2.27321E-01  3.48426E-01 -1.21104E-01
    8987.333     -5.714   0.160  2.33096E-01  3.58555E-01 -1.25459E-01
    8987.388     -5.659   0.200  2.40554E-01  3.71472E-01 -1.30919E-01
    8987.455     -5.592   0.240  2.49675E-01  3.86987E-01 -1.37312E-01
    8987.534     -5.513   0.280  2.60429E-01  4.04794E-01 -1.44364E-01
    8987.626     -5.421   0.320  2.72695E-01  4.24375E-01 -1.51680E-01
    8987.729     -5.318   0.360  2.86440E-01  4.45164E-01 -1.58725E-01
    8987.845     -5.202   0.400  3.01612E-01  4.66519E-01 -1.64907E-01
    8987.973     -5.074   0.440  3.18314E-01  4.87893E-01 -1.69579E-01
    8988.113     -4.934   0.480  3.36697E-01  5.08851E-01 -1.72155E-01
    8988.266     -4.781   0.520  3.56935E-01  5.29097E-01 -1.72162E-01
    8988.430     -4.617   0.560  3.79115E-01  5.48485E-01 -1.69370E-01
    8988.607     -4.440   0.600  4.03167E-01  5.67029E-01 -1.63863E-01
    8988.796     -4.251   0.640  4.28682E-01  5.84800E-01 -1.56118E-01
    8988.997     -4.050   0.680  4.54936E-01  6.01864E-01 -1.46928E-01
    8989.211     -3.836   0.720  4.81352E-01  6.18369E-01 -1.37016E-01
    8989.436     -3.611   0.760  5.07713E-01  6.34418E-01 -1.26706E-01
    8989.674     -3.373   0.800  5.34708E-01  6.50128E-01 -1.15420E-01
    8989.924     -3.123   0.840  5.64377E-01  6.65577E-01 -1.01200E-01
    8990.186     -2.861   0.880  5.99693E-01  6.80853E-01 -8.11597E-02
    8990.460     -2.587   0.920  6.43698E-01  6.95986E-01 -5.22881E-02
    8990.747     -2.300   0.960  6.99660E-01  7.11055E-01 -1.13953E-02
    8991.046     -2.001   1.000  7.70753E-01  7.26064E-01  4.46889E-02
    8991.357     -1.691   1.040  8.59935E-01  7.41071E-01  1.18864E-01
    8991.680     -1.368   1.080  9.69554E-01  7.56040E-01  2.13514E-01
    8992.015     -1.032   1.120  1.09528E+00  7.70989E-01  3.24296E-01
    8992.362     -0.685   1.160  1.21714E+00  7.85931E-01  4.31204E-01
    8992.722     -0.325   1.200  1.31258E+00  8.00831E-01  5.11745E-01
    8993.094      0.047   1.240  1.38383E+00  8.15670E-01  5.68162E-01
    8993.478      0.431   1.280  1.44792E+00  8.30424E-01  6.17494E-01
    8993.874      0.827   1.320  1.51022E+00  8.45065E-01  6.65158E-01
    8994.283      1.235   1.360  1.56257E+00  8.59545E-01  7.03023E-01
    8994.703      1.656   1.400  1.57716E+00  8.73872E-01  7.03288E-01
    8995.136      2.089   1.440  1.52837E+00  8.87972E-01  6.40399E-01
    8995.581      2.534   1.480  1.44668E+00  9.01828E-01  5.44854E-01
    8996.038      2.991   1.520  1.38760E+00  9.15383E-01  4.72214E-01
    8996.508      3.461   1.560  1.34897E+00  9.28600E-01  4.20368E-01
    8996.989      3.942   1.600  1.28539E+00  9.41440E-01  3.43951E-01
    8997.483      4.436   1.640  1.19607E+00  9.53845E-01  2.42221E-01
    8997.989      4.942   1.680  1.11305E+00  9.65821E-01  1.47231E-01
    8998.507      5.460   1.720  1.05154E+00  9.77308E-01  7.42368E-02
    8999.037      5.990   1.760  1.00654E+00  9.88248E-01  1.82871E-02
    8999.580      6.533   1.800  9.61344E-01  9.98628E-01 -3.72849E-02
    9000.135      7.088   1.840  9.11290E-01  1.00844E+00 -9.71480E-02
    9000.702      7.655   1.880  8.65086E-01  1.01764E+00 -1.52556E-01
    9001.281      8.234   1.920  8.33456E-01  1.02621E+00 -1.92755E-01
    9001.872      8.825   1.960  8.26652E-01  1.03412E+00 -2.07466E-01
    9002.476      9.428   2.000  8.46952E-01  1.04138E+00 -1.94424E-01
    9003.091     10.044   2.040  8.85190E-01  1.04794E+00 -1.62752E-01
    9003.719     10.672   2.080  9.31044E-01  1.05385E+00 -1.22810E-01
    9004.359     11.312   2.120  9.79634E-01  1.05907E+00 -7.94383E-02
    9005.012     11.964   2.160  1.02809E+00  1.06364E+00 -3.55517E-02
    9005.676     12.629   2.200  1.07147E+00  1.06755E+00  3.92413E-03
    9006.353     13.306   2.240  1.10168E+00  1.07079E+00  3.08903E-02
    9007.041     13.994   2.280  1.11447E+00  1.07340E+00  4.10648E-02
    9007.743     14.695   2.320  1.11304E+00  1.07540E+00  3.76389E-02
    9008.456     15.409   2.360  1.10421E+00  1.07680E+00  2.74062E-02
    9009.181     16.134   2.400  1.09343E+00  1.07766E+00  1.57761E-02
    9009.919     16.872   2.440  1.08106E+00  1.07797E+00  3.08730E-03
    9010.669     17.621   2.480  1.06379E+00  1.07776E+00 -1.39748E-02
    9011.431     18.383   2.520  1.04005E+00  1.07711E+00 -3.70594E-02
    9012.205     19.158   2.560  1.00918E+00  1.07598E+00 -6.67953E-02
    9012.991     19.944   2.600  9.70671E-01  1.07446E+00 -1.03789E-01
    9013.790     20.743   2.640  9.30549E-01  1.07257E+00 -1.42019E-01
    9014.600     21.553   2.680  9.00988E-01  1.07034E+00 -1.69353E-01
    9015.423     22.376   2.720  8.91085E-01  1.06782E+00 -1.76731E-01
    9016.259     23.211   2.760  9.00207E-01  1.06501E+00 -1.64804E-01
    9017.106     24.059   2.800  9.17239E-01  1.06199E+00 -1.44747E-01
    9017.965     24.918   2.840  9.35014E-01  1.05876E+00 -1.23743E-01
    9018.837     25.790   2.880  9.54156E-01  1.05536E+00 -1.01202E-01
    9019.721     26.674   2.920  9.69774E-01  1.05183E+00 -8.20575E-02
    9020.617     27.570   2.960  9.82422E-01  1.04821E+00 -6.57887E-02
    9021.526     28.478   3.000  9.96975E-01  1.04451E+00 -4.75305E-02
    9022.446     29.399   3.040  1.01358E+00  1.04074E+00 -2.71557E-02
    9023.379     30.332   3.080  1.02990E+00  1.03698E+00 -7.08411E-03
    9024.324     31.276   3.120  1.04453E+00  1.03320E+00  1.13275E-02
    9025.281     32.234   3.160  1.05747E+00  1.02945E+00  2.80231E-02
    9026.250     33.203   3.200  1.06910E+00  1.02576E+00  4.33410E-02
    9027.231     34.184   3.240  1.07944E+00  1.02213E+00  5.73134E-02
    9028.225     35.178   3.280  1.08784E+00  1.01858E+00  6.92524E-02
    9029.231     36.184   3.320  1.09328E+00  1.01514E+00  7.81406E-02
    9030.249     37.202   3.360  1.09516E+00  1.01181E+00  8.33512E-02
    9031.279     38.232   3.400  1.09366E+00  1.00862E+00  8.50414E-02
    9032.321     39.274   3.440  1.08962E+00  1.00557E+00  8.40493E-02
    9033.376     40.329   3.480  1.08407E+00  1.00267E+00  8.13931E-02
    9034.443     41.396   3.520  1.07743E+00  9.99965E-01  7.74638E-02
    9035.522     42.475   3.560  1.06933E+00  9.97399E-01  7.19268E-02
    9036.613     43.566   3.600  1.05946E+00  9.95026E-01  6.44329E-02
    9037.716     44.669   3.640  1.04767E+00  9.92849E-01  5.48211E-02
    9038.832     45.785   3.680  1.03408E+00  9.90871E-01  4.32053E-02
    9039.960     46.913   3.720  1.01903E+00  9.89072E-01  2.99549E-02
    9041.100     48.053   3.760  1.00319E+00  9.87475E-01  1.57172E-02
    9042.252     49.205   3.800  9.87484E-01  9.86080E-01  1.40421E-03
    9043.416     50.369   3.840  9.73122E-01  9.84888E-01 -1.17662E-02
    9044.593     51.546   3.880  9.61427E-01  9.83901E-01 -2.24738E-02
    9045.781     52.734   3.920  9.53422E-01  9.83117E-01 -2.96949E-02
    9046.982     53.935   3.960  9.49566E-01  9.82533E-01 -3.29676E-02
    9048.195     55.148   4.000  9.49708E-01  9.82127E-01 -3.24190E-02
    9049.421     56.374   4.040  9.53203E-01  9.81920E-01 -2.87172E-02
    9050.658     57.611   4.080  9.59113E-01  9.81911E-01 -2.27986E-02
    9051.908     58.861   4.120  9.66377E-01  9.82074E-01 -1.56973E-02
    9053.170     60.123   4.160  9.74037E-01  9.82428E-01 -8.39087E-03
    9054.444     61.397   4.200  9.81273E-01  9.82927E-01 -1.65364E-03
    9055.730     62.683   4.240  9.87641E-01  9.83610E-01  4.03069E-03
    9057.028     63.981   4.280  9.92842E-01  9.84431E-01  8.41031E-03
    9058.339     65.292   4.320  9.96803E-01  9.85409E-01  1.13938E-02
    9059.662     66.615   4.360  9.99490E-01  9.86538E-01  1.29526E-02
    9060.997     67.950   4.400  1.00087E+00  9.87768E-01  1.31067E-02
    9062.344     69.297   4.440  1.00113E+00  9.89118E-01  1.20121E-02
    9063.704     70.656   4.480  1.00058E+00  9.90583E-01  9.99634E-03
    9065.075     72.028   4.520  9.99576E-01  9.92135E-01  7.44092E-03
    9066.459     73.412   4.560  9.98328E-01  9.93769E-01  4.55843E-03
    9067.855     74.808   4.600  9.96782E-01  9.95480E-01  1.30257E-03
    9069.263     76.216   4.640  9.94800E-01  9.97237E-01 -2.43697E-03
    9070.683     77.636   4.680  9.92468E-01  9.99040E-01 -6.57194E-03
    9072.116     79.069   4.720  9.90160E-01  1.00090E+00 -1.07416E-02
    9073.561     80.514   4.760  9.88304E-01  1.00275E+00 -1.44458E-02
    9075.018     81.971   4.800  9.87339E-01  1.00462E+00 -1.72835E-02
    9076.487     83.440   4.840  9.87390E-01  1.00649E+00 -1.91019E-02
    9077.968     84.921   4.880  9.88398E-01  1.00833E+00 -1.99317E-02
    9079.462     86.415   4.920  9.90259E-01  1.01013E+00 -1.98726E-02
    9080.967     87.920   4.960  9.92883E-01  1.01191E+00 -1.90303E-02
    9082.485     89.438   5.000  9.96085E-01  1.01362E+00 -1.75394E-02
    9084.015     90.968   5.040  9.99650E-01  1.01526E+00 -1.56094E-02
    9085.558     92.511   5.080  1.00336E+00  1.01684E+00 -1.34798E-02
    9087.112     94.065   5.120  1.00700E+00  1.01831E+00 -1.13153E-02
    9088.679     95.632   5.160  1.01057E+00  1.01972E+00 -9.14305E-03
    9090.258     97.211   5.200  1.01411E+00  1.02098E+00 -6.87475E-03
    9091.849     98.802   5.240  1.01776E+00  1.02215E+00 -4.38963E-03
    9093.452    100.405   5.280  1.02157E+00  1.02320E+00 -1.63378E-03
    9095.067    102.020   5.320  1.02541E+00  1.02413E+00  1.28624E-03
    9096.695    103.648   5.360  1.02901E+00  1.02492E+00  4.08313E-03
    9098.335    105.288   5.400  1.03193E+00  1.02557E+00  6.36027E-03
    9099.987    106.940   5.440  1.03384E+00  1.02608E+00  7.76292E-03
    9101.651    108.604   5.480  1.03458E+00  1.02647E+00  8.11097E-03
    9103.327    110.280   5.520  1.03417E+00  1.02670E+00  7.47623E-03
    9105.016    111.969   5.560  1.03294E+00  1.02680E+00  6.13653E-03
    9106.717    113.670   5.600  1.03120E+00  1.02677E+00  4.43139E-03
    9108.430    115.383   5.640  1.02923E+00  1.02659E+00  2.64223E-03
    9110.155    117.108   5.680  1.02722E+00  1.02625E+00  9.67146E-04
    9111.892    118.845   5.720  1.02538E+00  1.02582E+00 -4.41156E-04
    9113.642    120.595   5.760  1.02383E+00  1.02527E+00 -1.43510E-03
    9115.404    122.356   5.800  1.02275E+00  1.02460E+00 -1.84514E-03
    9117.177    124.130   5.840  1.02234E+00  1.02381E+00 -1.46819E-03
    9118.964    125.916   5.880  1.02278E+00  1.02291E+00 -1.35789E-04
    9120.762    127.715   5.920  1.02409E+00  1.02193E+00  2.15177E-03
    9122.572    129.525   5.960  1.02598E+00  1.02088E+00  5.10244E-03
    9124.395    131.348   6.000  1.02789E+00  1.01968E+00  8.20453E-03
