# # comment:                                                     FEFF 9.9.1  
# # Source:
# # Structure
# # Reduced
# # space
# # abc:
# # angles:107.586138
# # sites:
# # POT  SCF 100  7.0000   0, screened core-hole, AFOLP (folp(0)= 1.150)
# # Abs   Z=29 Rmt= 1.122 Rnm= 1.261 K  shell
# # Pot 1 Z=56 Rmt= 1.927 Rnm= 1.992
# # Pot 2 Z=38 Rmt= 1.796 Rnm= 1.865
# # Pot 3 Z=29 Rmt= 1.123 Rnm= 1.263
# # Pot 4 Z= 8 Rmt= 1.090 Rnm= 1.146
# # Gam_ch=1.729E+00 H-L exch Vi= 0.000E+00 Vr= 0.000E+00
# # Mu=-9.574E+00eV kf=1.986E+00 Vint=-1.631E+01eV Rs_int= 1.826
# FMS rfms= 9.0000
# # PATH  Rmax=-1.000,  Keep_limit= 0.00, Heap_limit 0.00  Pwcrit= 2.50%
#  S02=0.950  Temp=   0.00  Debye_temp=   0.00  Global_sig2= 0.00000
#  Energy zero shift, vr, vi    0.00000E+00   0.00000E+00
#  Curved wave amplitude ratio filter   4.000%
#     file         sig2 tot  cw amp ratio   deg  nlegs   reff  inp sig2
#     0/   0 paths used
#  xsedge+ 50, used to normalize mu           2.4454E-04
#  -----------------------------------------------------------------------
#  omega    e    k    mu    mu0     chi     @#
    8984.528    -13.384  -1.000  2.85820E-02  5.16524E-02 -2.30704E-02
    8984.826    -13.085  -0.960  2.97447E-02  5.52597E-02 -2.55151E-02
    8985.113    -12.799  -0.920  3.09791E-02  5.92523E-02 -2.82732E-02
    8985.387    -12.524  -0.880  3.22939E-02  6.36851E-02 -3.13911E-02
    8985.649    -12.262  -0.840  3.36993E-02  6.86219E-02 -3.49226E-02
    8985.899    -12.012  -0.800  3.52073E-02  7.41366E-02 -3.89293E-02
    8986.137    -11.775  -0.760  3.68320E-02  8.03135E-02 -4.34815E-02
    8986.363    -11.549  -0.720  3.85898E-02  8.72476E-02 -4.86578E-02
    8986.576    -11.336  -0.680  4.04989E-02  9.50432E-02 -5.45443E-02
    8986.777    -11.134  -0.640  4.25789E-02  1.03810E-01 -6.12312E-02
    8986.966    -10.945  -0.600  4.48487E-02  1.13655E-01 -6.88066E-02
    8987.143    -10.769  -0.560  4.73235E-02  1.24670E-01 -7.73462E-02
    8987.307    -10.604  -0.520  5.00094E-02  1.36906E-01 -8.68965E-02
    8987.460    -10.452  -0.480  5.28961E-02  1.50349E-01 -9.74526E-02
    8987.600    -10.312  -0.440  5.59492E-02  1.64881E-01 -1.08932E-01
    8987.728    -10.183  -0.400  5.91035E-02  1.80256E-01 -1.21152E-01
    8987.844    -10.068  -0.360  6.22644E-02  1.96083E-01 -1.33819E-01
    8987.948     -9.964  -0.320  6.53174E-02  2.11859E-01 -1.46542E-01
    8988.039     -9.873  -0.280  6.81483E-02  2.27023E-01 -1.58874E-01
    8988.118     -9.793  -0.240  7.06632E-02  2.41031E-01 -1.70367E-01
    8988.185     -9.726  -0.200  7.28015E-02  2.53425E-01 -1.80624E-01
    8988.240     -9.671  -0.160  7.45345E-02  2.63867E-01 -1.89332E-01
    8988.283     -9.629  -0.120  7.58541E-02  2.72133E-01 -1.96279E-01
    8988.313     -9.598  -0.080  7.67641E-02  2.78096E-01 -2.01332E-01
    8988.338     -9.574   0.000  7.74403E-02  2.82893E-01 -2.05453E-01
    8988.393     -9.519   0.120  7.95564E-02  2.93730E-01 -2.14174E-01
    8988.435     -9.476   0.160  8.10724E-02  3.02169E-01 -2.21097E-01
    8988.490     -9.421   0.200  8.29130E-02  3.12966E-01 -2.30053E-01
    8988.557     -9.354   0.240  8.50367E-02  3.26021E-01 -2.40985E-01
    8988.636     -9.275   0.280  8.73465E-02  3.41095E-01 -2.53748E-01
    8988.728     -9.184   0.320  8.97773E-02  3.57853E-01 -2.68076E-01
    8988.831     -9.080   0.360  9.23090E-02  3.75879E-01 -2.83570E-01
    8988.947     -8.964   0.400  9.49527E-02  3.94704E-01 -2.99751E-01
    8989.075     -8.836   0.440  9.78065E-02  4.13915E-01 -3.16109E-01
    8989.216     -8.696   0.480  1.00990E-01  4.33195E-01 -3.32205E-01
    8989.368     -8.544   0.520  1.04492E-01  4.52319E-01 -3.47827E-01
    8989.533     -8.379   0.560  1.08224E-01  4.71173E-01 -3.62948E-01
    8989.709     -8.202   0.600  1.12008E-01  4.89766E-01 -3.77758E-01
    8989.898     -8.013   0.640  1.15560E-01  5.08100E-01 -3.92540E-01
    8990.099     -7.812   0.680  1.18800E-01  5.26245E-01 -4.07445E-01
    8990.313     -7.599   0.720  1.21888E-01  5.44242E-01 -4.22354E-01
    8990.538     -7.373   0.760  1.25368E-01  5.62146E-01 -4.36777E-01
    8990.776     -7.135   0.800  1.30042E-01  5.80025E-01 -4.49983E-01
    8991.026     -6.886   0.840  1.36762E-01  5.97896E-01 -4.61134E-01
    8991.288     -6.623   0.880  1.46284E-01  6.15781E-01 -4.69497E-01
    8991.562     -6.349   0.920  1.58991E-01  6.33673E-01 -4.74682E-01
    8991.849     -6.063   0.960  1.74710E-01  6.51593E-01 -4.76882E-01
    8992.148     -5.764   1.000  1.92390E-01  6.69491E-01 -4.77102E-01
    8992.459     -5.453   1.040  2.10774E-01  6.87352E-01 -4.76578E-01
    8992.782     -5.130   1.080  2.29273E-01  7.05153E-01 -4.75880E-01
    8993.117     -4.795   1.120  2.48505E-01  7.22824E-01 -4.74319E-01
    8993.464     -4.447   1.160  2.70423E-01  7.40354E-01 -4.69931E-01
    8993.824     -4.088   1.200  2.96716E-01  7.57666E-01 -4.60950E-01
    8994.196     -3.716   1.240  3.27323E-01  7.74724E-01 -4.47401E-01
    8994.580     -3.332   1.280  3.61020E-01  7.91466E-01 -4.30447E-01
    8994.976     -2.935   1.320  3.96546E-01  8.07875E-01 -4.11329E-01
    8995.385     -2.527   1.360  4.32606E-01  8.23867E-01 -3.91261E-01
    8995.805     -2.106   1.400  4.66787E-01  8.39426E-01 -3.72639E-01
    8996.238     -1.674   1.440  4.97053E-01  8.54470E-01 -3.57417E-01
    8996.683     -1.228   1.480  5.24148E-01  8.68982E-01 -3.44834E-01
    8997.140     -0.771   1.520  5.52236E-01  8.82948E-01 -3.30713E-01
    8997.610     -0.302   1.560  5.88988E-01  8.96293E-01 -3.07304E-01
    8998.091      0.180   1.600  6.35526E-01  9.09023E-01 -2.73497E-01
    8998.585      0.673   1.640  6.88929E-01  9.21112E-01 -2.32183E-01
    8999.091      1.179   1.680  7.51939E-01  9.32511E-01 -1.80572E-01
    8999.609      1.698   1.720  8.20734E-01  9.43255E-01 -1.22521E-01
    9000.140      2.228   1.760  8.83905E-01  9.53321E-01 -6.94162E-02
    9000.682      2.770   1.800  9.49533E-01  9.62690E-01 -1.31568E-02
    9001.237      3.325   1.840  1.03996E+00  9.71361E-01  6.86037E-02
    9001.804      3.892   1.880  1.15218E+00  9.79380E-01  1.72797E-01
    9002.383      4.471   1.920  1.25027E+00  9.86714E-01  2.63557E-01
    9002.974      5.063   1.960  1.30040E+00  9.93408E-01  3.06988E-01
    9003.578      5.666   2.000  1.29937E+00  9.99452E-01  2.99917E-01
    9004.193      6.282   2.040  1.26441E+00  1.00488E+00  2.59532E-01
    9004.821      6.910   2.080  1.21959E+00  1.00973E+00  2.09860E-01
    9005.461      7.550   2.120  1.18587E+00  1.01399E+00  1.71882E-01
    9006.114      8.202   2.160  1.17425E+00  1.01771E+00  1.56543E-01
    9006.778      8.866   2.200  1.18647E+00  1.02090E+00  1.65574E-01
    9007.455      9.543   2.240  1.21990E+00  1.02361E+00  1.96294E-01
    9008.144     10.232   2.280  1.26638E+00  1.02584E+00  2.40536E-01
    9008.845     10.933   2.320  1.31186E+00  1.02765E+00  2.84210E-01
    9009.558     11.646   2.360  1.34475E+00  1.02905E+00  3.15703E-01
    9010.283     12.372   2.400  1.35589E+00  1.03008E+00  3.25809E-01
    9011.021     13.109   2.440  1.34304E+00  1.03076E+00  3.12280E-01
    9011.771     13.859   2.480  1.31726E+00  1.03112E+00  2.86137E-01
    9012.533     14.621   2.520  1.28259E+00  1.03117E+00  2.51424E-01
    9013.307     15.395   2.560  1.24208E+00  1.03097E+00  2.11109E-01
    9014.093     16.182   2.600  1.20012E+00  1.03051E+00  1.69608E-01
    9014.892     16.980   2.640  1.16095E+00  1.02984E+00  1.31101E-01
    9015.703     17.791   2.680  1.12740E+00  1.02899E+00  9.84092E-02
    9016.525     18.614   2.720  1.10073E+00  1.02796E+00  7.27784E-02
    9017.361     19.449   2.760  1.08026E+00  1.02678E+00  5.34751E-02
    9018.208     20.296   2.800  1.06474E+00  1.02548E+00  3.92637E-02
    9019.068     21.156   2.840  1.05310E+00  1.02408E+00  2.90132E-02
    9019.939     22.028   2.880  1.04422E+00  1.02258E+00  2.16481E-02
    9020.823     22.912   2.920  1.03675E+00  1.02099E+00  1.57576E-02
    9021.719     23.808   2.960  1.02911E+00  1.01936E+00  9.75521E-03
    9022.628     24.716   3.000  1.01991E+00  1.01770E+00  2.20162E-03
    9023.548     25.636   3.040  1.00785E+00  1.01599E+00 -8.14650E-03
    9024.481     26.569   3.080  9.92761E-01  1.01430E+00 -2.15379E-02
    9025.426     27.514   3.120  9.75278E-01  1.01258E+00 -3.73022E-02
    9026.383     28.471   3.160  9.56506E-01  1.01088E+00 -5.43786E-02
    9027.352     29.440   3.200  9.37457E-01  1.00920E+00 -7.17430E-02
    9028.333     30.422   3.240  9.19062E-01  1.00755E+00 -8.84881E-02
    9029.327     31.415   3.280  9.01757E-01  1.00594E+00 -1.04182E-01
    9030.333     32.421   3.320  8.85949E-01  1.00439E+00 -1.18443E-01
    9031.351     33.439   3.360  8.72127E-01  1.00287E+00 -1.30743E-01
    9032.381     34.470   3.400  8.60717E-01  1.00142E+00 -1.40701E-01
    9033.424     35.512   3.440  8.51973E-01  1.00004E+00 -1.48066E-01
    9034.478     36.567   3.480  8.46144E-01  9.98737E-01 -1.52592E-01
    9035.545     37.633   3.520  8.43525E-01  9.97491E-01 -1.53966E-01
    9036.624     38.712   3.560  8.44106E-01  9.96325E-01 -1.52218E-01
    9037.715     39.804   3.600  8.47840E-01  9.95260E-01 -1.47419E-01
    9038.818     40.907   3.640  8.54603E-01  9.94257E-01 -1.39654E-01
    9039.934     42.022   3.680  8.64268E-01  9.93358E-01 -1.29091E-01
    9041.062     43.150   3.720  8.76401E-01  9.92545E-01 -1.16143E-01
    9042.202     44.290   3.760  8.90503E-01  9.91815E-01 -1.01312E-01
    9043.354     45.442   3.800  9.05829E-01  9.91170E-01 -8.53409E-02
    9044.518     46.607   3.840  9.21465E-01  9.90632E-01 -6.91668E-02
    9045.695     47.783   3.880  9.36502E-01  9.90160E-01 -5.36582E-02
    9046.883     48.972   3.920  9.50434E-01  9.89815E-01 -3.93809E-02
    9048.084     50.173   3.960  9.62840E-01  9.89532E-01 -2.66919E-02
    9049.297     51.386   4.000  9.73608E-01  9.89333E-01 -1.57246E-02
    9050.523     52.611   4.040  9.82826E-01  9.89238E-01 -6.41266E-03
    9051.760     53.849   4.080  9.90568E-01  9.89205E-01  1.36307E-03
    9053.010     55.098   4.120  9.97035E-01  9.89276E-01  7.75913E-03
    9054.272     56.360   4.160  1.00245E+00  9.89428E-01  1.30253E-02
    9055.546     57.634   4.200  1.00714E+00  9.89636E-01  1.75044E-02
    9056.832     58.920   4.240  1.01147E+00  9.89943E-01  2.15258E-02
    9058.131     60.219   4.280  1.01577E+00  9.90306E-01  2.54601E-02
    9059.441     61.530   4.320  1.02038E+00  9.90742E-01  2.96334E-02
    9060.764     62.852   4.360  1.02548E+00  9.91228E-01  3.42543E-02
    9062.099     64.187   4.400  1.03118E+00  9.91786E-01  3.93962E-02
    9063.446     65.535   4.440  1.03741E+00  9.92391E-01  4.50176E-02
    9064.806     66.894   4.480  1.04402E+00  9.93062E-01  5.09567E-02
    9066.177     68.266   4.520  1.05065E+00  9.93756E-01  5.68954E-02
    9067.561     69.649   4.560  1.05704E+00  9.94512E-01  6.25231E-02
    9068.957     71.045   4.600  1.06276E+00  9.95309E-01  6.74490E-02
    9070.365     72.454   4.640  1.06745E+00  9.96120E-01  7.13335E-02
    9071.786     73.874   4.680  1.07098E+00  9.96986E-01  7.39907E-02
    9073.218     75.306   4.720  1.07326E+00  9.97842E-01  7.54149E-02
    9074.663     76.751   4.760  1.07444E+00  9.98749E-01  7.56864E-02
    9076.120     78.208   4.800  1.07454E+00  9.99640E-01  7.48977E-02
    9077.589     79.677   4.840  1.07348E+00  1.00056E+00  7.29272E-02
    9079.070     81.159   4.880  1.07092E+00  1.00147E+00  6.94511E-02
    9080.564     82.652   4.920  1.06659E+00  1.00239E+00  6.42011E-02
    9082.069     84.158   4.960  1.06057E+00  1.00328E+00  5.72866E-02
    9083.587     85.676   5.000  1.05356E+00  1.00419E+00  4.93738E-02
    9085.117     87.206   5.040  1.04657E+00  1.00507E+00  4.15005E-02
    9086.660     88.748   5.080  1.04057E+00  1.00594E+00  3.46386E-02
    9088.214     90.303   5.120  1.03614E+00  1.00677E+00  2.93704E-02
    9089.781     91.869   5.160  1.03320E+00  1.00757E+00  2.56323E-02
    9091.360     93.448   5.200  1.03101E+00  1.00832E+00  2.26863E-02
    9092.951     95.039   5.240  1.02843E+00  1.00907E+00  1.93649E-02
    9094.554     96.642   5.280  1.02436E+00  1.00977E+00  1.45917E-02
    9096.169     98.258   5.320  1.01831E+00  1.01041E+00  7.90041E-03
    9097.797     99.885   5.360  1.01064E+00  1.01102E+00 -3.79575E-04
    9099.437    101.525   5.400  1.00227E+00  1.01157E+00 -9.30566E-03
    9101.089    103.177   5.440  9.94305E-01  1.01207E+00 -1.77675E-02
    9102.753    104.841   5.480  9.87605E-01  1.01250E+00 -2.48970E-02
    9104.429    106.518   5.520  9.82645E-01  1.01288E+00 -3.02379E-02
    9106.118    108.206   5.560  9.79415E-01  1.01322E+00 -3.38002E-02
    9107.819    109.907   5.600  9.77409E-01  1.01347E+00 -3.60646E-02
    9109.532    111.620   5.640  9.75748E-01  1.01366E+00 -3.79120E-02
    9111.257    113.345   5.680  9.73579E-01  1.01382E+00 -4.02398E-02
    9112.994    115.083   5.720  9.70404E-01  1.01388E+00 -4.34780E-02
    9114.744    116.832   5.760  9.66568E-01  1.01389E+00 -4.73250E-02
    9116.506    118.594   5.800  9.62791E-01  1.01383E+00 -5.10398E-02
    9118.280    120.368   5.840  9.59844E-01  1.01372E+00 -5.38754E-02
    9120.066    122.154   5.880  9.58133E-01  1.01354E+00 -5.54028E-02
    9121.864    123.952   5.920  9.57761E-01  1.01330E+00 -5.55421E-02
    9123.674    125.763   5.960  9.58621E-01  1.01299E+00 -5.43704E-02
    9125.497    127.586   6.000  9.60884E-01  1.01255E+00 -5.16705E-02
