# # comment:                                                     FEFF 9.9.1  
# # Source:
# # Structure
# # Reduced
# # space
# # abc:
# # angles:112.844679
# # sites:
# # POT  SCF 100  7.0000   0, screened core-hole, AFOLP (folp(0)= 1.150)
# # Abs   Z=29 Rmt= 1.289 Rnm= 1.360 K  shell
# # Pot 1 Z=11 Rmt= 1.540 Rnm= 1.593
# # Pot 2 Z=29 Rmt= 1.271 Rnm= 1.341
# # Pot 3 Z=15 Rmt= 0.940 Rnm= 1.157
# # Pot 4 Z= 8 Rmt= 0.892 Rnm= 1.049
# # Gam_ch=1.729E+00 H-L exch Vi= 0.000E+00 Vr= 0.000E+00
# # Mu=-6.291E+00eV kf=2.410E+00 Vint=-1.659E+01eV Rs_int= 1.505
# FMS rfms= 9.0000
# # PATH  Rmax=-1.000,  Keep_limit= 0.00, Heap_limit 0.00  Pwcrit= 2.50%
#  S02=0.950  Temp=   0.00  Debye_temp=   0.00  Global_sig2= 0.00000
#  Energy zero shift, vr, vi    0.00000E+00   0.00000E+00
#  Curved wave amplitude ratio filter   4.000%
#     file         sig2 tot  cw amp ratio   deg  nlegs   reff  inp sig2
#     0/   0 paths used
#  xsedge+ 50, used to normalize mu           2.4806E-04
#  -----------------------------------------------------------------------
#  omega    e    k    mu    mu0     chi     @#
    8983.374    -10.101  -1.000  4.11088E-02  5.27144E-02 -1.16056E-02
    8983.673     -9.803  -0.960  4.36558E-02  5.65499E-02 -1.28940E-02
    8983.959     -9.516  -0.920  4.64804E-02  6.08147E-02 -1.43343E-02
    8984.233     -9.242  -0.880  4.96293E-02  6.55725E-02 -1.59432E-02
    8984.496     -8.980  -0.840  5.31588E-02  7.08973E-02 -1.77386E-02
    8984.746     -8.730  -0.800  5.71362E-02  7.68753E-02 -1.97392E-02
    8984.983     -8.492  -0.760  6.16412E-02  8.36052E-02 -2.19640E-02
    8985.209     -8.267  -0.720  6.67670E-02  9.11986E-02 -2.44315E-02
    8985.422     -8.053  -0.680  7.26195E-02  9.97786E-02 -2.71591E-02
    8985.623     -7.852  -0.640  7.93141E-02  1.09475E-01 -3.01613E-02
    8985.812     -7.663  -0.600  8.69679E-02  1.20417E-01 -3.34489E-02
    8985.989     -7.486  -0.560  9.56846E-02  1.32712E-01 -3.70273E-02
    8986.154     -7.322  -0.520  1.05531E-01  1.46426E-01 -4.08959E-02
    8986.306     -7.169  -0.480  1.16500E-01  1.61546E-01 -4.50463E-02
    8986.446     -7.029  -0.440  1.28476E-01  1.77939E-01 -4.94626E-02
    8986.574     -6.901  -0.400  1.41198E-01  1.95317E-01 -5.41193E-02
    8986.690     -6.785  -0.360  1.54252E-01  2.13230E-01 -5.89777E-02
    8986.794     -6.682  -0.320  1.67113E-01  2.31092E-01 -6.39787E-02
    8986.885     -6.590  -0.280  1.79220E-01  2.48252E-01 -6.90322E-02
    8986.964     -6.511  -0.240  1.90078E-01  2.64088E-01 -7.40092E-02
    8987.032     -6.444  -0.200  1.99336E-01  2.78076E-01 -7.87402E-02
    8987.086     -6.389  -0.160  2.06809E-01  2.89838E-01 -8.30282E-02
    8987.129     -6.346  -0.120  2.12457E-01  2.99131E-01 -8.66736E-02
    8987.160     -6.316  -0.080  2.16329E-01  3.05824E-01 -8.94949E-02
    8987.184     -6.291   0.000  2.19190E-01  3.11200E-01 -9.20099E-02
    8987.239     -6.237   0.120  2.26035E-01  3.23316E-01 -9.72818E-02
    8987.281     -6.194   0.160  2.31102E-01  3.32715E-01 -1.01613E-01
    8987.336     -6.139   0.200  2.37173E-01  3.44722E-01 -1.07549E-01
    8987.403     -6.072   0.240  2.43734E-01  3.59145E-01 -1.15412E-01
    8987.483     -5.993   0.280  2.50134E-01  3.75664E-01 -1.25530E-01
    8987.574     -5.901   0.320  2.55681E-01  3.93880E-01 -1.38199E-01
    8987.678     -5.798   0.360  2.59688E-01  4.13213E-01 -1.53525E-01
    8987.794     -5.682   0.400  2.61775E-01  4.33090E-01 -1.71314E-01
    8987.922     -5.554   0.440  2.62015E-01  4.52984E-01 -1.90969E-01
    8988.062     -5.414   0.480  2.60890E-01  4.72493E-01 -2.11602E-01
    8988.214     -5.261   0.520  2.59047E-01  4.91340E-01 -2.32293E-01
    8988.379     -5.097   0.560  2.57118E-01  5.09407E-01 -2.52289E-01
    8988.556     -4.920   0.600  2.55568E-01  5.26666E-01 -2.71098E-01
    8988.745     -4.731   0.640  2.54788E-01  5.43176E-01 -2.88389E-01
    8988.946     -4.530   0.680  2.55112E-01  5.59038E-01 -3.03926E-01
    8989.159     -4.316   0.720  2.56583E-01  5.74320E-01 -3.17737E-01
    8989.385     -4.091   0.760  2.59025E-01  5.89154E-01 -3.30129E-01
    8989.622     -3.853   0.800  2.62232E-01  6.03604E-01 -3.41372E-01
    8989.872     -3.603   0.840  2.66479E-01  6.17758E-01 -3.51279E-01
    8990.134     -3.341   0.880  2.72725E-01  6.31671E-01 -3.58947E-01
    8990.409     -3.067   0.920  2.82548E-01  6.45409E-01 -3.62861E-01
    8990.695     -2.780   0.960  2.97572E-01  6.58980E-01 -3.61409E-01
    8990.994     -2.481   1.000  3.19059E-01  6.72445E-01 -3.53386E-01
    8991.305     -2.171   1.040  3.47571E-01  6.85773E-01 -3.38202E-01
    8991.628     -1.847   1.080  3.82596E-01  6.99010E-01 -3.16414E-01
    8991.963     -1.512   1.120  4.22192E-01  7.12131E-01 -2.89939E-01
    8992.311     -1.165   1.160  4.64914E-01  7.25148E-01 -2.60234E-01
    8992.670     -0.805   1.200  5.09982E-01  7.38029E-01 -2.28047E-01
    8993.042     -0.433   1.240  5.54645E-01  7.50796E-01 -1.96151E-01
    8993.426     -0.049   1.280  5.96225E-01  7.63389E-01 -1.67164E-01
    8993.822      0.347   1.320  6.34066E-01  7.75827E-01 -1.41761E-01
    8994.231      0.756   1.360  6.66183E-01  7.88067E-01 -1.21884E-01
    8994.652      1.176   1.400  6.91515E-01  8.00106E-01 -1.08591E-01
    8995.084      1.609   1.440  7.14367E-01  8.11914E-01 -9.75470E-02
    8995.529      2.054   1.480  7.43893E-01  8.23465E-01 -7.95727E-02
    8995.987      2.511   1.520  7.93177E-01  8.34755E-01 -4.15788E-02
    8996.456      2.981   1.560  8.72771E-01  8.45757E-01  2.70135E-02
    8996.938      3.462   1.600  9.76317E-01  8.56442E-01  1.19875E-01
    8997.431      3.956   1.640  1.08001E+00  8.66782E-01  2.13225E-01
    8997.937      4.462   1.680  1.15832E+00  8.76815E-01  2.81503E-01
    8998.455      4.980   1.720  1.19816E+00  8.86453E-01  3.11704E-01
    8998.986      5.510   1.760  1.20386E+00  8.95752E-01  3.08113E-01
    8999.528      6.053   1.800  1.19715E+00  9.04647E-01  2.92505E-01
    9000.083      6.608   1.840  1.20502E+00  9.13175E-01  2.91846E-01
    9000.650      7.175   1.880  1.22881E+00  9.21293E-01  3.07520E-01
    9001.229      7.754   1.920  1.24456E+00  9.29001E-01  3.15560E-01
    9001.820      8.345   1.960  1.23951E+00  9.36317E-01  3.03198E-01
    9002.424      8.948   2.000  1.22333E+00  9.43221E-01  2.80111E-01
    9003.040      9.564   2.040  1.20590E+00  9.49714E-01  2.56184E-01
    9003.667     10.192   2.080  1.18910E+00  9.55816E-01  2.33286E-01
    9004.308     10.832   2.120  1.17394E+00  9.61511E-01  2.12432E-01
    9004.960     11.484   2.160  1.16017E+00  9.66803E-01  1.93372E-01
    9005.624     12.149   2.200  1.14991E+00  9.71714E-01  1.78196E-01
    9006.301     12.826   2.240  1.14952E+00  9.76248E-01  1.73270E-01
    9006.990     13.514   2.280  1.15891E+00  9.80411E-01  1.78503E-01
    9007.691     14.215   2.320  1.16990E+00  9.84207E-01  1.85690E-01
    9008.404     14.929   2.360  1.17551E+00  9.87644E-01  1.87870E-01
    9009.129     15.654   2.400  1.17000E+00  9.90746E-01  1.79255E-01
    9009.867     16.392   2.440  1.14696E+00  9.93521E-01  1.53437E-01
    9010.617     17.141   2.480  1.10712E+00  9.95997E-01  1.11127E-01
    9011.379     17.903   2.520  1.06019E+00  9.98161E-01  6.20310E-02
    9012.153     18.678   2.560  1.01669E+00  1.00006E+00  1.66295E-02
    9012.939     19.464   2.600  9.80207E-01  1.00168E+00 -2.14724E-02
    9013.738     20.263   2.640  9.52167E-01  1.00305E+00 -5.08827E-02
    9014.549     21.073   2.680  9.36779E-01  1.00417E+00 -6.73960E-02
    9015.372     21.896   2.720  9.36725E-01  1.00506E+00 -6.83399E-02
    9016.207     22.731   2.760  9.46682E-01  1.00575E+00 -5.90645E-02
    9017.054     23.579   2.800  9.53539E-01  1.00625E+00 -5.27096E-02
    9017.914     24.438   2.840  9.48495E-01  1.00656E+00 -5.80634E-02
    9018.785     25.310   2.880  9.36031E-01  1.00670E+00 -7.06723E-02
    9019.669     26.194   2.920  9.21782E-01  1.00671E+00 -8.49268E-02
    9020.566     27.090   2.960  9.08220E-01  1.00656E+00 -9.83428E-02
    9021.474     27.998   3.000  8.95989E-01  1.00629E+00 -1.10302E-01
    9022.394     28.919   3.040  8.85053E-01  1.00590E+00 -1.20847E-01
    9023.327     29.852   3.080  8.75387E-01  1.00542E+00 -1.30029E-01
    9024.272     30.796   3.120  8.67171E-01  1.00483E+00 -1.37655E-01
    9025.229     31.754   3.160  8.60869E-01  1.00417E+00 -1.43305E-01
    9026.198     32.723   3.200  8.57016E-01  1.00345E+00 -1.46434E-01
    9027.180     33.704   3.240  8.56247E-01  1.00268E+00 -1.46429E-01
    9028.173     34.698   3.280  8.59201E-01  1.00186E+00 -1.42656E-01
    9029.179     35.704   3.320  8.65805E-01  1.00100E+00 -1.35194E-01
    9030.197     36.722   3.360  8.75893E-01  1.00011E+00 -1.24214E-01
    9031.227     37.752   3.400  8.88982E-01  9.99202E-01 -1.10219E-01
    9032.270     38.794   3.440  9.04171E-01  9.98291E-01 -9.41194E-02
    9033.324     39.849   3.480  9.20516E-01  9.97355E-01 -7.68395E-02
    9034.391     40.916   3.520  9.37367E-01  9.96441E-01 -5.90741E-02
    9035.470     41.995   3.560  9.54242E-01  9.95529E-01 -4.12867E-02
    9036.561     43.086   3.600  9.70723E-01  9.94622E-01 -2.38988E-02
    9037.665     44.189   3.640  9.86357E-01  9.93744E-01 -7.38633E-03
    9038.780     45.305   3.680  1.00040E+00  9.92876E-01  7.52138E-03
    9039.908     46.433   3.720  1.01222E+00  9.92041E-01  2.01761E-02
    9041.048     47.573   3.760  1.02165E+00  9.91243E-01  3.04099E-02
    9042.200     48.725   3.800  1.02903E+00  9.90483E-01  3.85490E-02
    9043.364     49.889   3.840  1.03472E+00  9.89762E-01  4.49619E-02
    9044.541     51.066   3.880  1.03896E+00  9.89080E-01  4.98827E-02
    9045.730     52.254   3.920  1.04189E+00  9.88440E-01  5.34466E-02
    9046.931     53.455   3.960  1.04364E+00  9.87843E-01  5.58004E-02
    9048.144     54.668   4.000  1.04452E+00  9.87312E-01  5.72053E-02
    9049.369     55.894   4.040  1.04494E+00  9.86824E-01  5.81208E-02
    9050.606     57.131   4.080  1.04534E+00  9.86380E-01  5.89627E-02
    9051.856     58.381   4.120  1.04596E+00  9.85981E-01  5.99747E-02
    9053.118     59.643   4.160  1.04686E+00  9.85647E-01  6.12080E-02
    9054.392     60.917   4.200  1.04784E+00  9.85360E-01  6.24836E-02
    9055.678     62.203   4.240  1.04861E+00  9.85139E-01  6.34695E-02
    9056.977     63.501   4.280  1.04877E+00  9.84941E-01  6.38337E-02
    9058.287     64.812   4.320  1.04823E+00  9.84806E-01  6.34269E-02
    9059.610     66.135   4.360  1.04694E+00  9.84716E-01  6.22283E-02
    9060.945     67.470   4.400  1.04497E+00  9.84669E-01  6.03025E-02
    9062.292     68.817   4.440  1.04243E+00  9.84685E-01  5.77484E-02
    9063.652     70.176   4.480  1.03929E+00  9.84723E-01  5.45653E-02
    9065.023     71.548   4.520  1.03549E+00  9.84822E-01  5.06706E-02
    9066.407     72.932   4.560  1.03097E+00  9.84961E-01  4.60049E-02
    9067.803     74.328   4.600  1.02569E+00  9.85117E-01  4.05752E-02
    9069.211     75.736   4.640  1.01975E+00  9.85331E-01  3.44230E-02
    9070.632     77.156   4.680  1.01323E+00  9.85560E-01  2.76655E-02
    9072.064     78.589   4.720  1.00633E+00  9.85823E-01  2.05082E-02
    9073.509     80.034   4.760  9.99362E-01  9.86120E-01  1.32423E-02
    9074.966     81.491   4.800  9.92525E-01  9.86428E-01  6.09769E-03
    9076.435     82.960   4.840  9.85709E-01  9.86768E-01 -1.05869E-03
    9077.916     84.441   4.880  9.78464E-01  9.87137E-01 -8.67310E-03
    9079.410     85.935   4.920  9.70325E-01  9.87490E-01 -1.71648E-02
    9080.916     87.440   4.960  9.61328E-01  9.87870E-01 -2.65415E-02
    9082.434     88.958   5.000  9.52021E-01  9.88275E-01 -3.62539E-02
    9083.964     90.488   5.040  9.43212E-01  9.88663E-01 -4.54515E-02
    9085.506     92.031   5.080  9.35776E-01  9.89072E-01 -5.32958E-02
    9087.060     93.585   5.120  9.30293E-01  9.89458E-01 -5.91656E-02
    9088.627     95.152   5.160  9.27137E-01  9.89865E-01 -6.27276E-02
    9090.206     96.731   5.200  9.26380E-01  9.90246E-01 -6.38660E-02
    9091.797     98.322   5.240  9.27964E-01  9.90621E-01 -6.26575E-02
    9093.400     99.925   5.280  9.31683E-01  9.90994E-01 -5.93106E-02
    9095.016    101.540   5.320  9.37227E-01  9.91358E-01 -5.41315E-02
    9096.643    103.168   5.360  9.44221E-01  9.91691E-01 -4.74704E-02
    9098.283    104.808   5.400  9.52260E-01  9.91991E-01 -3.97310E-02
    9099.935    106.460   5.440  9.60809E-01  9.92280E-01 -3.14706E-02
    9101.599    108.124   5.480  9.69096E-01  9.92535E-01 -2.34392E-02
    9103.276    109.800   5.520  9.76365E-01  9.92778E-01 -1.64136E-02
    9104.964    111.489   5.560  9.82085E-01  9.92987E-01 -1.09015E-02
    9106.665    113.190   5.600  9.86157E-01  9.93157E-01 -7.00026E-03
    9108.378    114.903   5.640  9.88791E-01  9.93288E-01 -4.49687E-03
    9110.103    116.628   5.680  9.90401E-01  9.93383E-01 -2.98178E-03
    9111.841    118.365   5.720  9.91479E-01  9.93462E-01 -1.98229E-03
    9113.590    120.115   5.760  9.92337E-01  9.93480E-01 -1.14291E-03
    9115.352    121.876   5.800  9.93114E-01  9.93484E-01 -3.69388E-04
    9117.126    123.650   5.840  9.93652E-01  9.93448E-01  2.04604E-04
    9118.912    125.436   5.880  9.93702E-01  9.93349E-01  3.52976E-04
    9120.710    127.235   5.920  9.93198E-01  9.93236E-01 -3.86098E-05
    9122.521    129.045   5.960  9.92278E-01  9.93083E-01 -8.04844E-04
    9124.343    130.868   6.000  9.91446E-01  9.92837E-01 -1.39107E-03
