# # comment:                                                     FEFF 9.9.1  
# # Source:
# # Structure
# # Reduced
# # space
# # abc:
# # angles:
# # sites:
# # POT  SCF 100  7.0000   0, screened core-hole, AFOLP (folp(0)= 1.150)
# # Abs   Z=29 Rmt= 1.273 Rnm= 1.340 K  shell
# # Pot 1 Z= 3 Rmt= 1.234 Rnm= 1.294
# # Pot 2 Z=29 Rmt= 1.273 Rnm= 1.340
# # Pot 3 Z= 8 Rmt= 1.061 Rnm= 1.117
# # Gam_ch=1.729E+00 H-L exch Vi= 0.000E+00 Vr= 0.000E+00
# # Mu=-7.082E+00eV kf=2.102E+00 Vint=-1.578E+01eV Rs_int= 1.726
# FMS rfms= 9.0000
# # PATH  Rmax=-1.000,  Keep_limit= 0.00, Heap_limit 0.00  Pwcrit= 2.50%
#  S02=0.950  Temp=   0.00  Debye_temp=   0.00  Global_sig2= 0.00000
#  Energy zero shift, vr, vi    0.00000E+00   0.00000E+00
#  Curved wave amplitude ratio filter   4.000%
#     file         sig2 tot  cw amp ratio   deg  nlegs   reff  inp sig2
#     0/   0 paths used
#  xsedge+ 50, used to normalize mu           2.4412E-04
#  -----------------------------------------------------------------------
#  omega    e    k    mu    mu0     chi     @#
    8984.095    -10.892  -1.000  4.10229E-02  5.89558E-02 -1.79329E-02
    8984.394    -10.594  -0.960  4.30726E-02  6.33798E-02 -2.03071E-02
    8984.680    -10.307  -0.920  4.52517E-02  6.83060E-02 -2.30543E-02
    8984.955    -10.033  -0.880  4.75699E-02  7.38093E-02 -2.62394E-02
    8985.217     -9.771  -0.840  5.00375E-02  7.99765E-02 -2.99390E-02
    8985.467     -9.521  -0.800  5.26656E-02  8.69085E-02 -3.42429E-02
    8985.704     -9.283  -0.760  5.54660E-02  9.47210E-02 -3.92550E-02
    8985.930     -9.057  -0.720  5.84506E-02  1.03545E-01 -4.50943E-02
    8986.143     -8.844  -0.680  6.16313E-02  1.13524E-01 -5.18931E-02
    8986.344     -8.643  -0.640  6.50187E-02  1.24812E-01 -5.97930E-02
    8986.533     -8.454  -0.600  6.86210E-02  1.37557E-01 -6.89358E-02
    8986.710     -8.277  -0.560  7.24411E-02  1.51887E-01 -7.94463E-02
    8986.875     -8.113  -0.520  7.64736E-02  1.67880E-01 -9.14069E-02
    8987.027     -7.960  -0.480  8.06997E-02  1.85520E-01 -1.04820E-01
    8987.167     -7.820  -0.440  8.50827E-02  2.04651E-01 -1.19569E-01
    8987.295     -7.692  -0.400  8.95628E-02  2.24940E-01 -1.35377E-01
    8987.411     -7.576  -0.360  9.40570E-02  2.45858E-01 -1.51801E-01
    8987.515     -7.473  -0.320  9.84620E-02  2.66722E-01 -1.68260E-01
    8987.606     -7.381  -0.280  1.02663E-01  2.86773E-01 -1.84110E-01
    8987.686     -7.302  -0.240  1.06547E-01  3.05280E-01 -1.98732E-01
    8987.753     -7.235  -0.200  1.10010E-01  3.21632E-01 -2.11622E-01
    8987.808     -7.180  -0.160  1.12964E-01  3.35385E-01 -2.22421E-01
    8987.850     -7.137  -0.120  1.15337E-01  3.46253E-01 -2.30916E-01
    8987.881     -7.107  -0.080  1.17073E-01  3.54081E-01 -2.37008E-01
    8987.905     -7.082   0.000  1.18495E-01  3.60370E-01 -2.41875E-01
    8987.960     -7.027   0.120  1.21903E-01  3.74546E-01 -2.52643E-01
    8988.003     -6.985   0.160  1.24541E-01  3.85551E-01 -2.61010E-01
    8988.057     -6.930   0.200  1.27992E-01  3.99596E-01 -2.71605E-01
    8988.125     -6.863   0.240  1.32282E-01  4.16486E-01 -2.84204E-01
    8988.204     -6.784   0.280  1.37469E-01  4.35853E-01 -2.98384E-01
    8988.295     -6.692   0.320  1.43616E-01  4.57196E-01 -3.13580E-01
    8988.399     -6.589   0.360  1.50808E-01  4.79888E-01 -3.29080E-01
    8988.515     -6.473   0.400  1.59125E-01  5.03223E-01 -3.44099E-01
    8988.643     -6.345   0.440  1.68726E-01  5.26614E-01 -3.57888E-01
    8988.783     -6.205   0.480  1.79701E-01  5.49547E-01 -3.69845E-01
    8988.935     -6.052   0.520  1.92044E-01  5.71700E-01 -3.79656E-01
    8989.100     -5.888   0.560  2.05690E-01  5.92954E-01 -3.87263E-01
    8989.277     -5.711   0.600  2.20415E-01  6.13227E-01 -3.92812E-01
    8989.466     -5.522   0.640  2.36307E-01  6.32582E-01 -3.96275E-01
    8989.667     -5.321   0.680  2.54118E-01  6.51102E-01 -3.96984E-01
    8989.880     -5.107   0.720  2.75548E-01  6.68888E-01 -3.93340E-01
    8990.106     -4.882   0.760  3.02878E-01  6.86037E-01 -3.83159E-01
    8990.343     -4.644   0.800  3.38237E-01  7.02597E-01 -3.64359E-01
    8990.593     -4.394   0.840  3.82842E-01  7.18680E-01 -3.35838E-01
    8990.856     -4.132   0.880  4.35630E-01  7.34304E-01 -2.98675E-01
    8991.130     -3.858   0.920  4.91892E-01  7.49531E-01 -2.57639E-01
    8991.416     -3.571   0.960  5.44129E-01  7.64391E-01 -2.20262E-01
    8991.715     -3.272   1.000  5.87390E-01  7.78860E-01 -1.91469E-01
    8992.026     -2.961   1.040  6.22746E-01  7.92944E-01 -1.70198E-01
    8992.349     -2.638   1.080  6.51991E-01  8.06686E-01 -1.54695E-01
    8992.684     -2.303   1.120  6.74031E-01  8.20018E-01 -1.45987E-01
    8993.032     -1.956   1.160  6.88649E-01  8.32948E-01 -1.44299E-01
    8993.391     -1.596   1.200  6.94693E-01  8.45482E-01 -1.50789E-01
    8993.763     -1.224   1.240  6.92803E-01  8.57563E-01 -1.64760E-01
    8994.147     -0.840   1.280  6.92702E-01  8.69211E-01 -1.76508E-01
    8994.544     -0.444   1.320  7.04991E-01  8.80384E-01 -1.75393E-01
    8994.952     -0.035   1.360  7.33237E-01  8.91063E-01 -1.57826E-01
    8995.373      0.385   1.400  7.77900E-01  9.01245E-01 -1.23345E-01
    8995.805      0.818   1.440  8.30460E-01  9.10931E-01 -8.04714E-02
    8996.250      1.263   1.480  8.72074E-01  9.20102E-01 -4.80276E-02
    8996.708      1.720   1.520  9.13171E-01  9.28736E-01 -1.55649E-02
    8997.177      2.190   1.560  9.82373E-01  9.36858E-01  4.55151E-02
    8997.659      2.671   1.600  1.09313E+00  9.44448E-01  1.48681E-01
    8998.152      3.165   1.640  1.23385E+00  9.51511E-01  2.82335E-01
    8998.658      3.671   1.680  1.37666E+00  9.58072E-01  4.18590E-01
    8999.177      4.189   1.720  1.50196E+00  9.64097E-01  5.37860E-01
    8999.707      4.719   1.760  1.61431E+00  9.69656E-01  6.44649E-01
    9000.249      5.262   1.800  1.71189E+00  9.74714E-01  7.37173E-01
    9000.804      5.817   1.840  1.74776E+00  9.79301E-01  7.68454E-01
    9001.371      6.384   1.880  1.71330E+00  9.83447E-01  7.29852E-01
    9001.950      6.963   1.920  1.63541E+00  9.87162E-01  6.48245E-01
    9002.541      7.554   1.960  1.51242E+00  9.90459E-01  5.21957E-01
    9003.145      8.158   2.000  1.34812E+00  9.93367E-01  3.54753E-01
    9003.761      8.773   2.040  1.18136E+00  9.95897E-01  1.85462E-01
    9004.389      9.401   2.080  1.06005E+00  9.98084E-01  6.19680E-02
    9005.029     10.041   2.120  1.00360E+00  9.99936E-01  3.66804E-03
    9005.681     10.694   2.160  9.99319E-01  1.00149E+00 -2.16962E-03
    9006.345     11.358   2.200  1.01502E+00  1.00277E+00  1.22489E-02
    9007.022     12.035   2.240  1.01948E+00  1.00378E+00  1.57068E-02
    9007.711     12.723   2.280  1.01283E+00  1.00456E+00  8.27389E-03
    9008.412     13.424   2.320  1.01717E+00  1.00510E+00  1.20686E-02
    9009.125     14.138   2.360  1.02597E+00  1.00546E+00  2.05053E-02
    9009.851     14.863   2.400  1.01526E+00  1.00565E+00  9.60837E-03
    9010.588     15.601   2.440  9.85103E-01  1.00567E+00 -2.05692E-02
    9011.338     16.351   2.480  9.48353E-01  1.00556E+00 -5.72090E-02
    9012.100     17.113   2.520  9.26678E-01  1.00533E+00 -7.86498E-02
    9012.874     17.887   2.560  9.25164E-01  1.00500E+00 -7.98344E-02
    9013.661     18.673   2.600  9.31264E-01  1.00456E+00 -7.32964E-02
    9014.459     19.472   2.640  9.36077E-01  1.00406E+00 -6.79873E-02
    9015.270     20.282   2.680  9.36800E-01  1.00352E+00 -6.67161E-02
    9016.093     21.105   2.720  9.32989E-01  1.00290E+00 -6.99120E-02
    9016.928     21.941   2.760  9.24185E-01  1.00227E+00 -7.80837E-02
    9017.775     22.788   2.800  9.10823E-01  1.00162E+00 -9.08016E-02
    9018.635     23.647   2.840  8.95356E-01  1.00095E+00 -1.05597E-01
    9019.507     24.519   2.880  8.80754E-01  1.00028E+00 -1.19525E-01
    9020.390     25.403   2.920  8.68914E-01  9.99628E-01 -1.30713E-01
    9021.287     26.299   2.960  8.60887E-01  9.98983E-01 -1.38096E-01
    9022.195     27.207   3.000  8.56815E-01  9.98370E-01 -1.41555E-01
    9023.115     28.128   3.040  8.56284E-01  9.97771E-01 -1.41487E-01
    9024.048     29.061   3.080  8.58659E-01  9.97229E-01 -1.38570E-01
    9024.993     30.006   3.120  8.63098E-01  9.96705E-01 -1.33607E-01
    9025.950     30.963   3.160  8.68941E-01  9.96245E-01 -1.27304E-01
    9026.919     31.932   3.200  8.76048E-01  9.95830E-01 -1.19782E-01
    9027.901     32.913   3.240  8.84634E-01  9.95460E-01 -1.10826E-01
    9028.894     33.907   3.280  8.94755E-01  9.95158E-01 -1.00403E-01
    9029.900     34.913   3.320  9.06389E-01  9.94904E-01 -8.85145E-02
    9030.918     35.931   3.360  9.19469E-01  9.94720E-01 -7.52517E-02
    9031.948     36.961   3.400  9.33639E-01  9.94587E-01 -6.09481E-02
    9032.991     38.003   3.440  9.48460E-01  9.94524E-01 -4.60636E-02
    9034.045     39.058   3.480  9.63579E-01  9.94510E-01 -3.09315E-02
    9035.112     40.125   3.520  9.78585E-01  9.94567E-01 -1.59828E-02
    9036.191     41.204   3.560  9.93086E-01  9.94674E-01 -1.58867E-03
    9037.282     42.295   3.600  1.00692E+00  9.94852E-01  1.20667E-02
    9038.386     43.398   3.640  1.01993E+00  9.95078E-01  2.48498E-02
    9039.501     44.514   3.680  1.03186E+00  9.95373E-01  3.64860E-02
    9040.629     45.642   3.720  1.04242E+00  9.95715E-01  4.67036E-02
    9041.769     46.782   3.760  1.05159E+00  9.96125E-01  5.54682E-02
    9042.921     47.934   3.800  1.05956E+00  9.96558E-01  6.30000E-02
    9044.086     49.098   3.840  1.06681E+00  9.97054E-01  6.97530E-02
    9045.262     50.275   3.880  1.07395E+00  9.97593E-01  7.63581E-02
    9046.451     51.463   3.920  1.08155E+00  9.98171E-01  8.33757E-02
    9047.652     52.664   3.960  1.08975E+00  9.98788E-01  9.09657E-02
    9048.865     53.877   4.000  1.09798E+00  9.99442E-01  9.85365E-02
    9050.090     55.103   4.040  1.10471E+00  1.00011E+00  1.04605E-01
    9051.328     56.340   4.080  1.10835E+00  1.00083E+00  1.07522E-01
    9052.577     57.590   4.120  1.10815E+00  1.00154E+00  1.06609E-01
    9053.839     58.852   4.160  1.10493E+00  1.00228E+00  1.02649E-01
    9055.113     60.126   4.200  1.09990E+00  1.00304E+00  9.68543E-02
    9056.399     61.412   4.240  1.09366E+00  1.00381E+00  8.98413E-02
    9057.698     62.710   4.280  1.08588E+00  1.00459E+00  8.12897E-02
    9059.008     64.021   4.320  1.07575E+00  1.00536E+00  7.03947E-02
    9060.331     65.344   4.360  1.06262E+00  1.00610E+00  5.65143E-02
    9061.666     66.679   4.400  1.04652E+00  1.00686E+00  3.96594E-02
    9063.014     68.026   4.440  1.02833E+00  1.00762E+00  2.07060E-02
    9064.373     69.386   4.480  1.00977E+00  1.00835E+00  1.41591E-03
    9065.745     70.757   4.520  9.93151E-01  1.00905E+00 -1.58978E-02
    9067.128     72.141   4.560  9.80614E-01  1.00976E+00 -2.91410E-02
    9068.524     73.537   4.600  9.73359E-01  1.01041E+00 -3.70469E-02
    9069.932     74.945   4.640  9.71673E-01  1.01104E+00 -3.93690E-02
    9071.353     76.365   4.680  9.74579E-01  1.01164E+00 -3.70600E-02
    9072.785     77.798   4.720  9.80024E-01  1.01220E+00 -3.21731E-02
    9074.230     79.243   4.760  9.85339E-01  1.01271E+00 -2.73750E-02
    9075.687     80.700   4.800  9.88093E-01  1.01319E+00 -2.50963E-02
    9077.156     82.169   4.840  9.86981E-01  1.01362E+00 -2.66414E-02
    9078.638     83.650   4.880  9.82285E-01  1.01403E+00 -3.17501E-02
    9080.131     85.144   4.920  9.75374E-01  1.01436E+00 -3.89849E-02
    9081.637     86.649   4.960  9.68123E-01  1.01466E+00 -4.65354E-02
    9083.155     88.167   5.000  9.61909E-01  1.01491E+00 -5.30045E-02
    9084.685     89.697   5.040  9.57479E-01  1.01510E+00 -5.76216E-02
    9086.227     91.240   5.080  9.55118E-01  1.01524E+00 -6.01226E-02
    9087.781     92.794   5.120  9.54720E-01  1.01534E+00 -6.06161E-02
    9089.348     94.361   5.160  9.56001E-01  1.01538E+00 -5.93824E-02
    9090.927     95.940   5.200  9.58787E-01  1.01536E+00 -5.65752E-02
    9092.518     97.531   5.240  9.63245E-01  1.01529E+00 -5.20484E-02
    9094.121     99.134   5.280  9.69721E-01  1.01518E+00 -4.54564E-02
    9095.737    100.749   5.320  9.78341E-01  1.01500E+00 -3.66542E-02
    9097.364    102.377   5.360  9.88614E-01  1.01479E+00 -2.61758E-02
    9099.004    104.017   5.400  9.99174E-01  1.01452E+00 -1.53462E-02
    9100.656    105.669   5.440  1.00865E+00  1.01421E+00 -5.55872E-03
    9102.320    107.333   5.480  1.01632E+00  1.01387E+00  2.44733E-03
    9103.997    109.009   5.520  1.02207E+00  1.01348E+00  8.58965E-03
    9105.685    110.698   5.560  1.02624E+00  1.01304E+00  1.32047E-02
    9107.386    112.399   5.600  1.02978E+00  1.01256E+00  1.72227E-02
    9109.099    114.112   5.640  1.03405E+00  1.01204E+00  2.20091E-02
    9110.824    115.837   5.680  1.03994E+00  1.01151E+00  2.84354E-02
    9112.562    117.574   5.720  1.04688E+00  1.01094E+00  3.59413E-02
    9114.311    119.324   5.760  1.05289E+00  1.01034E+00  4.25458E-02
    9116.073    121.086   5.800  1.05560E+00  1.00971E+00  4.58905E-02
    9117.847    122.859   5.840  1.05376E+00  1.00907E+00  4.46917E-02
    9119.633    124.646   5.880  1.04799E+00  1.00843E+00  3.95633E-02
    9121.431    126.444   5.920  1.04021E+00  1.00776E+00  3.24446E-02
    9123.242    128.254   5.960  1.03226E+00  1.00708E+00  2.51763E-02
    9125.064    130.077   6.000  1.02463E+00  1.00641E+00  1.82164E-02
