# # comment:                                                     FEFF 9.9.1  
# # Source:
# # Structure
# # Reduced
# # space
# # abc:
# # angles:
# # sites:
# # POT  SCF 100  7.0000   0, screened core-hole, AFOLP (folp(0)= 1.150)
# # Abs   Z=29 Rmt= 1.263 Rnm= 1.331 K  shell
# # Pot 1 Z= 3 Rmt= 1.311 Rnm= 1.383
# # Pot 2 Z=29 Rmt= 1.260 Rnm= 1.328
# # Pot 3 Z=15 Rmt= 0.942 Rnm= 1.155
# # Pot 4 Z= 8 Rmt= 0.917 Rnm= 1.043
# # Gam_ch=1.729E+00 H-L exch Vi= 0.000E+00 Vr= 0.000E+00
# # Mu=-6.951E+00eV kf=2.406E+00 Vint=-1.737E+01eV Rs_int= 1.507
# FMS rfms= 9.0000
# # PATH  Rmax=-1.000,  Keep_limit= 0.00, Heap_limit 0.00  Pwcrit= 2.50%
#  S02=0.950  Temp=   0.00  Debye_temp=   0.00  Global_sig2= 0.00000
#  Energy zero shift, vr, vi    0.00000E+00   0.00000E+00
#  Curved wave amplitude ratio filter   4.000%
#     file         sig2 tot  cw amp ratio   deg  nlegs   reff  inp sig2
#     0/   0 paths used
#  xsedge+ 50, used to normalize mu           2.4825E-04
#  -----------------------------------------------------------------------
#  omega    e    k    mu    mu0     chi     @#
    8983.494    -10.761  -1.000  4.11545E-02  5.28763E-02 -1.17219E-02
    8983.792    -10.462  -0.960  4.35610E-02  5.67228E-02 -1.31619E-02
    8984.079    -10.176  -0.920  4.61854E-02  6.09998E-02 -1.48144E-02
    8984.353     -9.901  -0.880  4.90560E-02  6.57709E-02 -1.67149E-02
    8984.615     -9.639  -0.840  5.22054E-02  7.11107E-02 -1.89052E-02
    8984.865     -9.389  -0.800  5.56710E-02  7.71052E-02 -2.14342E-02
    8985.103     -9.152  -0.760  5.94951E-02  8.38535E-02 -2.43584E-02
    8985.329     -8.926  -0.720  6.37250E-02  9.14677E-02 -2.77426E-02
    8985.542     -8.713  -0.680  6.84121E-02  1.00071E-01 -3.16589E-02
    8985.743     -8.512  -0.640  7.36098E-02  1.09794E-01 -3.61840E-02
    8985.932     -8.323  -0.600  7.93701E-02  1.20765E-01 -4.13945E-02
    8986.109     -8.146  -0.560  8.57364E-02  1.33093E-01 -4.73564E-02
    8986.273     -7.981  -0.520  9.27339E-02  1.46844E-01 -5.41099E-02
    8986.426     -7.829  -0.480  1.00356E-01  1.62004E-01 -6.16482E-02
    8986.566     -7.689  -0.440  1.08548E-01  1.78440E-01 -6.98924E-02
    8986.694     -7.561  -0.400  1.17192E-01  1.95864E-01 -7.86722E-02
    8986.810     -7.445  -0.360  1.26102E-01  2.13825E-01 -8.77221E-02
    8986.914     -7.341  -0.320  1.35029E-01  2.31733E-01 -9.67047E-02
    8987.005     -7.250  -0.280  1.43680E-01  2.48939E-01 -1.05258E-01
    8987.084     -7.170  -0.240  1.51760E-01  2.64815E-01 -1.13055E-01
    8987.151     -7.103  -0.200  1.58996E-01  2.78840E-01 -1.19843E-01
    8987.206     -7.049  -0.160  1.65168E-01  2.90631E-01 -1.25463E-01
    8987.249     -7.006  -0.120  1.70114E-01  2.99948E-01 -1.29834E-01
    8987.279     -6.975  -0.080  1.73727E-01  3.06656E-01 -1.32929E-01
    8987.304     -6.951   0.000  1.76699E-01  3.12044E-01 -1.35344E-01
    8987.359     -6.896   0.120  1.83199E-01  3.24192E-01 -1.40993E-01
    8987.401     -6.854   0.160  1.88265E-01  3.33616E-01 -1.45351E-01
    8987.456     -6.799   0.200  1.94793E-01  3.45655E-01 -1.50862E-01
    8987.523     -6.732   0.240  2.02714E-01  3.60117E-01 -1.57403E-01
    8987.602     -6.652   0.280  2.11870E-01  3.76680E-01 -1.64810E-01
    8987.694     -6.561   0.320  2.22039E-01  3.94924E-01 -1.72885E-01
    8987.797     -6.457   0.360  2.32878E-01  4.14308E-01 -1.81429E-01
    8987.913     -6.341   0.400  2.43949E-01  4.34233E-01 -1.90283E-01
    8988.041     -6.213   0.440  2.54904E-01  4.54174E-01 -1.99270E-01
    8988.181     -6.073   0.480  2.65651E-01  4.73728E-01 -2.08076E-01
    8988.334     -5.921   0.520  2.76528E-01  4.92617E-01 -2.16089E-01
    8988.498     -5.756   0.560  2.88287E-01  5.10723E-01 -2.22436E-01
    8988.675     -5.579   0.600  3.01852E-01  5.28017E-01 -2.26165E-01
    8988.864     -5.390   0.640  3.17833E-01  5.44581E-01 -2.26747E-01
    8989.065     -5.189   0.680  3.35808E-01  5.60452E-01 -2.24644E-01
    8989.279     -4.976   0.720  3.54222E-01  5.75783E-01 -2.21562E-01
    8989.504     -4.750   0.760  3.70687E-01  5.90645E-01 -2.19958E-01
    8989.742     -4.513   0.800  3.83277E-01  6.05142E-01 -2.21866E-01
    8989.992     -4.263   0.840  3.91613E-01  6.19345E-01 -2.27732E-01
    8990.254     -4.001   0.880  3.97112E-01  6.33310E-01 -2.36198E-01
    8990.528     -3.726   0.920  4.02533E-01  6.47098E-01 -2.44565E-01
    8990.815     -3.440   0.960  4.10761E-01  6.60743E-01 -2.49982E-01
    8991.114     -3.141   1.000  4.23635E-01  6.74264E-01 -2.50629E-01
    8991.425     -2.830   1.040  4.41194E-01  6.87673E-01 -2.46479E-01
    8991.748     -2.507   1.080  4.62005E-01  7.00992E-01 -2.38987E-01
    8992.083     -2.172   1.120  4.84314E-01  7.14199E-01 -2.29885E-01
    8992.430     -1.824   1.160  5.07949E-01  7.27327E-01 -2.19377E-01
    8992.790     -1.465   1.200  5.34724E-01  7.40321E-01 -2.05597E-01
    8993.162     -1.093   1.240  5.66315E-01  7.53185E-01 -1.86870E-01
    8993.546     -0.709   1.280  6.00911E-01  7.65920E-01 -1.65009E-01
    8993.942     -0.313   1.320  6.35150E-01  7.78484E-01 -1.43334E-01
    8994.351      0.096   1.360  6.69558E-01  7.90873E-01 -1.21315E-01
    8994.771      0.517   1.400  7.07792E-01  8.03062E-01 -9.52697E-02
    8995.204      0.949   1.440  7.52327E-01  8.15004E-01 -6.26765E-02
    8995.649      1.394   1.480  8.04109E-01  8.26733E-01 -2.26239E-02
    8996.106      1.852   1.520  8.61976E-01  8.38162E-01  2.38141E-02
    8996.576      2.321   1.560  9.22243E-01  8.49323E-01  7.29199E-02
    8997.057      2.803   1.600  9.82116E-01  8.60189E-01  1.21927E-01
    8997.551      3.296   1.640  1.04317E+00  8.70713E-01  1.72453E-01
    8998.057      3.802   1.680  1.10475E+00  8.80887E-01  2.23865E-01
    8998.575      4.320   1.720  1.15498E+00  8.90706E-01  2.64269E-01
    8999.105      4.851   1.760  1.17955E+00  9.00166E-01  2.79385E-01
    8999.648      5.393   1.800  1.18542E+00  9.09219E-01  2.76203E-01
    9000.203      5.948   1.840  1.18588E+00  9.17902E-01  2.67974E-01
    9000.770      6.515   1.880  1.18143E+00  9.26153E-01  2.55275E-01
    9001.349      7.094   1.920  1.17250E+00  9.34010E-01  2.38492E-01
    9001.940      7.685   1.960  1.16026E+00  9.41469E-01  2.18790E-01
    9002.544      8.289   2.000  1.14679E+00  9.48491E-01  1.98295E-01
    9003.159      8.905   2.040  1.13769E+00  9.55097E-01  1.82591E-01
    9003.787      9.532   2.080  1.13417E+00  9.61286E-01  1.72885E-01
    9004.427     10.173   2.120  1.13360E+00  9.67061E-01  1.66535E-01
    9005.080     10.825   2.160  1.13391E+00  9.72425E-01  1.61484E-01
    9005.744     11.489   2.200  1.13644E+00  9.77402E-01  1.59041E-01
    9006.421     12.166   2.240  1.14483E+00  9.81956E-01  1.62878E-01
    9007.109     12.855   2.280  1.15995E+00  9.86149E-01  1.73797E-01
    9007.811     13.556   2.320  1.17789E+00  9.89949E-01  1.87946E-01
    9008.524     14.269   2.360  1.19105E+00  9.93381E-01  1.97674E-01
    9009.249     14.994   2.400  1.19159E+00  9.96471E-01  1.95122E-01
    9009.987     15.732   2.440  1.17816E+00  9.99208E-01  1.78952E-01
    9010.737     16.482   2.480  1.15568E+00  1.00164E+00  1.54040E-01
    9011.499     17.244   2.520  1.12817E+00  1.00372E+00  1.24446E-01
    9012.273     18.018   2.560  1.09788E+00  1.00554E+00  9.23458E-02
    9013.059     18.804   2.600  1.06705E+00  1.00705E+00  6.00079E-02
    9013.858     19.603   2.640  1.03724E+00  1.00830E+00  2.89426E-02
    9014.669     20.414   2.680  1.00775E+00  1.00930E+00 -1.55134E-03
    9015.491     21.237   2.720  9.78056E-01  1.01006E+00 -3.20022E-02
    9016.327     22.072   2.760  9.51097E-01  1.01060E+00 -5.95069E-02
    9017.174     22.919   2.800  9.35879E-01  1.01092E+00 -7.50435E-02
    9018.033     23.779   2.840  9.32506E-01  1.01106E+00 -7.85565E-02
    9018.905     24.650   2.880  9.31984E-01  1.01101E+00 -7.90268E-02
    9019.789     25.534   2.920  9.29996E-01  1.01082E+00 -8.08210E-02
    9020.685     26.431   2.960  9.25428E-01  1.01047E+00 -8.50408E-02
    9021.594     27.339   3.000  9.18645E-01  1.00999E+00 -9.13442E-02
    9022.514     28.259   3.040  9.10319E-01  1.00937E+00 -9.90492E-02
    9023.447     29.192   3.080  9.01148E-01  1.00867E+00 -1.07525E-01
    9024.392     30.137   3.120  8.91917E-01  1.00787E+00 -1.15951E-01
    9025.349     31.094   3.160  8.83584E-01  1.00698E+00 -1.23395E-01
    9026.318     32.063   3.200  8.76878E-01  1.00601E+00 -1.29135E-01
    9027.299     33.045   3.240  8.72292E-01  1.00500E+00 -1.32705E-01
    9028.293     34.038   3.280  8.70155E-01  1.00391E+00 -1.33758E-01
    9029.299     35.044   3.320  8.70356E-01  1.00281E+00 -1.32453E-01
    9030.317     36.062   3.360  8.72745E-01  1.00167E+00 -1.28926E-01
    9031.347     37.092   3.400  8.77303E-01  1.00052E+00 -1.23221E-01
    9032.390     38.135   3.440  8.84012E-01  9.99371E-01 -1.15359E-01
    9033.444     39.189   3.480  8.92814E-01  9.98193E-01 -1.05379E-01
    9034.511     40.256   3.520  9.03694E-01  9.97037E-01 -9.33424E-02
    9035.590     41.335   3.560  9.16474E-01  9.95885E-01 -7.94110E-02
    9036.681     42.426   3.600  9.30650E-01  9.94741E-01 -6.40913E-02
    9037.784     43.530   3.640  9.45786E-01  9.93650E-01 -4.78637E-02
    9038.900     44.645   3.680  9.61338E-01  9.92551E-01 -3.12133E-02
    9040.028     45.773   3.720  9.76840E-01  9.91509E-01 -1.46694E-02
    9041.168     46.913   3.760  9.91749E-01  9.90507E-01  1.24178E-03
    9042.320     48.065   3.800  1.00558E+00  9.89546E-01  1.60318E-02
    9043.484     49.229   3.840  1.01777E+00  9.88627E-01  2.91453E-02
    9044.661     50.406   3.880  1.02790E+00  9.87773E-01  4.01231E-02
    9045.849     51.595   3.920  1.03574E+00  9.86943E-01  4.87970E-02
    9047.050     52.796   3.960  1.04153E+00  9.86180E-01  5.53514E-02
    9048.263     54.009   4.000  1.04568E+00  9.85487E-01  6.01902E-02
    9049.489     55.234   4.040  1.04878E+00  9.84845E-01  6.39348E-02
    9050.726     56.471   4.080  1.05140E+00  9.84271E-01  6.71268E-02
    9051.976     57.721   4.120  1.05383E+00  9.83746E-01  7.00885E-02
    9053.238     58.983   4.160  1.05618E+00  9.83291E-01  7.28858E-02
    9054.512     60.257   4.200  1.05826E+00  9.82887E-01  7.53704E-02
    9055.798     61.543   4.240  1.05973E+00  9.82551E-01  7.71774E-02
    9057.096     62.842   4.280  1.06012E+00  9.82265E-01  7.78556E-02
    9058.407     64.152   4.320  1.05920E+00  9.82050E-01  7.71453E-02
    9059.730     65.475   4.360  1.05684E+00  9.81884E-01  7.49525E-02
    9061.065     66.810   4.400  1.05315E+00  9.81785E-01  7.13628E-02
    9062.412     68.157   4.440  1.04836E+00  9.81736E-01  6.66228E-02
    9063.772     69.517   4.480  1.04278E+00  9.81755E-01  6.10253E-02
    9065.143     70.888   4.520  1.03665E+00  9.81819E-01  5.48314E-02
    9066.527     72.272   4.560  1.03017E+00  9.81926E-01  4.82394E-02
    9067.923     73.668   4.600  1.02339E+00  9.82077E-01  4.13097E-02
    9069.331     75.076   4.640  1.01618E+00  9.82293E-01  3.38835E-02
    9070.751     76.497   4.680  1.00830E+00  9.82550E-01  2.57552E-02
    9072.184     77.929   4.720  9.99710E-01  9.82824E-01  1.68861E-02
    9073.629     79.374   4.760  9.90658E-01  9.83158E-01  7.50041E-03
    9075.086     80.831   4.800  9.81621E-01  9.83508E-01 -1.88725E-03
    9076.555     82.300   4.840  9.73233E-01  9.83915E-01 -1.06819E-02
    9078.036     83.781   4.880  9.65983E-01  9.84334E-01 -1.83514E-02
    9079.530     85.275   4.920  9.60282E-01  9.84762E-01 -2.44792E-02
    9081.035     86.781   4.960  9.56379E-01  9.85218E-01 -2.88387E-02
    9082.553     88.299   5.000  9.54235E-01  9.85683E-01 -3.14473E-02
    9084.083     89.829   5.040  9.53540E-01  9.86175E-01 -3.26348E-02
    9085.626     91.371   5.080  9.53688E-01  9.86672E-01 -3.29845E-02
    9087.180     92.925   5.120  9.54087E-01  9.87171E-01 -3.30842E-02
    9088.747     94.492   5.160  9.54314E-01  9.87671E-01 -3.33570E-02
    9090.326     96.071   5.200  9.54227E-01  9.88193E-01 -3.39659E-02
    9091.917     97.662   5.240  9.53833E-01  9.88689E-01 -3.48557E-02
    9093.520     99.265   5.280  9.53359E-01  9.89157E-01 -3.57971E-02
    9095.135    100.881   5.320  9.53176E-01  9.89640E-01 -3.64634E-02
    9096.763    102.508   5.360  9.53520E-01  9.90094E-01 -3.65737E-02
    9098.403    104.148   5.400  9.54542E-01  9.90517E-01 -3.59748E-02
    9100.055    105.800   5.440  9.56247E-01  9.90953E-01 -3.47063E-02
    9101.719    107.464   5.480  9.58340E-01  9.91333E-01 -3.29938E-02
    9103.395    109.141   5.520  9.60457E-01  9.91700E-01 -3.12425E-02
    9105.084    110.829   5.560  9.62158E-01  9.92030E-01 -2.98719E-02
    9106.785    112.530   5.600  9.63270E-01  9.92322E-01 -2.90512E-02
    9108.498    114.243   5.640  9.64041E-01  9.92574E-01 -2.85324E-02
    9110.223    115.968   5.680  9.65036E-01  9.92788E-01 -2.77521E-02
    9111.960    117.706   5.720  9.66879E-01  9.92986E-01 -2.61073E-02
    9113.710    119.455   5.760  9.69875E-01  9.93120E-01 -2.32443E-02
    9115.472    121.217   5.800  9.74011E-01  9.93211E-01 -1.92001E-02
    9117.245    122.991   5.840  9.78896E-01  9.93262E-01 -1.43662E-02
    9119.032    124.777   5.880  9.83947E-01  9.93273E-01 -9.32508E-03
    9120.830    126.575   5.920  9.88585E-01  9.93241E-01 -4.65598E-03
    9122.640    128.386   5.960  9.92375E-01  9.93164E-01 -7.88816E-04
    9124.463    130.208   6.000  9.95182E-01  9.93018E-01  2.16384E-03
