# # comment:                                                     FEFF 9.9.1  
# # Source:
# # Structure
# # Reduced
# # space
# # abc:
# # angles:
# # sites:
# # POT  SCF 100  7.0000   0, screened core-hole, AFOLP (folp(0)= 1.150)
# # Abs   Z=29 Rmt= 1.297 Rnm= 1.356 K  shell
# # Pot 1 Z=29 Rmt= 1.297 Rnm= 1.356
# # Pot 2 Z= 8 Rmt= 1.073 Rnm= 1.123
# # Gam_ch=1.729E+00 H-L exch Vi= 0.000E+00 Vr= 0.000E+00
# # Mu=-7.144E+00eV kf=2.102E+00 Vint=-1.533E+01eV Rs_int= 1.725
# FMS rfms= 9.0000
# # PATH  Rmax=-1.000,  Keep_limit= 0.00, Heap_limit 0.00  Pwcrit= 2.50%
#  S02=0.950  Temp=   0.00  Debye_temp=   0.00  Global_sig2= 0.00000
#  Energy zero shift, vr, vi    0.00000E+00   0.00000E+00
#  Curved wave amplitude ratio filter   4.000%
#     file         sig2 tot  cw amp ratio   deg  nlegs   reff  inp sig2
#     0/   0 paths used
#  xsedge+ 50, used to normalize mu           2.4467E-04
#  -----------------------------------------------------------------------
#  omega    e    k    mu    mu0     chi     @#
    8983.684    -10.954  -1.000  3.53787E-02  5.65037E-02 -2.11250E-02
    8983.983    -10.655  -0.960  3.68502E-02  6.06656E-02 -2.38154E-02
    8984.269    -10.369  -0.920  3.83883E-02  6.52932E-02 -2.69049E-02
    8984.544    -10.094  -0.880  3.99963E-02  7.04550E-02 -3.04587E-02
    8984.806     -9.832  -0.840  4.16780E-02  7.62309E-02 -3.45530E-02
    8985.056     -9.582  -0.800  4.34374E-02  8.27134E-02 -3.92760E-02
    8985.294     -9.344  -0.760  4.52793E-02  9.00086E-02 -4.47292E-02
    8985.519     -9.119  -0.720  4.72088E-02  9.82361E-02 -5.10273E-02
    8985.732     -8.906  -0.680  4.92310E-02  1.07528E-01 -5.82970E-02
    8985.934     -8.704  -0.640  5.13513E-02  1.18023E-01 -6.66722E-02
    8986.123     -8.515  -0.600  5.35734E-02  1.29859E-01 -7.62857E-02
    8986.299     -8.339  -0.560  5.58991E-02  1.43152E-01 -8.72526E-02
    8986.464     -8.174  -0.520  5.83245E-02  1.57970E-01 -9.96459E-02
    8986.616     -8.022  -0.480  6.08377E-02  1.74300E-01 -1.13462E-01
    8986.757     -7.881  -0.440  6.34148E-02  1.91997E-01 -1.28582E-01
    8986.885     -7.753  -0.400  6.60168E-02  2.10753E-01 -1.44737E-01
    8987.000     -7.638  -0.360  6.85896E-02  2.30086E-01 -1.61496E-01
    8987.104     -7.534  -0.320  7.10683E-02  2.49366E-01 -1.78298E-01
    8987.195     -7.442  -0.280  7.33848E-02  2.67895E-01 -1.94510E-01
    8987.275     -7.363  -0.240  7.54778E-02  2.85000E-01 -2.09522E-01
    8987.342     -7.296  -0.200  7.72996E-02  3.00119E-01 -2.22820E-01
    8987.397     -7.241  -0.160  7.88163E-02  3.12840E-01 -2.34023E-01
    8987.439     -7.199  -0.120  8.00042E-02  3.22896E-01 -2.42892E-01
    8987.470     -7.168  -0.080  8.08475E-02  3.30142E-01 -2.49295E-01
    8987.494     -7.144   0.000  8.14986E-02  3.35964E-01 -2.54465E-01
    8987.549     -7.089   0.120  8.33229E-02  3.49101E-01 -2.65778E-01
    8987.592     -7.046   0.160  8.46694E-02  3.59299E-01 -2.74630E-01
    8987.647     -6.991   0.200  8.63938E-02  3.72334E-01 -2.85940E-01
    8987.714     -6.924   0.240  8.84342E-02  3.88012E-01 -2.99578E-01
    8987.793     -6.845   0.280  9.08021E-02  4.06045E-01 -3.15243E-01
    8987.884     -6.754   0.320  9.34240E-02  4.25941E-01 -3.32517E-01
    8987.988     -6.650   0.360  9.62706E-02  4.47139E-01 -3.50868E-01
    8988.104     -6.534   0.400  9.93746E-02  4.69059E-01 -3.69685E-01
    8988.232     -6.406   0.440  1.02707E-01  4.91092E-01 -3.88385E-01
    8988.372     -6.266   0.480  1.06410E-01  5.12833E-01 -4.06423E-01
    8988.524     -6.114   0.520  1.10548E-01  5.33990E-01 -4.23442E-01
    8988.689     -5.949   0.560  1.15298E-01  5.54416E-01 -4.39118E-01
    8988.866     -5.772   0.600  1.20847E-01  5.74073E-01 -4.53226E-01
    8989.055     -5.583   0.640  1.27431E-01  5.93018E-01 -4.65586E-01
    8989.256     -5.382   0.680  1.35315E-01  6.11302E-01 -4.75987E-01
    8989.469     -5.169   0.720  1.44867E-01  6.29014E-01 -4.84147E-01
    8989.695     -4.943   0.760  1.56453E-01  6.46239E-01 -4.89786E-01
    8989.933     -4.705   0.800  1.70398E-01  6.63052E-01 -4.92655E-01
    8990.182     -4.455   0.840  1.86994E-01  6.79494E-01 -4.92500E-01
    8990.445     -4.193   0.880  2.06739E-01  6.95634E-01 -4.88895E-01
    8990.719     -3.919   0.920  2.30731E-01  7.11483E-01 -4.80752E-01
    8991.005     -3.632   0.960  2.61314E-01  7.27062E-01 -4.65748E-01
    8991.304     -3.334   1.000  3.01688E-01  7.42362E-01 -4.40674E-01
    8991.615     -3.023   1.040  3.54366E-01  7.57381E-01 -4.03015E-01
    8991.938     -2.700   1.080  4.17328E-01  7.72116E-01 -3.54787E-01
    8992.273     -2.365   1.120  4.79325E-01  7.86532E-01 -3.07207E-01
    8992.621     -2.017   1.160  5.25159E-01  8.00632E-01 -2.75473E-01
    8992.981     -1.657   1.200  5.53597E-01  8.14356E-01 -2.60759E-01
    8993.352     -1.286   1.240  5.78127E-01  8.27700E-01 -2.49573E-01
    8993.736     -0.901   1.280  6.04656E-01  8.40641E-01 -2.35985E-01
    8994.133     -0.505   1.320  6.31167E-01  8.53153E-01 -2.21985E-01
    8994.541     -0.097   1.360  6.65483E-01  8.65189E-01 -1.99706E-01
    8994.962      0.324   1.400  7.19815E-01  8.76766E-01 -1.56952E-01
    8995.395      0.757   1.440  8.05859E-01  8.87836E-01 -8.19767E-02
    8995.840      1.202   1.480  9.44855E-01  8.98396E-01  4.64592E-02
    8996.297      1.659   1.520  1.14737E+00  9.08422E-01  2.38953E-01
    8996.766      2.128   1.560  1.35061E+00  9.17933E-01  4.32677E-01
    8997.248      2.610   1.600  1.45232E+00  9.26888E-01  5.25429E-01
    8997.741      3.104   1.640  1.45469E+00  9.35287E-01  5.19407E-01
    8998.247      3.610   1.680  1.42053E+00  9.43152E-01  4.77381E-01
    8998.766      4.128   1.720  1.42851E+00  9.50468E-01  4.78044E-01
    8999.296      4.658   1.760  1.54328E+00  9.57258E-01  5.86022E-01
    8999.839      5.201   1.800  1.78113E+00  9.63530E-01  8.17600E-01
    9000.393      5.755   1.840  2.08384E+00  9.69269E-01  1.11457E+00
    9000.960      6.322   1.880  2.22784E+00  9.74525E-01  1.25331E+00
    9001.539      6.901   1.920  2.01323E+00  9.79287E-01  1.03394E+00
    9002.131      7.493   1.960  1.67232E+00  9.83603E-01  6.88722E-01
    9002.734      8.096   2.000  1.41698E+00  9.87445E-01  4.29535E-01
    9003.350      8.712   2.040  1.22447E+00  9.90884E-01  2.33588E-01
    9003.978      9.340   2.080  1.07067E+00  9.93911E-01  7.67630E-02
    9004.618      9.980   2.120  9.65057E-01  9.96559E-01 -3.15011E-02
    9005.270     10.632   2.160  9.03393E-01  9.98838E-01 -9.54447E-02
    9005.934     11.297   2.200  8.67883E-01  1.00080E+00 -1.32918E-01
    9006.611     11.973   2.240  8.40500E-01  1.00242E+00 -1.61919E-01
    9007.300     12.662   2.280  8.15202E-01  1.00377E+00 -1.88565E-01
    9008.001     13.363   2.320  7.97108E-01  1.00486E+00 -2.07747E-01
    9008.714     14.076   2.360  7.87509E-01  1.00570E+00 -2.18186E-01
    9009.440     14.802   2.400  7.82758E-01  1.00630E+00 -2.23538E-01
    9010.177     15.539   2.440  7.83025E-01  1.00671E+00 -2.23686E-01
    9010.927     16.289   2.480  7.97964E-01  1.00693E+00 -2.08967E-01
    9011.689     17.051   2.520  8.43768E-01  1.00698E+00 -1.63216E-01
    9012.463     17.825   2.560  9.09014E-01  1.00690E+00 -9.78864E-02
    9013.250     18.612   2.600  9.73350E-01  1.00669E+00 -3.33417E-02
    9014.048     19.410   2.640  1.02029E+00  1.00637E+00  1.39201E-02
    9014.859     20.221   2.680  1.03691E+00  1.00597E+00  3.09394E-02
    9015.682     21.044   2.720  1.02005E+00  1.00547E+00  1.45730E-02
    9016.517     21.879   2.760  9.79057E-01  1.00492E+00 -2.58633E-02
    9017.364     22.726   2.800  9.27846E-01  1.00432E+00 -7.64741E-02
    9018.224     23.586   2.840  8.80982E-01  1.00366E+00 -1.22676E-01
    9019.096     24.458   2.880  8.46603E-01  1.00300E+00 -1.56399E-01
    9019.980     25.342   2.920  8.25445E-01  1.00232E+00 -1.76871E-01
    9020.876     26.238   2.960  8.15809E-01  1.00160E+00 -1.85794E-01
    9021.784     27.146   3.000  8.13537E-01  1.00091E+00 -1.87376E-01
    9022.705     28.067   3.040  8.15097E-01  1.00025E+00 -1.85151E-01
    9023.637     28.999   3.080  8.18138E-01  9.99569E-01 -1.81431E-01
    9024.582     29.944   3.120  8.21963E-01  9.98943E-01 -1.76980E-01
    9025.539     30.901   3.160  8.27713E-01  9.98334E-01 -1.70621E-01
    9026.508     31.870   3.200  8.37645E-01  9.97782E-01 -1.60137E-01
    9027.490     32.852   3.240  8.53149E-01  9.97249E-01 -1.44100E-01
    9028.483     33.846   3.280  8.73480E-01  9.96758E-01 -1.23278E-01
    9029.489     34.851   3.320  8.96598E-01  9.96330E-01 -9.97319E-02
    9030.507     35.869   3.360  9.19625E-01  9.95949E-01 -7.63241E-02
    9031.538     36.900   3.400  9.40259E-01  9.95636E-01 -5.53766E-02
    9032.580     37.942   3.440  9.57922E-01  9.95349E-01 -3.74266E-02
    9033.635     38.997   3.480  9.74074E-01  9.95150E-01 -2.10757E-02
    9034.701     40.063   3.520  9.91386E-01  9.94979E-01 -3.59337E-03
    9035.780     41.142   3.560  1.01297E+00  9.94899E-01  1.80750E-02
    9036.872     42.234   3.600  1.04091E+00  9.94846E-01  4.60632E-02
    9037.975     43.337   3.640  1.07497E+00  9.94863E-01  8.01018E-02
    9039.090     44.453   3.680  1.11197E+00  9.94950E-01  1.17022E-01
    9040.218     45.580   3.720  1.14666E+00  9.95084E-01  1.51579E-01
    9041.358     46.720   3.760  1.17369E+00  9.95265E-01  1.78425E-01
    9042.510     47.872   3.800  1.19024E+00  9.95512E-01  1.94727E-01
    9043.675     49.037   3.840  1.19732E+00  9.95803E-01  2.01516E-01
    9044.851     50.213   3.880  1.19773E+00  9.96138E-01  2.01590E-01
    9046.040     51.402   3.920  1.19370E+00  9.96514E-01  1.97185E-01
    9047.241     52.603   3.960  1.18647E+00  9.96933E-01  1.89534E-01
    9048.454     53.816   4.000  1.17698E+00  9.97412E-01  1.79569E-01
    9049.679     55.041   4.040  1.16555E+00  9.97907E-01  1.67643E-01
    9050.917     56.279   4.080  1.15145E+00  9.98440E-01  1.53010E-01
    9052.166     57.528   4.120  1.13310E+00  9.99006E-01  1.34095E-01
    9053.428     58.790   4.160  1.10943E+00  9.99584E-01  1.09845E-01
    9054.702     60.064   4.200  1.08083E+00  1.00019E+00  8.06366E-02
    9055.989     61.351   4.240  1.04933E+00  1.00083E+00  4.85014E-02
    9057.287     62.649   4.280  1.01798E+00  1.00146E+00  1.65200E-02
    9058.598     63.960   4.320  9.89656E-01  1.00213E+00 -1.24698E-02
    9059.920     65.282   4.360  9.65783E-01  1.00278E+00 -3.69947E-02
    9061.255     66.618   4.400  9.46010E-01  1.00343E+00 -5.74195E-02
    9062.603     67.965   4.440  9.28869E-01  1.00410E+00 -7.52333E-02
    9063.962     69.324   4.480  9.13137E-01  1.00475E+00 -9.16135E-02
    9065.334     70.696   4.520  8.98978E-01  1.00539E+00 -1.06416E-01
    9066.717     72.080   4.560  8.87597E-01  1.00603E+00 -1.18433E-01
    9068.113     73.475   4.600  8.80709E-01  1.00664E+00 -1.25928E-01
    9069.522     74.884   4.640  8.79873E-01  1.00723E+00 -1.27361E-01
    9070.942     76.304   4.680  8.85637E-01  1.00782E+00 -1.22185E-01
    9072.375     77.737   4.720  8.97091E-01  1.00837E+00 -1.11284E-01
    9073.819     79.181   4.760  9.12054E-01  1.00889E+00 -9.68358E-02
    9075.276     80.638   4.800  9.27764E-01  1.00937E+00 -8.16060E-02
    9076.745     82.107   4.840  9.42065E-01  1.00983E+00 -6.77675E-02
    9078.227     83.589   4.880  9.54075E-01  1.01026E+00 -5.61798E-02
    9079.720     85.082   4.920  9.63898E-01  1.01062E+00 -4.67167E-02
    9081.226     86.588   4.960  9.71956E-01  1.01096E+00 -3.89997E-02
    9082.744     88.106   5.000  9.78993E-01  1.01126E+00 -3.22635E-02
    9084.274     89.636   5.040  9.86542E-01  1.01151E+00 -2.49706E-02
    9085.816     91.178   5.080  9.96775E-01  1.01170E+00 -1.49284E-02
    9087.371     92.733   5.120  1.01119E+00  1.01187E+00 -6.84154E-04
    9088.937     94.299   5.160  1.02906E+00  1.01197E+00  1.70839E-02
    9090.516     95.878   5.200  1.04744E+00  1.01203E+00  3.54092E-02
    9092.107     97.469   5.240  1.06276E+00  1.01204E+00  5.07125E-02
    9093.710     99.072   5.280  1.07282E+00  1.01201E+00  6.08015E-02
    9095.326    100.688   5.320  1.07690E+00  1.01194E+00  6.49562E-02
    9096.953    102.316   5.360  1.07466E+00  1.01182E+00  6.28358E-02
    9098.593    103.955   5.400  1.06672E+00  1.01164E+00  5.50835E-02
    9100.245    105.607   5.440  1.05575E+00  1.01144E+00  4.43137E-02
    9101.910    107.272   5.480  1.04415E+00  1.01117E+00  3.29839E-02
    9103.586    108.948   5.520  1.03206E+00  1.01088E+00  2.11750E-02
    9105.274    110.637   5.560  1.01832E+00  1.01053E+00  7.78848E-03
    9106.975    112.337   5.600  1.00244E+00  1.01014E+00 -7.69726E-03
    9108.688    114.050   5.640  9.84492E-01  1.00973E+00 -2.52340E-02
    9110.413    115.775   5.680  9.64587E-01  1.00926E+00 -4.46684E-02
    9112.151    117.513   5.720  9.44005E-01  1.00877E+00 -6.47678E-02
    9113.900    119.262   5.760  9.26366E-01  1.00826E+00 -8.18908E-02
    9115.662    121.024   5.800  9.17230E-01  1.00773E+00 -9.05004E-02
    9117.436    122.798   5.840  9.21360E-01  1.00717E+00 -8.58118E-02
    9119.222    124.584   5.880  9.39803E-01  1.00658E+00 -6.67796E-02
    9121.020    126.382   5.920  9.68675E-01  1.00597E+00 -3.72908E-02
    9122.831    128.193   5.960  1.00060E+00  1.00535E+00 -4.75428E-03
    9124.654    130.016   6.000  1.02865E+00  1.00473E+00  2.39247E-02
