# # comment:                                                     FEFF 9.9.1  
# # Source:
# # Structure
# # Reduced
# # space
# # abc:
# # angles:
# # sites:
# # POT  SCF 100  7.0000   0, screened core-hole, AFOLP (folp(0)= 1.150)
# # Abs   Z=29 Rmt= 1.232 Rnm= 1.321 K  shell
# # Pot 1 Z=23 Rmt= 1.101 Rnm= 1.313
# # Pot 2 Z=29 Rmt= 1.232 Rnm= 1.321
# # Pot 3 Z= 8 Rmt= 0.935 Rnm= 1.093
# # Gam_ch=1.729E+00 H-L exch Vi= 0.000E+00 Vr= 0.000E+00
# # Mu=-8.901E+00eV kf=2.249E+00 Vint=-1.730E+01eV Rs_int= 1.612
# FMS rfms= 9.0000
# # PATH  Rmax=-1.000,  Keep_limit= 0.00, Heap_limit 0.00  Pwcrit= 2.50%
#  S02=0.950  Temp=   0.00  Debye_temp=   0.00  Global_sig2= 0.00000
#  Energy zero shift, vr, vi    0.00000E+00   0.00000E+00
#  Curved wave amplitude ratio filter   4.000%
#     file         sig2 tot  cw amp ratio   deg  nlegs   reff  inp sig2
#     0/   0 paths used
#  xsedge+ 50, used to normalize mu           2.4777E-04
#  -----------------------------------------------------------------------
#  omega    e    k    mu    mu0     chi     @#
    8984.062    -12.711  -1.000  3.61691E-02  5.02234E-02 -1.40544E-02
    8984.361    -12.412  -0.960  3.80821E-02  5.37776E-02 -1.56955E-02
    8984.648    -12.126  -0.920  4.01523E-02  5.77198E-02 -1.75675E-02
    8984.922    -11.852  -0.880  4.23995E-02  6.21065E-02 -1.97070E-02
    8985.184    -11.590  -0.840  4.48467E-02  6.70035E-02 -2.21568E-02
    8985.434    -11.340  -0.800  4.75201E-02  7.24869E-02 -2.49668E-02
    8985.672    -11.102  -0.760  5.04502E-02  7.86440E-02 -2.81939E-02
    8985.897    -10.876  -0.720  5.36706E-02  8.55735E-02 -3.19029E-02
    8986.111    -10.663  -0.680  5.72185E-02  9.33836E-02 -3.61651E-02
    8986.312    -10.462  -0.640  6.11327E-02  1.02189E-01 -4.10562E-02
    8986.501    -10.273  -0.600  6.54508E-02  1.12101E-01 -4.66505E-02
    8986.678    -10.096  -0.560  7.02044E-02  1.23216E-01 -5.30121E-02
    8986.842     -9.931  -0.520  7.54111E-02  1.35591E-01 -6.01795E-02
    8986.995     -9.779  -0.480  8.10641E-02  1.49210E-01 -6.81460E-02
    8987.135     -9.639  -0.440  8.71198E-02  1.63956E-01 -7.68358E-02
    8987.263     -9.511  -0.400  9.34868E-02  1.79572E-01 -8.60851E-02
    8987.379     -9.395  -0.360  1.00022E-01  1.95659E-01 -9.56373E-02
    8987.482     -9.291  -0.320  1.06535E-01  2.11696E-01 -1.05162E-01
    8987.574     -9.200  -0.280  1.12810E-01  2.27106E-01 -1.14296E-01
    8987.653     -9.121  -0.240  1.18633E-01  2.41333E-01 -1.22700E-01
    8987.720     -9.054  -0.200  1.23813E-01  2.53909E-01 -1.30096E-01
    8987.775     -8.999  -0.160  1.28205E-01  2.64492E-01 -1.36287E-01
    8987.818     -8.956  -0.120  1.31707E-01  2.72862E-01 -1.41154E-01
    8987.848     -8.926  -0.080  1.34258E-01  2.78893E-01 -1.44635E-01
    8987.872     -8.901   0.000  1.36349E-01  2.83741E-01 -1.47392E-01
    8987.927     -8.846   0.120  1.40846E-01  2.94661E-01 -1.53814E-01
    8987.970     -8.804   0.160  1.44348E-01  3.03163E-01 -1.58815E-01
    8988.025     -8.749   0.200  1.48850E-01  3.14039E-01 -1.65188E-01
    8988.092     -8.682   0.240  1.54279E-01  3.27128E-01 -1.72849E-01
    8988.171     -8.602   0.280  1.60543E-01  3.42180E-01 -1.81637E-01
    8988.263     -8.511   0.320  1.67518E-01  3.58826E-01 -1.91308E-01
    8988.366     -8.407   0.360  1.75017E-01  3.76588E-01 -2.01571E-01
    8988.482     -8.292   0.400  1.82901E-01  3.94997E-01 -2.12095E-01
    8988.610     -8.164   0.440  1.91072E-01  4.13605E-01 -2.22532E-01
    8988.750     -8.023   0.480  1.99471E-01  4.32026E-01 -2.32555E-01
    8988.903     -7.871   0.520  2.08170E-01  4.50042E-01 -2.41873E-01
    8989.067     -7.706   0.560  2.17278E-01  4.67573E-01 -2.50295E-01
    8989.244     -7.530   0.600  2.26770E-01  4.84568E-01 -2.57798E-01
    8989.433     -7.341   0.640  2.36406E-01  5.01077E-01 -2.64671E-01
    8989.634     -7.139   0.680  2.45555E-01  5.17185E-01 -2.71630E-01
    8989.847     -6.926   0.720  2.53148E-01  5.32943E-01 -2.79795E-01
    8990.073     -6.701   0.760  2.58153E-01  5.48441E-01 -2.90288E-01
    8990.311     -6.463   0.800  2.60268E-01  5.63744E-01 -3.03476E-01
    8990.561     -6.213   0.840  2.60718E-01  5.78924E-01 -3.18206E-01
    8990.823     -5.951   0.880  2.62238E-01  5.94021E-01 -3.31783E-01
    8991.097     -5.676   0.920  2.68234E-01  6.09041E-01 -3.40806E-01
    8991.384     -5.390   0.960  2.81828E-01  6.24021E-01 -3.42193E-01
    8991.682     -5.091   1.000  3.05261E-01  6.38951E-01 -3.33690E-01
    8991.993     -4.780   1.040  3.39746E-01  6.53867E-01 -3.14122E-01
    8992.316     -4.457   1.080  3.84661E-01  6.68724E-01 -2.84063E-01
    8992.652     -4.122   1.120  4.36956E-01  6.83527E-01 -2.46571E-01
    8992.999     -3.774   1.160  4.92259E-01  6.98240E-01 -2.05981E-01
    8993.359     -3.415   1.200  5.47328E-01  7.12862E-01 -1.65534E-01
    8993.731     -3.043   1.240  6.00151E-01  7.27365E-01 -1.27214E-01
    8994.115     -2.659   1.280  6.46031E-01  7.41704E-01 -9.56736E-02
    8994.511     -2.263   1.320  6.78852E-01  7.55851E-01 -7.69990E-02
    8994.919     -1.854   1.360  6.98138E-01  7.69796E-01 -7.16577E-02
    8995.340     -1.434   1.400  7.04857E-01  7.83485E-01 -7.86284E-02
    8995.773     -1.001   1.440  7.04091E-01  7.96910E-01 -9.28194E-02
    8996.218     -0.556   1.480  7.07311E-01  8.10018E-01 -1.02707E-01
    8996.675     -0.099   1.520  7.22020E-01  8.22798E-01 -1.00779E-01
    8997.144      0.371   1.560  7.47351E-01  8.35221E-01 -8.78699E-02
    8997.626      0.852   1.600  7.79910E-01  8.47276E-01 -6.73662E-02
    8998.120      1.346   1.640  8.21196E-01  8.58913E-01 -3.77166E-02
    8998.626      1.852   1.680  8.75834E-01  8.70124E-01  5.70935E-03
    8999.144      2.370   1.720  9.44654E-01  8.80903E-01  6.37505E-02
    8999.674      2.901   1.760  1.01767E+00  8.91223E-01  1.26447E-01
    9000.217      3.443   1.800  1.08236E+00  9.01100E-01  1.81257E-01
    9000.771      3.998   1.840  1.13554E+00  9.10490E-01  2.25053E-01
    9001.338      4.565   1.880  1.18261E+00  9.19390E-01  2.63216E-01
    9001.918      5.144   1.920  1.22938E+00  9.27819E-01  3.01561E-01
    9002.509      5.735   1.960  1.27312E+00  9.35757E-01  3.37361E-01
    9003.112      6.339   2.000  1.30738E+00  9.43205E-01  3.64176E-01
    9003.728      6.954   2.040  1.33181E+00  9.50188E-01  3.81620E-01
    9004.356      7.582   2.080  1.34116E+00  9.56686E-01  3.84476E-01
    9004.996      8.222   2.120  1.32736E+00  9.62725E-01  3.64638E-01
    9005.648      8.875   2.160  1.28844E+00  9.68309E-01  3.20133E-01
    9006.313      9.539   2.200  1.23132E+00  9.73444E-01  2.57880E-01
    9006.989     10.216   2.240  1.16699E+00  9.78136E-01  1.88857E-01
    9007.678     10.905   2.280  1.10003E+00  9.82413E-01  1.17618E-01
    9008.379     11.606   2.320  1.03774E+00  9.86285E-01  5.14531E-02
    9009.092     12.319   2.360  9.93068E-01  9.89776E-01  3.29220E-03
    9009.818     13.044   2.400  9.71788E-01  9.92896E-01 -2.11085E-02
    9010.556     13.782   2.440  9.69369E-01  9.95636E-01 -2.62667E-02
    9011.305     14.532   2.480  9.81100E-01  9.98061E-01 -1.69613E-02
    9012.067     15.294   2.520  1.00468E+00  1.00016E+00  4.51584E-03
    9012.842     16.068   2.560  1.03402E+00  1.00195E+00  3.20737E-02
    9013.628     16.854   2.600  1.05786E+00  1.00347E+00  5.43882E-02
    9014.426     17.653   2.640  1.06543E+00  1.00472E+00  6.07072E-02
    9015.237     18.464   2.680  1.05691E+00  1.00572E+00  5.11873E-02
    9016.060     19.287   2.720  1.04622E+00  1.00648E+00  3.97408E-02
    9016.895     20.122   2.760  1.03430E+00  1.00705E+00  2.72493E-02
    9017.743     20.969   2.800  1.02032E+00  1.00741E+00  1.29111E-02
    9018.602     21.829   2.840  1.00533E+00  1.00758E+00 -2.25500E-03
    9019.474     22.700   2.880  9.90926E-01  1.00760E+00 -1.66725E-02
    9020.358     23.584   2.920  9.77552E-01  1.00746E+00 -2.99041E-02
    9021.254     24.480   2.960  9.65243E-01  1.00719E+00 -4.19434E-02
    9022.162     25.389   3.000  9.53897E-01  1.00681E+00 -5.29174E-02
    9023.083     26.309   3.040  9.43280E-01  1.00631E+00 -6.30273E-02
    9024.015     27.242   3.080  9.33442E-01  1.00573E+00 -7.22900E-02
    9024.960     28.187   3.120  9.24239E-01  1.00506E+00 -8.08165E-02
    9025.917     29.144   3.160  9.15827E-01  1.00432E+00 -8.84969E-02
    9026.887     30.113   3.200  9.08820E-01  1.00354E+00 -9.47214E-02
    9027.868     31.095   3.240  9.03800E-01  1.00270E+00 -9.88956E-02
    9028.862     32.088   3.280  9.01030E-01  1.00183E+00 -1.00800E-01
    9029.868     33.094   3.320  9.00447E-01  1.00093E+00 -1.00482E-01
    9030.886     34.112   3.360  9.01894E-01  9.99997E-01 -9.81028E-02
    9031.916     35.142   3.400  9.04972E-01  9.99079E-01 -9.41073E-02
    9032.958     36.185   3.440  9.09192E-01  9.98138E-01 -8.89462E-02
    9034.013     37.239   3.480  9.14156E-01  9.97198E-01 -8.30420E-02
    9035.080     38.306   3.520  9.19415E-01  9.96282E-01 -7.68671E-02
    9036.159     39.385   3.560  9.24511E-01  9.95374E-01 -7.08629E-02
    9037.250     40.476   3.600  9.29177E-01  9.94496E-01 -6.53190E-02
    9038.353     41.580   3.640  9.33364E-01  9.93630E-01 -6.02667E-02
    9039.469     42.695   3.680  9.37351E-01  9.92820E-01 -5.54695E-02
    9040.596     43.823   3.720  9.41504E-01  9.92026E-01 -5.05218E-02
    9041.736     44.963   3.760  9.46296E-01  9.91268E-01 -4.49726E-02
    9042.889     46.115   3.800  9.52042E-01  9.90550E-01 -3.85082E-02
    9044.053     47.279   3.840  9.58914E-01  9.89873E-01 -3.09593E-02
    9045.229     48.456   3.880  9.67023E-01  9.89238E-01 -2.22153E-02
    9046.418     49.645   3.920  9.76412E-01  9.88668E-01 -1.22551E-02
    9047.619     50.845   3.960  9.86912E-01  9.88141E-01 -1.22851E-03
    9048.832     52.059   4.000  9.98172E-01  9.87659E-01  1.05132E-02
    9050.057     53.284   4.040  1.00984E+00  9.87219E-01  2.26201E-02
    9051.295     54.521   4.080  1.02149E+00  9.86845E-01  3.46474E-02
    9052.545     55.771   4.120  1.03263E+00  9.86517E-01  4.61147E-02
    9053.806     57.033   4.160  1.04281E+00  9.86233E-01  5.65811E-02
    9055.081     58.307   4.200  1.05155E+00  9.85993E-01  6.55530E-02
    9056.367     59.593   4.240  1.05824E+00  9.85819E-01  7.24175E-02
    9057.665     60.892   4.280  1.06229E+00  9.85689E-01  7.65991E-02
    9058.976     62.202   4.320  1.06339E+00  9.85603E-01  7.77868E-02
    9060.299     63.525   4.360  1.06181E+00  9.85580E-01  7.62305E-02
    9061.634     64.860   4.400  1.05838E+00  9.85578E-01  7.28053E-02
    9062.981     66.207   4.440  1.05437E+00  9.85637E-01  6.87370E-02
    9064.340     67.567   4.480  1.05073E+00  9.85715E-01  6.50110E-02
    9065.712     68.938   4.520  1.04795E+00  9.85854E-01  6.21009E-02
    9067.096     70.322   4.560  1.04595E+00  9.86009E-01  5.99442E-02
    9068.492     71.718   4.600  1.04425E+00  9.86222E-01  5.80276E-02
    9069.900     73.126   4.640  1.04212E+00  9.86450E-01  5.56680E-02
    9071.320     74.547   4.680  1.03902E+00  9.86711E-01  5.23085E-02
    9072.753     75.979   4.720  1.03456E+00  9.86983E-01  4.75738E-02
    9074.197     77.424   4.760  1.02863E+00  9.87286E-01  4.13429E-02
    9075.654     78.881   4.800  1.02139E+00  9.87622E-01  3.37636E-02
    9077.124     80.350   4.840  1.01314E+00  9.87964E-01  2.51752E-02
    9078.605     81.831   4.880  1.00437E+00  9.88312E-01  1.60593E-02
    9080.098     83.325   4.920  9.95631E-01  9.88687E-01  6.94356E-03
    9081.604     84.831   4.960  9.87374E-01  9.89068E-01 -1.69431E-03
    9083.122     86.348   5.000  9.79973E-01  9.89451E-01 -9.47862E-03
    9084.652     87.879   5.040  9.73629E-01  9.89856E-01 -1.62273E-02
    9086.194     89.421   5.080  9.68282E-01  9.90239E-01 -2.19566E-02
    9087.749     90.975   5.120  9.63785E-01  9.90619E-01 -2.68342E-02
    9089.316     92.542   5.160  9.59934E-01  9.90996E-01 -3.10622E-02
    9090.894     94.121   5.200  9.56669E-01  9.91371E-01 -3.47021E-02
    9092.485     95.712   5.240  9.54120E-01  9.91738E-01 -3.76180E-02
    9094.089     97.315   5.280  9.52532E-01  9.92078E-01 -3.95452E-02
    9095.704     98.931   5.320  9.52073E-01  9.92408E-01 -4.03349E-02
    9097.332    100.558   5.360  9.52568E-01  9.92707E-01 -4.01388E-02
    9098.972    102.198   5.400  9.53461E-01  9.92996E-01 -3.95351E-02
    9100.624    103.850   5.440  9.53948E-01  9.93252E-01 -3.93048E-02
    9102.288    105.514   5.480  9.53412E-01  9.93499E-01 -4.00864E-02
    9103.964    107.191   5.520  9.51616E-01  9.93711E-01 -4.20952E-02
    9105.653    108.879   5.560  9.48748E-01  9.93910E-01 -4.51626E-02
    9107.353    110.580   5.600  9.45256E-01  9.94051E-01 -4.87955E-02
    9109.066    112.293   5.640  9.41872E-01  9.94177E-01 -5.23047E-02
    9110.792    114.018   5.680  9.39406E-01  9.94266E-01 -5.48600E-02
    9112.529    115.755   5.720  9.38688E-01  9.94318E-01 -5.56305E-02
    9114.279    117.505   5.760  9.40423E-01  9.94356E-01 -5.39331E-02
    9116.040    119.267   5.800  9.44934E-01  9.94335E-01 -4.94002E-02
    9117.814    121.041   5.840  9.52230E-01  9.94298E-01 -4.20679E-02
    9119.600    122.827   5.880  9.61864E-01  9.94222E-01 -3.23581E-02
    9121.399    124.625   5.920  9.73128E-01  9.94085E-01 -2.09573E-02
    9123.209    126.436   5.960  9.85183E-01  9.93932E-01 -8.74927E-03
    9125.032    128.258   6.000  9.97185E-01  9.93722E-01  3.46313E-03
