# # comment:                                                     FEFF 9.9.1  
# # Source:
# # Structure
# # Reduced
# # space
# # abc:
# # angles:
# # sites:
# # POT  SCF 100  7.0000   0, screened core-hole, AFOLP (folp(0)= 1.150)
# # Abs   Z=29 Rmt= 1.138 Rnm= 1.266 K  shell
# # Pot 1 Z=12 Rmt= 1.368 Rnm= 1.460
# # Pot 2 Z=29 Rmt= 1.153 Rnm= 1.278
# # Pot 3 Z=50 Rmt= 1.348 Rnm= 1.512
# # Pot 4 Z= 8 Rmt= 0.983 Rnm= 1.114
# # Gam_ch=1.729E+00 H-L exch Vi= 0.000E+00 Vr= 0.000E+00
# # Mu=-7.093E+00eV kf=2.137E+00 Vint=-1.495E+01eV Rs_int= 1.697
# FMS rfms= 9.0000
# # PATH  Rmax=-1.000,  Keep_limit= 0.00, Heap_limit 0.00  Pwcrit= 2.50%
#  S02=0.950  Temp=   0.00  Debye_temp=   0.00  Global_sig2= 0.00000
#  Energy zero shift, vr, vi    0.00000E+00   0.00000E+00
#  Curved wave amplitude ratio filter   4.000%
#     file         sig2 tot  cw amp ratio   deg  nlegs   reff  inp sig2
#     0/   0 paths used
#  xsedge+ 50, used to normalize mu           2.4245E-04
#  -----------------------------------------------------------------------
#  omega    e    k    mu    mu0     chi     @#
    8983.714    -10.903  -1.000  3.53751E-02  5.62968E-02 -2.09217E-02
    8984.013    -10.604  -0.960  3.71266E-02  6.03922E-02 -2.32657E-02
    8984.299    -10.318  -0.920  3.89992E-02  6.49404E-02 -2.59412E-02
    8984.574    -10.044  -0.880  4.10038E-02  7.00074E-02 -2.90037E-02
    8984.836     -9.781  -0.840  4.31518E-02  7.56702E-02 -3.25184E-02
    8985.086     -9.532  -0.800  4.54558E-02  8.20177E-02 -3.65619E-02
    8985.323     -9.294  -0.760  4.79291E-02  8.91520E-02 -4.12229E-02
    8985.549     -9.068  -0.720  5.05852E-02  9.71882E-02 -4.66029E-02
    8985.762     -8.855  -0.680  5.34378E-02  1.06253E-01 -5.28152E-02
    8985.964     -8.654  -0.640  5.64993E-02  1.16480E-01 -5.99806E-02
    8986.152     -8.465  -0.600  5.97796E-02  1.28000E-01 -6.82203E-02
    8986.329     -8.288  -0.560  6.32834E-02  1.40925E-01 -7.76412E-02
    8986.494     -8.123  -0.520  6.70071E-02  1.55320E-01 -8.83128E-02
    8986.646     -7.971  -0.480  7.09334E-02  1.71170E-01 -1.00236E-01
    8986.786     -7.831  -0.440  7.50272E-02  1.88336E-01 -1.13309E-01
    8986.914     -7.703  -0.400  7.92305E-02  2.06521E-01 -1.27291E-01
    8987.030     -7.587  -0.360  8.34618E-02  2.25259E-01 -1.41797E-01
    8987.134     -7.483  -0.320  8.76202E-02  2.43943E-01 -1.56323E-01
    8987.225     -7.392  -0.280  9.15938E-02  2.61900E-01 -1.70306E-01
    8987.305     -7.313  -0.240  9.52717E-02  2.78481E-01 -1.83209E-01
    8987.372     -7.246  -0.200  9.85539E-02  2.93141E-01 -1.94587E-01
    8987.427     -7.191  -0.160  1.01357E-01  3.05479E-01 -2.04122E-01
    8987.469     -7.148  -0.120  1.03614E-01  3.15237E-01 -2.11623E-01
    8987.500     -7.118  -0.080  1.05274E-01  3.22271E-01 -2.16997E-01
    8987.524     -7.093   0.000  1.06653E-01  3.27924E-01 -2.21272E-01
    8987.579     -7.038   0.120  1.09801E-01  3.40670E-01 -2.30869E-01
    8987.622     -6.996   0.160  1.12245E-01  3.50584E-01 -2.38339E-01
    8987.676     -6.941   0.200  1.15433E-01  3.63265E-01 -2.47832E-01
    8987.744     -6.874   0.240  1.19380E-01  3.78532E-01 -2.59152E-01
    8987.823     -6.794   0.280  1.24170E-01  3.96098E-01 -2.71928E-01
    8987.914     -6.703   0.320  1.29869E-01  4.15536E-01 -2.85667E-01
    8988.018     -6.599   0.360  1.36608E-01  4.36315E-01 -2.99707E-01
    8988.134     -6.484   0.400  1.44532E-01  4.57826E-01 -3.13294E-01
    8988.262     -6.356   0.440  1.53960E-01  4.79572E-01 -3.25611E-01
    8988.402     -6.215   0.480  1.65281E-01  5.01107E-01 -3.35826E-01
    8988.554     -6.063   0.520  1.79102E-01  5.22196E-01 -3.43094E-01
    8988.719     -5.898   0.560  1.96139E-01  5.42698E-01 -3.46559E-01
    8988.896     -5.722   0.600  2.17240E-01  5.62556E-01 -3.45317E-01
    8989.085     -5.533   0.640  2.43247E-01  5.81825E-01 -3.38578E-01
    8989.286     -5.331   0.680  2.74555E-01  6.00550E-01 -3.25995E-01
    8989.499     -5.118   0.720  3.10611E-01  6.18856E-01 -3.08246E-01
    8989.725     -4.893   0.760  3.49095E-01  6.36780E-01 -2.87685E-01
    8989.962     -4.655   0.800  3.85673E-01  6.54411E-01 -2.68738E-01
    8990.212     -4.405   0.840  4.14005E-01  6.71784E-01 -2.57779E-01
    8990.475     -4.143   0.880  4.27645E-01  6.88939E-01 -2.61294E-01
    8990.749     -3.868   0.920  4.24846E-01  7.05906E-01 -2.81060E-01
    8991.035     -3.582   0.960  4.11796E-01  7.22656E-01 -3.10860E-01
    8991.334     -3.283   1.000  3.98194E-01  7.39237E-01 -3.41043E-01
    8991.645     -2.972   1.040  3.90790E-01  7.55581E-01 -3.64791E-01
    8991.968     -2.649   1.080  3.92649E-01  7.71718E-01 -3.79069E-01
    8992.303     -2.314   1.120  4.04300E-01  7.87567E-01 -3.83267E-01
    8992.651     -1.966   1.160  4.24202E-01  8.03148E-01 -3.78946E-01
    8993.010     -1.607   1.200  4.48069E-01  8.18414E-01 -3.70345E-01
    8993.382     -1.235   1.240  4.68979E-01  8.33295E-01 -3.64316E-01
    8993.766     -0.851   1.280  4.80618E-01  8.47801E-01 -3.67183E-01
    8994.163     -0.455   1.320  4.84135E-01  8.61860E-01 -3.77725E-01
    8994.571     -0.046   1.360  4.88972E-01  8.75461E-01 -3.86489E-01
    8994.992      0.374   1.400  5.02249E-01  8.88552E-01 -3.86303E-01
    8995.424      0.807   1.440  5.22041E-01  9.01123E-01 -3.79082E-01
    8995.869      1.252   1.480  5.42949E-01  9.13145E-01 -3.70196E-01
    8996.327      1.709   1.520  5.65461E-01  9.24610E-01 -3.59149E-01
    8996.796      2.179   1.560  5.95593E-01  9.35469E-01 -3.39877E-01
    8997.278      2.660   1.600  6.37264E-01  9.45719E-01 -3.08455E-01
    8997.771      3.154   1.640  6.89023E-01  9.55355E-01 -2.66332E-01
    8998.277      3.660   1.680  7.49815E-01  9.64376E-01 -2.14561E-01
    8998.796      4.178   1.720  8.25354E-01  9.72763E-01 -1.47409E-01
    8999.326      4.709   1.760  9.23138E-01  9.80518E-01 -5.73810E-02
    8999.868      5.251   1.800  1.03852E+00  9.87686E-01  5.08303E-02
    9000.423      5.806   1.840  1.15351E+00  9.94210E-01  1.59297E-01
    9000.990      6.373   1.880  1.24966E+00  1.00016E+00  2.49499E-01
    9001.569      6.952   1.920  1.31265E+00  1.00553E+00  3.07123E-01
    9002.161      7.543   1.960  1.33816E+00  1.01033E+00  3.27831E-01
    9002.764      8.147   2.000  1.33355E+00  1.01459E+00  3.18953E-01
    9003.380      8.762   2.040  1.31376E+00  1.01834E+00  2.95419E-01
    9004.008      9.390   2.080  1.29346E+00  1.02156E+00  2.71896E-01
    9004.648     10.030   2.120  1.28075E+00  1.02433E+00  2.56418E-01
    9005.300     10.683   2.160  1.28013E+00  1.02663E+00  2.53497E-01
    9005.964     11.347   2.200  1.29578E+00  1.02852E+00  2.67255E-01
    9006.641     12.024   2.240  1.32768E+00  1.03001E+00  2.97673E-01
    9007.330     12.713   2.280  1.36709E+00  1.03111E+00  3.35978E-01
    9008.031     13.414   2.320  1.39661E+00  1.03188E+00  3.64732E-01
    9008.744     14.127   2.360  1.40172E+00  1.03232E+00  3.69400E-01
    9009.470     14.852   2.400  1.38114E+00  1.03246E+00  3.48681E-01
    9010.207     15.590   2.440  1.34354E+00  1.03235E+00  3.11195E-01
    9010.957     16.340   2.480  1.29318E+00  1.03198E+00  2.61199E-01
    9011.719     17.102   2.520  1.23021E+00  1.03140E+00  1.98810E-01
    9012.493     17.876   2.560  1.17006E+00  1.03064E+00  1.39422E-01
    9013.280     18.662   2.600  1.12809E+00  1.02969E+00  9.84075E-02
    9014.078     19.461   2.640  1.10009E+00  1.02857E+00  7.15182E-02
    9014.889     20.272   2.680  1.08089E+00  1.02735E+00  5.35474E-02
    9015.712     21.095   2.720  1.06642E+00  1.02600E+00  4.04156E-02
    9016.547     21.930   2.760  1.05403E+00  1.02455E+00  2.94786E-02
    9017.394     22.777   2.800  1.04197E+00  1.02303E+00  1.89356E-02
    9018.254     23.637   2.840  1.02995E+00  1.02146E+00  8.48376E-03
    9019.126     24.508   2.880  1.01850E+00  1.01983E+00 -1.33602E-03
    9020.010     25.392   2.920  1.00775E+00  1.01818E+00 -1.04322E-02
    9020.906     26.288   2.960  9.97217E-01  1.01650E+00 -1.92868E-02
    9021.814     27.197   3.000  9.86071E-01  1.01484E+00 -2.87710E-02
    9022.734     28.117   3.040  9.73577E-01  1.01316E+00 -3.95844E-02
    9023.667     29.050   3.080  9.60101E-01  1.01153E+00 -5.14291E-02
    9024.612     29.995   3.120  9.46477E-01  1.00989E+00 -6.34143E-02
    9025.569     30.952   3.160  9.33799E-01  1.00831E+00 -7.45126E-02
    9026.538     31.921   3.200  9.22891E-01  1.00678E+00 -8.38853E-02
    9027.520     32.903   3.240  9.14317E-01  1.00531E+00 -9.09913E-02
    9028.513     33.896   3.280  9.07772E-01  1.00389E+00 -9.61181E-02
    9029.519     34.902   3.320  9.02354E-01  1.00252E+00 -1.00169E-01
    9030.537     35.920   3.360  8.97125E-01  1.00125E+00 -1.04129E-01
    9031.568     36.950   3.400  8.91288E-01  1.00004E+00 -1.08755E-01
    9032.610     37.993   3.440  8.84837E-01  9.98914E-01 -1.14077E-01
    9033.665     39.047   3.480  8.78447E-01  9.97887E-01 -1.19441E-01
    9034.731     40.114   3.520  8.73242E-01  9.96924E-01 -1.23683E-01
    9035.810     41.193   3.560  8.70086E-01  9.96068E-01 -1.25982E-01
    9036.901     42.284   3.600  8.69577E-01  9.95299E-01 -1.25722E-01
    9038.005     43.388   3.640  8.71998E-01  9.94638E-01 -1.22640E-01
    9039.120     44.503   3.680  8.77132E-01  9.94043E-01 -1.16912E-01
    9040.248     45.631   3.720  8.84488E-01  9.93558E-01 -1.09071E-01
    9041.388     46.771   3.760  8.93514E-01  9.93184E-01 -9.96691E-02
    9042.540     47.923   3.800  9.03696E-01  9.92897E-01 -8.92012E-02
    9043.705     49.087   3.840  9.14588E-01  9.92698E-01 -7.81105E-02
    9044.881     50.264   3.880  9.25958E-01  9.92585E-01 -6.66273E-02
    9046.070     51.453   3.920  9.37680E-01  9.92581E-01 -5.49011E-02
    9047.271     52.653   3.960  9.49530E-01  9.92664E-01 -4.31345E-02
    9048.484     53.867   4.000  9.61357E-01  9.92831E-01 -3.14740E-02
    9049.709     55.092   4.040  9.73170E-01  9.93083E-01 -1.99130E-02
    9050.947     56.329   4.080  9.85052E-01  9.93438E-01 -8.38634E-03
    9052.196     57.579   4.120  9.97086E-01  9.93854E-01  3.23212E-03
    9053.458     58.841   4.160  1.00935E+00  9.94349E-01  1.50015E-02
    9054.732     60.115   4.200  1.02175E+00  9.94944E-01  2.68052E-02
    9056.018     61.401   4.240  1.03385E+00  9.95574E-01  3.82759E-02
    9057.317     62.700   4.280  1.04536E+00  9.96298E-01  4.90613E-02
    9058.628     64.010   4.320  1.05585E+00  9.97072E-01  5.87786E-02
    9059.950     65.333   4.360  1.06487E+00  9.97895E-01  6.69752E-02
    9061.285     66.668   4.400  1.07201E+00  9.98787E-01  7.32227E-02
    9062.633     68.015   4.440  1.07700E+00  9.99724E-01  7.72708E-02
    9063.992     69.375   4.480  1.07976E+00  1.00070E+00  7.90536E-02
    9065.364     70.746   4.520  1.08036E+00  1.00172E+00  7.86350E-02
    9066.747     72.130   4.560  1.07906E+00  1.00278E+00  7.62754E-02
    9068.143     73.526   4.600  1.07613E+00  1.00387E+00  7.22586E-02
    9069.552     74.934   4.640  1.07199E+00  1.00497E+00  6.70106E-02
    9070.972     76.355   4.680  1.06724E+00  1.00611E+00  6.11360E-02
    9072.404     77.787   4.720  1.06256E+00  1.00724E+00  5.53200E-02
    9073.849     79.232   4.760  1.05855E+00  1.00838E+00  5.01617E-02
    9075.306     80.689   4.800  1.05555E+00  1.00952E+00  4.60287E-02
    9076.775     82.158   4.840  1.05364E+00  1.01066E+00  4.29833E-02
    9078.257     83.639   4.880  1.05272E+00  1.01179E+00  4.09215E-02
    9079.750     85.133   4.920  1.05263E+00  1.01292E+00  3.97110E-02
    9081.256     86.639   4.960  1.05316E+00  1.01401E+00  3.91439E-02
    9082.774     88.156   5.000  1.05392E+00  1.01507E+00  3.88469E-02
    9084.304     89.687   5.040  1.05440E+00  1.01612E+00  3.82768E-02
    9085.846     91.229   5.080  1.05399E+00  1.01713E+00  3.68667E-02
    9087.401     92.783   5.120  1.05234E+00  1.01809E+00  3.42505E-02
    9088.967     94.350   5.160  1.04933E+00  1.01902E+00  3.03092E-02
    9090.546     95.929   5.200  1.04501E+00  1.01990E+00  2.51060E-02
    9092.137     97.520   5.240  1.03951E+00  1.02074E+00  1.87782E-02
    9093.740     99.123   5.280  1.03298E+00  1.02150E+00  1.14831E-02
    9095.356    100.739   5.320  1.02566E+00  1.02221E+00  3.44429E-03
    9096.983    102.366   5.360  1.01781E+00  1.02285E+00 -5.03954E-03
    9098.623    104.006   5.400  1.00984E+00  1.02344E+00 -1.36081E-02
    9100.275    105.658   5.440  1.00214E+00  1.02398E+00 -2.18437E-02
    9101.939    107.322   5.480  9.95139E-01  1.02442E+00 -2.92790E-02
    9103.616    108.999   5.520  9.89322E-01  1.02480E+00 -3.54773E-02
    9105.304    110.687   5.560  9.84902E-01  1.02510E+00 -4.02012E-02
    9107.005    112.388   5.600  9.81844E-01  1.02533E+00 -4.34839E-02
    9108.718    114.101   5.640  9.79897E-01  1.02550E+00 -4.55993E-02
    9110.443    115.826   5.680  9.78682E-01  1.02556E+00 -4.68809E-02
    9112.181    117.563   5.720  9.77986E-01  1.02557E+00 -4.75878E-02
    9113.930    119.313   5.760  9.77678E-01  1.02551E+00 -4.78303E-02
    9115.692    121.075   5.800  9.77722E-01  1.02536E+00 -4.76425E-02
    9117.466    122.849   5.840  9.78172E-01  1.02517E+00 -4.69946E-02
    9119.252    124.635   5.880  9.79052E-01  1.02487E+00 -4.58168E-02
    9121.050    126.433   5.920  9.80493E-01  1.02452E+00 -4.40258E-02
    9122.861    128.244   5.960  9.82566E-01  1.02409E+00 -4.15191E-02
    9124.684    130.066   6.000  9.85466E-01  1.02355E+00 -3.80800E-02
