# # comment:                                                     FEFF 9.9.1  
# # Source:
# # Structure
# # Reduced
# # space
# # abc:
# # angles:120.000000
# # sites:
# # POT  SCF 100  7.0000   0, screened core-hole, AFOLP (folp(0)= 1.150)
# # Abs   Z=29 Rmt= 1.241 Rnm= 1.311 K  shell
# # Pot 1 Z=62 Rmt= 1.693 Rnm= 1.741
# # Pot 2 Z=22 Rmt= 1.271 Rnm= 1.399
# # Pot 3 Z=29 Rmt= 1.227 Rnm= 1.303
# # Pot 4 Z= 8 Rmt= 1.034 Rnm= 1.100
# # Gam_ch=1.729E+00 H-L exch Vi= 0.000E+00 Vr= 0.000E+00
# # Mu=-1.056E+01eV kf=2.189E+00 Vint=-1.938E+01eV Rs_int= 1.657
# FMS rfms= 9.0000
# # PATH  Rmax=-1.000,  Keep_limit= 0.00, Heap_limit 0.00  Pwcrit= 2.50%
#  S02=0.950  Temp=   0.00  Debye_temp=   0.00  Global_sig2= 0.00000
#  Energy zero shift, vr, vi    0.00000E+00   0.00000E+00
#  Curved wave amplitude ratio filter   4.000%
#     file         sig2 tot  cw amp ratio   deg  nlegs   reff  inp sig2
#     0/   0 paths used
#  xsedge+ 50, used to normalize mu           2.4883E-04
#  -----------------------------------------------------------------------
#  omega    e    k    mu    mu0     chi     @#
    8984.982    -14.369  -1.000  3.54194E-02  4.88125E-02 -1.33931E-02
    8985.281    -14.070  -0.960  3.71578E-02  5.22346E-02 -1.50768E-02
    8985.567    -13.784  -0.920  3.90089E-02  5.60286E-02 -1.70197E-02
    8985.842    -13.509  -0.880  4.09821E-02  6.02488E-02 -1.92667E-02
    8986.104    -13.247  -0.840  4.30875E-02  6.49580E-02 -2.18705E-02
    8986.354    -12.997  -0.800  4.53361E-02  7.02294E-02 -2.48934E-02
    8986.591    -12.759  -0.760  4.77397E-02  7.61467E-02 -2.84070E-02
    8986.817    -12.534  -0.720  5.03109E-02  8.28043E-02 -3.24934E-02
    8987.030    -12.321  -0.680  5.30624E-02  9.03063E-02 -3.72439E-02
    8987.232    -12.119  -0.640  5.60062E-02  9.87623E-02 -4.27561E-02
    8987.421    -11.930  -0.600  5.91525E-02  1.08280E-01 -4.91274E-02
    8987.597    -11.754  -0.560  6.25072E-02  1.18951E-01 -5.64434E-02
    8987.762    -11.589  -0.520  6.60692E-02  1.30829E-01 -6.47595E-02
    8987.914    -11.437  -0.480  6.98254E-02  1.43901E-01 -7.40753E-02
    8988.055    -11.296  -0.440  7.37465E-02  1.58052E-01 -8.43057E-02
    8988.183    -11.168  -0.400  7.77827E-02  1.73038E-01 -9.52557E-02
    8988.298    -11.053  -0.360  8.18613E-02  1.88475E-01 -1.06614E-01
    8988.402    -10.949  -0.320  8.58894E-02  2.03862E-01 -1.17973E-01
    8988.493    -10.858  -0.280  8.97605E-02  2.18647E-01 -1.28886E-01
    8988.573    -10.778  -0.240  9.33648E-02  2.32294E-01 -1.38929E-01
    8988.640    -10.711  -0.200  9.65988E-02  2.44357E-01 -1.47758E-01
    8988.695    -10.656  -0.160  9.93727E-02  2.54507E-01 -1.55134E-01
    8988.737    -10.614  -0.120  1.01614E-01  2.62532E-01 -1.60918E-01
    8988.768    -10.583  -0.080  1.03267E-01  2.68315E-01 -1.65048E-01
    8988.792    -10.559   0.000  1.04649E-01  2.72963E-01 -1.68313E-01
    8988.847    -10.504   0.120  1.07736E-01  2.83451E-01 -1.75716E-01
    8988.890    -10.461   0.160  1.10143E-01  2.91599E-01 -1.81456E-01
    8988.945    -10.406   0.200  1.13247E-01  3.02001E-01 -1.88754E-01
    8989.012    -10.339   0.240  1.17139E-01  3.14543E-01 -1.97404E-01
    8989.091    -10.260   0.280  1.21789E-01  3.28963E-01 -2.07174E-01
    8989.182    -10.169   0.320  1.27250E-01  3.44905E-01 -2.17654E-01
    8989.286    -10.065   0.360  1.33508E-01  3.61924E-01 -2.28416E-01
    8989.402     -9.949   0.400  1.40535E-01  3.79551E-01 -2.39016E-01
    8989.530     -9.821   0.440  1.48248E-01  3.97336E-01 -2.49088E-01
    8989.670     -9.681   0.480  1.56555E-01  4.14945E-01 -2.58390E-01
    8989.822     -9.529   0.520  1.65323E-01  4.32169E-01 -2.66846E-01
    8989.987     -9.364   0.560  1.74370E-01  4.48912E-01 -2.74541E-01
    8990.164     -9.187   0.600  1.83518E-01  4.65126E-01 -2.81609E-01
    8990.353     -8.998   0.640  1.92820E-01  4.80904E-01 -2.88084E-01
    8990.554     -8.797   0.680  2.02764E-01  4.96287E-01 -2.93523E-01
    8990.767     -8.584   0.720  2.14913E-01  5.11366E-01 -2.96453E-01
    8990.993     -8.358   0.760  2.31937E-01  5.26191E-01 -2.94253E-01
    8991.231     -8.120   0.800  2.57101E-01  5.40886E-01 -2.83785E-01
    8991.480     -7.871   0.840  2.93211E-01  5.55463E-01 -2.62252E-01
    8991.743     -7.608   0.880  3.41131E-01  5.70003E-01 -2.28872E-01
    8992.017     -7.334   0.920  3.96581E-01  5.84535E-01 -1.87954E-01
    8992.303     -7.048   0.960  4.50199E-01  5.99057E-01 -1.48859E-01
    8992.602     -6.749   1.000  4.96403E-01  6.13600E-01 -1.17198E-01
    8992.913     -6.438   1.040  5.39641E-01  6.28165E-01 -8.85236E-02
    8993.236     -6.115   1.080  5.86088E-01  6.42765E-01 -5.66775E-02
    8993.571     -5.780   1.120  6.36931E-01  6.57370E-01 -2.04393E-02
    8993.919     -5.432   1.160  6.91834E-01  6.71985E-01  1.98487E-02
    8994.279     -5.072   1.200  7.43650E-01  6.86570E-01  5.70801E-02
    8994.650     -4.701   1.240  7.61538E-01  7.01101E-01  6.04370E-02
    8995.034     -4.317   1.280  7.19933E-01  7.15574E-01  4.35819E-03
    8995.431     -3.920   1.320  6.46505E-01  7.29961E-01 -8.34561E-02
    8995.839     -3.512   1.360  5.84322E-01  7.44211E-01 -1.59888E-01
    8996.260     -3.091   1.400  5.58234E-01  7.58315E-01 -2.00082E-01
    8996.693     -2.658   1.440  5.78649E-01  7.72221E-01 -1.93572E-01
    8997.138     -2.213   1.480  6.39883E-01  7.85937E-01 -1.46053E-01
    8997.595     -1.756   1.520  7.23766E-01  7.99390E-01 -7.56243E-02
    8998.064     -1.287   1.560  8.09907E-01  8.12589E-01 -2.68213E-03
    8998.546     -0.805   1.600  8.85207E-01  8.25460E-01  5.97464E-02
    8999.039     -0.312   1.640  9.34149E-01  8.38013E-01  9.61368E-02
    8999.545      0.194   1.680  9.32478E-01  8.50215E-01  8.22632E-02
    9000.064      0.713   1.720  8.75363E-01  8.62057E-01  1.33055E-02
    9000.594      1.243   1.760  8.00973E-01  8.73470E-01 -7.24973E-02
    9001.136      1.786   1.800  7.61695E-01  8.84484E-01 -1.22789E-01
    9001.691      2.340   1.840  7.75012E-01  8.95071E-01 -1.20059E-01
    9002.258      2.907   1.880  8.27628E-01  9.05184E-01 -7.75558E-02
    9002.837      3.486   1.920  9.01334E-01  9.14860E-01 -1.35257E-02
    9003.429      4.078   1.960  9.86687E-01  9.24052E-01  6.26343E-02
    9004.032      4.681   2.000  1.07185E+00  9.32758E-01  1.39092E-01
    9004.648      5.297   2.040  1.13471E+00  9.40995E-01  1.93716E-01
    9005.276      5.925   2.080  1.17399E+00  9.48724E-01  2.25266E-01
    9005.916      6.565   2.120  1.21013E+00  9.55985E-01  2.54144E-01
    9006.568      7.217   2.160  1.25542E+00  9.62758E-01  2.92663E-01
    9007.232      7.881   2.200  1.31365E+00  9.69047E-01  3.44603E-01
    9007.909      8.558   2.240  1.36416E+00  9.74875E-01  3.89285E-01
    9008.598      9.247   2.280  1.36964E+00  9.80225E-01  3.89417E-01
    9009.299      9.948   2.320  1.33909E+00  9.85122E-01  3.53968E-01
    9010.012     10.661   2.360  1.31982E+00  9.89574E-01  3.30243E-01
    9010.738     11.387   2.400  1.31579E+00  9.93607E-01  3.22183E-01
    9011.475     12.124   2.440  1.28126E+00  9.97205E-01  2.84056E-01
    9012.225     12.874   2.480  1.19806E+00  1.00040E+00  1.97667E-01
    9012.987     13.636   2.520  1.10106E+00  1.00321E+00  9.78462E-02
    9013.761     14.410   2.560  1.02202E+00  1.00564E+00  1.63849E-02
    9014.548     15.197   2.600  9.77007E-01  1.00773E+00 -3.07187E-02
    9015.346     15.995   2.640  9.56946E-01  1.00948E+00 -5.25342E-02
    9016.157     16.806   2.680  9.44651E-01  1.01089E+00 -6.62420E-02
    9016.980     17.629   2.720  9.36159E-01  1.01201E+00 -7.58525E-02
    9017.815     18.464   2.760  9.31589E-01  1.01287E+00 -8.12779E-02
    9018.662     19.311   2.800  9.30520E-01  1.01345E+00 -8.29286E-02
    9019.522     20.171   2.840  9.31379E-01  1.01376E+00 -8.23836E-02
    9020.394     21.043   2.880  9.31269E-01  1.01386E+00 -8.25930E-02
    9021.278     21.927   2.920  9.27625E-01  1.01375E+00 -8.61294E-02
    9022.174     22.823   2.960  9.19558E-01  1.01347E+00 -9.39108E-02
    9023.082     23.731   3.000  9.07767E-01  1.01299E+00 -1.05228E-01
    9024.002     24.652   3.040  8.93904E-01  1.01236E+00 -1.18454E-01
    9024.935     25.584   3.080  8.79930E-01  1.01157E+00 -1.31636E-01
    9025.880     26.529   3.120  8.67966E-01  1.01067E+00 -1.42706E-01
    9026.837     27.486   3.160  8.59432E-01  1.00966E+00 -1.50227E-01
    9027.806     28.455   3.200  8.55525E-01  1.00853E+00 -1.53010E-01
    9028.788     29.437   3.240  8.57016E-01  1.00733E+00 -1.50311E-01
    9029.781     30.430   3.280  8.63766E-01  1.00606E+00 -1.42298E-01
    9030.787     31.436   3.320  8.74849E-01  1.00473E+00 -1.29883E-01
    9031.805     32.454   3.360  8.89033E-01  1.00337E+00 -1.14342E-01
    9032.836     33.485   3.400  9.04677E-01  1.00196E+00 -9.72822E-02
    9033.878     34.527   3.440  9.19833E-01  1.00053E+00 -8.06977E-02
    9034.933     35.582   3.480  9.33254E-01  9.99074E-01 -6.58192E-02
    9035.999     36.648   3.520  9.44822E-01  9.97633E-01 -5.28112E-02
    9037.078     37.727   3.560  9.55281E-01  9.96174E-01 -4.08930E-02
    9038.170     38.819   3.600  9.65838E-01  9.94742E-01 -2.89036E-02
    9039.273     39.922   3.640  9.77426E-01  9.93340E-01 -1.59142E-02
    9040.388     41.037   3.680  9.90297E-01  9.91951E-01 -1.65372E-03
    9041.516     42.165   3.720  1.00404E+00  9.90619E-01  1.34193E-02
    9042.656     43.305   3.760  1.01758E+00  9.89306E-01  2.82763E-02
    9043.808     44.457   3.800  1.02915E+00  9.88033E-01  4.11178E-02
    9044.973     45.622   3.840  1.03635E+00  9.86826E-01  4.95245E-02
    9046.149     46.798   3.880  1.03710E+00  9.85666E-01  5.14342E-02
    9047.338     47.987   3.920  1.03061E+00  9.84575E-01  4.60320E-02
    9048.539     49.188   3.960  1.01798E+00  9.83535E-01  3.44428E-02
    9049.752     50.401   4.000  1.00212E+00  9.82565E-01  1.95515E-02
    9050.977     51.626   4.040  9.86748E-01  9.81649E-01  5.09873E-03
    9052.215     52.864   4.080  9.75570E-01  9.80829E-01 -5.25836E-03
    9053.464     54.113   4.120  9.71279E-01  9.80062E-01 -8.78339E-03
    9054.726     55.375   4.160  9.75324E-01  9.79370E-01 -4.04557E-03
    9056.000     56.649   4.200  9.87532E-01  9.78733E-01  8.79859E-03
    9057.287     57.936   4.240  1.00625E+00  9.78195E-01  2.80527E-02
    9058.585     59.234   4.280  1.02846E+00  9.77734E-01  5.07239E-02
    9059.896     60.545   4.320  1.05043E+00  9.77328E-01  7.30994E-02
    9061.218     61.867   4.360  1.06860E+00  9.76997E-01  9.16064E-02
    9062.553     63.202   4.400  1.08026E+00  9.76742E-01  1.03523E-01
    9063.901     64.550   4.440  1.08413E+00  9.76562E-01  1.07567E-01
    9065.260     65.909   4.480  1.08010E+00  9.76437E-01  1.03660E-01
    9066.632     67.281   4.520  1.06944E+00  9.76405E-01  9.30339E-02
    9068.015     68.664   4.560  1.05468E+00  9.76405E-01  7.82760E-02
    9069.411     70.060   4.600  1.03925E+00  9.76497E-01  6.27507E-02
    9070.820     71.469   4.640  1.02616E+00  9.76638E-01  4.95175E-02
    9072.240     72.889   4.680  1.01714E+00  9.76826E-01  4.03143E-02
    9073.672     74.322   4.720  1.01223E+00  9.77082E-01  3.51443E-02
    9075.117     75.766   4.760  1.01012E+00  9.77383E-01  3.27374E-02
    9076.574     77.223   4.800  1.00909E+00  9.77725E-01  3.13661E-02
    9078.043     78.692   4.840  1.00760E+00  9.78110E-01  2.94879E-02
    9079.525     80.174   4.880  1.00466E+00  9.78558E-01  2.61002E-02
    9081.018     81.667   4.920  9.99606E-01  9.79022E-01  2.05837E-02
    9082.524     83.173   4.960  9.92121E-01  9.79523E-01  1.25981E-02
    9084.042     84.691   5.000  9.82196E-01  9.80059E-01  2.13719E-03
    9085.572     86.221   5.040  9.70108E-01  9.80628E-01 -1.05201E-02
    9087.114     87.763   5.080  9.56333E-01  9.81205E-01 -2.48724E-02
    9088.669     89.318   5.120  9.41550E-01  9.81789E-01 -4.02382E-02
    9090.235     90.884   5.160  9.26609E-01  9.82399E-01 -5.57899E-02
    9091.814     92.463   5.200  9.12365E-01  9.83014E-01 -7.06489E-02
    9093.405     94.054   5.240  8.99628E-01  9.83629E-01 -8.40003E-02
    9095.008     95.657   5.280  8.89159E-01  9.84242E-01 -9.50831E-02
    9096.624     97.273   5.320  8.81663E-01  9.84852E-01 -1.03189E-01
    9098.251     98.900   5.360  8.77738E-01  9.85437E-01 -1.07699E-01
    9099.891    100.540   5.400  8.77825E-01  9.86038E-01 -1.08213E-01
    9101.543    102.192   5.440  8.81893E-01  9.86608E-01 -1.04715E-01
    9103.207    103.857   5.480  8.89471E-01  9.87147E-01 -9.76752E-02
    9104.884    105.533   5.520  8.99905E-01  9.87673E-01 -8.77684E-02
    9106.572    107.221   5.560  9.12859E-01  9.88165E-01 -7.53061E-02
    9108.273    108.922   5.600  9.28760E-01  9.88620E-01 -5.98598E-02
    9109.986    110.635   5.640  9.48401E-01  9.89060E-01 -4.06590E-02
    9111.711    112.360   5.680  9.71998E-01  9.89439E-01 -1.74415E-02
    9113.449    114.098   5.720  9.98590E-01  9.89799E-01  8.79035E-03
    9115.198    115.847   5.760  1.02589E+00  9.90097E-01  3.57904E-02
    9116.960    117.609   5.800  1.05124E+00  9.90376E-01  6.08680E-02
    9118.734    119.383   5.840  1.07235E+00  9.90587E-01  8.17623E-02
    9120.520    121.169   5.880  1.08763E+00  9.90752E-01  9.68820E-02
    9122.318    122.967   5.920  1.09573E+00  9.90848E-01  1.04884E-01
    9124.129    124.778   5.960  1.09512E+00  9.90917E-01  1.04201E-01
    9125.952    126.601   6.000  1.08402E+00  9.90885E-01  9.31323E-02
