# # comment:                                                     FEFF 9.9.1  
# # Source:
# # Structure
# # Reduced
# # space
# # abc:
# # angles:
# # sites:
# # POT  SCF 100  7.0000   0, screened core-hole, AFOLP (folp(0)= 1.150)
# # Abs   Z=29 Rmt= 1.262 Rnm= 1.336 K  shell
# # Pot 1 Z=29 Rmt= 1.263 Rnm= 1.336
# # Pot 2 Z= 8 Rmt= 1.011 Rnm= 1.089
# # Pot 3 Z=73 Rmt= 1.318 Rnm= 1.467
# # Gam_ch=1.729E+00 H-L exch Vi= 0.000E+00 Vr= 0.000E+00
# # Mu=-6.264E+00eV kf=2.247E+00 Vint=-1.644E+01eV Rs_int= 1.614
# FMS rfms= 9.0000
# # PATH  Rmax=-1.000,  Keep_limit= 0.00, Heap_limit 0.00  Pwcrit= 2.50%
#  S02=0.950  Temp=   0.00  Debye_temp=   0.00  Global_sig2= 0.00000
#  Energy zero shift, vr, vi    0.00000E+00   0.00000E+00
#  Curved wave amplitude ratio filter   4.000%
#     file         sig2 tot  cw amp ratio   deg  nlegs   reff  inp sig2
#     0/   0 paths used
#  xsedge+ 50, used to normalize mu           2.4657E-04
#  -----------------------------------------------------------------------
#  omega    e    k    mu    mu0     chi     @#
    8983.586    -10.074  -1.000  4.53133E-02  5.51228E-02 -9.80953E-03
    8983.885     -9.775  -0.960  4.79548E-02  5.91892E-02 -1.12344E-02
    8984.171     -9.489  -0.920  5.08061E-02  6.37144E-02 -1.29083E-02
    8984.446     -9.214  -0.880  5.38876E-02  6.87666E-02 -1.48791E-02
    8984.708     -8.952  -0.840  5.72217E-02  7.44255E-02 -1.72038E-02
    8984.958     -8.702  -0.800  6.08330E-02  8.07833E-02 -1.99503E-02
    8985.196     -8.464  -0.760  6.47478E-02  8.79459E-02 -2.31981E-02
    8985.421     -8.239  -0.720  6.89940E-02  9.60331E-02 -2.70391E-02
    8985.634     -8.025  -0.680  7.36000E-02  1.05177E-01 -3.15771E-02
    8985.836     -7.824  -0.640  7.85933E-02  1.15518E-01 -3.69243E-02
    8986.025     -7.635  -0.600  8.39976E-02  1.27192E-01 -4.31942E-02
    8986.201     -7.459  -0.560  8.98284E-02  1.40317E-01 -5.04888E-02
    8986.366     -7.294  -0.520  9.60869E-02  1.54964E-01 -5.88773E-02
    8986.518     -7.142  -0.480  1.02752E-01  1.71119E-01 -6.83668E-02
    8986.659     -7.001  -0.440  1.09769E-01  1.88638E-01 -7.88688E-02
    8986.787     -6.873  -0.400  1.17045E-01  2.07215E-01 -9.01702E-02
    8986.902     -6.758  -0.360  1.24441E-01  2.26368E-01 -1.01926E-01
    8987.006     -6.654  -0.320  1.31780E-01  2.45468E-01 -1.13688E-01
    8987.097     -6.562  -0.280  1.38856E-01  2.63818E-01 -1.24963E-01
    8987.177     -6.483  -0.240  1.45459E-01  2.80752E-01 -1.35292E-01
    8987.244     -6.416  -0.200  1.51391E-01  2.95709E-01 -1.44318E-01
    8987.299     -6.361  -0.160  1.56480E-01  3.08284E-01 -1.51804E-01
    8987.341     -6.319  -0.120  1.60588E-01  3.18219E-01 -1.57632E-01
    8987.372     -6.288  -0.080  1.63611E-01  3.25373E-01 -1.61762E-01
    8987.396     -6.264   0.000  1.66119E-01  3.31118E-01 -1.64999E-01
    8987.451     -6.209   0.120  1.71744E-01  3.44071E-01 -1.72328E-01
    8987.494     -6.166   0.160  1.76130E-01  3.54112E-01 -1.77982E-01
    8987.549     -6.111   0.200  1.81887E-01  3.66927E-01 -1.85040E-01
    8987.616     -6.044   0.240  1.89069E-01  3.82329E-01 -1.93260E-01
    8987.695     -5.965   0.280  1.97743E-01  3.99994E-01 -2.02251E-01
    8987.786     -5.874   0.320  2.07939E-01  4.19413E-01 -2.11474E-01
    8987.890     -5.770   0.360  2.19702E-01  4.40041E-01 -2.20339E-01
    8988.006     -5.654   0.400  2.32986E-01  4.61219E-01 -2.28234E-01
    8988.134     -5.526   0.440  2.47779E-01  4.82388E-01 -2.34608E-01
    8988.274     -5.386   0.480  2.64027E-01  5.03109E-01 -2.39082E-01
    8988.426     -5.234   0.520  2.81743E-01  5.23106E-01 -2.41363E-01
    8988.591     -5.069   0.560  3.01038E-01  5.42213E-01 -2.41175E-01
    8988.768     -4.892   0.600  3.22381E-01  5.60417E-01 -2.38037E-01
    8988.957     -4.703   0.640  3.46771E-01  5.77781E-01 -2.31011E-01
    8989.158     -4.502   0.680  3.75783E-01  5.94391E-01 -2.18608E-01
    8989.371     -4.289   0.720  4.11502E-01  6.10343E-01 -1.98841E-01
    8989.597     -4.063   0.760  4.56496E-01  6.25754E-01 -1.69258E-01
    8989.835     -3.825   0.800  5.13601E-01  6.40714E-01 -1.27114E-01
    8990.085     -3.575   0.840  5.84445E-01  6.55299E-01 -7.08532E-02
    8990.347     -3.313   0.880  6.66610E-01  6.69567E-01 -2.95617E-03
    8990.621     -3.039   0.920  7.51507E-01  6.83584E-01  6.79226E-02
    8990.907     -2.752   0.960  8.22112E-01  6.97363E-01  1.24749E-01
    8991.206     -2.454   1.000  8.56539E-01  7.10947E-01  1.45592E-01
    8991.517     -2.143   1.040  8.47394E-01  7.24348E-01  1.23046E-01
    8991.840     -1.820   1.080  8.10005E-01  7.37548E-01  7.24562E-02
    8992.175     -1.485   1.120  7.63326E-01  7.50569E-01  1.27576E-02
    8992.523     -1.137   1.160  7.19791E-01  7.63400E-01 -4.36090E-02
    8992.883     -0.777   1.200  6.88510E-01  7.76048E-01 -8.75384E-02
    8993.254     -0.406   1.240  6.74619E-01  7.88479E-01 -1.13860E-01
    8993.638     -0.021   1.280  6.79416E-01  8.00672E-01 -1.21257E-01
    8994.035      0.375   1.320  6.98937E-01  8.12608E-01 -1.13671E-01
    8994.443      0.783   1.360  7.24583E-01  8.24303E-01 -9.97200E-02
    8994.864      1.204   1.400  7.48153E-01  8.35694E-01 -8.75412E-02
    8995.297      1.637   1.440  7.72025E-01  8.46796E-01 -7.47714E-02
    8995.742      2.082   1.480  8.07697E-01  8.57564E-01 -4.98679E-02
    8996.199      2.539   1.520  8.59530E-01  8.68015E-01 -8.48504E-03
    8996.668      3.008   1.560  9.14680E-01  8.78102E-01  3.65784E-02
    8997.150      3.490   1.600  9.62945E-01  8.87820E-01  7.51249E-02
    8997.644      3.984   1.640  1.00210E+00  8.97168E-01  1.04929E-01
    8998.149      4.490   1.680  1.02606E+00  9.06099E-01  1.19960E-01
    8998.668      5.008   1.720  1.03886E+00  9.14652E-01  1.24206E-01
    8999.198      5.538   1.760  1.05478E+00  9.22806E-01  1.31972E-01
    8999.741      6.081   1.800  1.08951E+00  9.30518E-01  1.58987E-01
    9000.295      6.635   1.840  1.14688E+00  9.37848E-01  2.09035E-01
    9000.862      7.202   1.880  1.19982E+00  9.44738E-01  2.55084E-01
    9001.441      7.781   1.920  1.21111E+00  9.51228E-01  2.59879E-01
    9002.033      8.373   1.960  1.18932E+00  9.57301E-01  2.32018E-01
    9002.636      8.976   2.000  1.17593E+00  9.62959E-01  2.12974E-01
    9003.252      9.592   2.040  1.18164E+00  9.68227E-01  2.13409E-01
    9003.880     10.220   2.080  1.18314E+00  9.73089E-01  2.10047E-01
    9004.520     10.860   2.120  1.16192E+00  9.77569E-01  1.84347E-01
    9005.172     11.512   2.160  1.12620E+00  9.81673E-01  1.44522E-01
    9005.837     12.177   2.200  1.09677E+00  9.85429E-01  1.11340E-01
    9006.513     12.853   2.240  1.09101E+00  9.88821E-01  1.02188E-01
    9007.202     13.542   2.280  1.11951E+00  9.91858E-01  1.27650E-01
    9007.903     14.243   2.320  1.17345E+00  9.94586E-01  1.78868E-01
    9008.616     14.956   2.360  1.21444E+00  9.97014E-01  2.17430E-01
    9009.342     15.682   2.400  1.20463E+00  9.99129E-01  2.05502E-01
    9010.079     16.419   2.440  1.15295E+00  1.00098E+00  1.51968E-01
    9010.829     17.169   2.480  1.09593E+00  1.00255E+00  9.33754E-02
    9011.591     17.931   2.520  1.04875E+00  1.00389E+00  4.48528E-02
    9012.365     18.705   2.560  1.01015E+00  1.00498E+00  5.17154E-03
    9013.152     19.492   2.600  9.80864E-01  1.00587E+00 -2.50026E-02
    9013.950     20.290   2.640  9.67944E-01  1.00653E+00 -3.85872E-02
    9014.761     21.101   2.680  9.75532E-01  1.00704E+00 -3.15065E-02
    9015.584     21.924   2.720  9.88566E-01  1.00733E+00 -1.87684E-02
    9016.419     22.759   2.760  9.98799E-01  1.00749E+00 -8.69070E-03
    9017.266     23.607   2.800  1.00083E+00  1.00751E+00 -6.67604E-03
    9018.126     24.466   2.840  9.92456E-01  1.00740E+00 -1.49456E-02
    9018.998     25.338   2.880  9.76048E-01  1.00715E+00 -3.11037E-02
    9019.882     26.222   2.920  9.55540E-01  1.00681E+00 -5.12666E-02
    9020.778     27.118   2.960  9.33641E-01  1.00637E+00 -7.27319E-02
    9021.686     28.026   3.000  9.11716E-01  1.00586E+00 -9.41422E-02
    9022.607     28.947   3.040  8.90861E-01  1.00529E+00 -1.14427E-01
    9023.539     29.879   3.080  8.72546E-01  1.00465E+00 -1.32100E-01
    9024.484     30.824   3.120  8.58130E-01  1.00396E+00 -1.45826E-01
    9025.441     31.781   3.160  8.48233E-01  1.00323E+00 -1.54992E-01
    9026.410     32.750   3.200  8.43270E-01  1.00246E+00 -1.59188E-01
    9027.392     33.732   3.240  8.43587E-01  1.00168E+00 -1.58090E-01
    9028.386     34.726   3.280  8.48859E-01  1.00087E+00 -1.52009E-01
    9029.391     35.731   3.320  8.58539E-01  1.00008E+00 -1.41537E-01
    9030.409     36.749   3.360  8.71672E-01  9.99263E-01 -1.27590E-01
    9031.440     37.780   3.400  8.87113E-01  9.98472E-01 -1.11359E-01
    9032.482     38.822   3.440  9.03427E-01  9.97686E-01 -9.42585E-02
    9033.537     39.877   3.480  9.19635E-01  9.96908E-01 -7.72733E-02
    9034.603     40.943   3.520  9.35360E-01  9.96182E-01 -6.08221E-02
    9035.682     42.022   3.560  9.50400E-01  9.95468E-01 -4.50688E-02
    9036.774     43.114   3.600  9.64629E-01  9.94769E-01 -3.01394E-02
    9037.877     44.217   3.640  9.77679E-01  9.94125E-01 -1.64460E-02
    9038.993     45.333   3.680  9.88817E-01  9.93500E-01 -4.68294E-03
    9040.120     46.460   3.720  9.97527E-01  9.92936E-01  4.59177E-03
    9041.260     47.600   3.760  1.00371E+00  9.92411E-01  1.13024E-02
    9042.412     48.752   3.800  1.00773E+00  9.91907E-01  1.58182E-02
    9043.577     49.917   3.840  1.01014E+00  9.91468E-01  1.86710E-02
    9044.753     51.093   3.880  1.01159E+00  9.91094E-01  2.04932E-02
    9045.942     52.282   3.920  1.01291E+00  9.90742E-01  2.21656E-02
    9047.143     53.483   3.960  1.01530E+00  9.90454E-01  2.48418E-02
    9048.356     54.696   4.000  1.02000E+00  9.90210E-01  2.97934E-02
    9049.581     55.921   4.040  1.02805E+00  9.90008E-01  3.80427E-02
    9050.819     57.159   4.080  1.03973E+00  9.89851E-01  4.98811E-02
    9052.068     58.408   4.120  1.05450E+00  9.89756E-01  6.47474E-02
    9053.330     59.670   4.160  1.07091E+00  9.89684E-01  8.12303E-02
    9054.604     60.944   4.200  1.08694E+00  9.89674E-01  9.72631E-02
    9055.891     62.231   4.240  1.10025E+00  9.89708E-01  1.10539E-01
    9057.189     63.529   4.280  1.10896E+00  9.89784E-01  1.19177E-01
    9058.500     64.840   4.320  1.11214E+00  9.89900E-01  1.22238E-01
    9059.822     66.163   4.360  1.10958E+00  9.90078E-01  1.19502E-01
    9061.157     67.498   4.400  1.10145E+00  9.90273E-01  1.11178E-01
    9062.505     68.845   4.440  1.08851E+00  9.90502E-01  9.80036E-02
    9063.864     70.204   4.480  1.07219E+00  9.90747E-01  8.14385E-02
    9065.236     71.576   4.520  1.05479E+00  9.91047E-01  6.37428E-02
    9066.619     72.960   4.560  1.03876E+00  9.91362E-01  4.73991E-02
    9068.015     74.356   4.600  1.02584E+00  9.91710E-01  3.41340E-02
    9069.424     75.764   4.640  1.01644E+00  9.92091E-01  2.43477E-02
    9070.844     77.184   4.680  1.00967E+00  9.92478E-01  1.71889E-02
    9072.277     78.617   4.720  1.00398E+00  9.92873E-01  1.11067E-02
    9073.721     80.061   4.760  9.97915E-01  9.93295E-01  4.61989E-03
    9075.178     81.518   4.800  9.90611E-01  9.93721E-01 -3.10967E-03
    9076.647     82.987   4.840  9.82011E-01  9.94151E-01 -1.21396E-02
    9078.129     84.469   4.880  9.72668E-01  9.94605E-01 -2.19362E-02
    9079.622     85.962   4.920  9.63260E-01  9.95037E-01 -3.17772E-02
    9081.128     87.468   4.960  9.54340E-01  9.95489E-01 -4.11486E-02
    9082.646     88.986   5.000  9.46054E-01  9.95916E-01 -4.98617E-02
    9084.176     90.516   5.040  9.38314E-01  9.96338E-01 -5.80242E-02
    9085.718     92.058   5.080  9.31016E-01  9.96755E-01 -6.57388E-02
    9087.273     93.613   5.120  9.24229E-01  9.97145E-01 -7.29158E-02
    9088.839     95.179   5.160  9.18313E-01  9.97549E-01 -7.92358E-02
    9090.418     96.758   5.200  9.13728E-01  9.97901E-01 -8.41736E-02
    9092.009     98.349   5.240  9.11206E-01  9.98264E-01 -8.70574E-02
    9093.612     99.953   5.280  9.11470E-01  9.98573E-01 -8.71028E-02
    9095.228    101.568   5.320  9.15217E-01  9.98894E-01 -8.36766E-02
    9096.856    103.196   5.360  9.22619E-01  9.99157E-01 -7.65380E-02
    9098.495    104.835   5.400  9.33450E-01  9.99405E-01 -6.59552E-02
    9100.147    106.487   5.440  9.46989E-01  9.99617E-01 -5.26281E-02
    9101.812    108.152   5.480  9.62332E-01  9.99791E-01 -3.74587E-02
    9103.488    109.828   5.520  9.78638E-01  9.99930E-01 -2.12928E-02
    9105.177    111.517   5.560  9.95243E-01  1.00005E+00 -4.81123E-03
    9106.877    113.217   5.600  1.01159E+00  1.00014E+00  1.14539E-02
    9108.590    114.930   5.640  1.02719E+00  1.00018E+00  2.70080E-02
    9110.315    116.655   5.680  1.04141E+00  1.00016E+00  4.12459E-02
    9112.053    118.393   5.720  1.05331E+00  1.00013E+00  5.31841E-02
    9113.802    120.142   5.760  1.06135E+00  1.00006E+00  6.12892E-02
    9115.564    121.904   5.800  1.06373E+00  9.99951E-01  6.37774E-02
    9117.338    123.678   5.840  1.05930E+00  9.99828E-01  5.94765E-02
    9119.124    125.464   5.880  1.04831E+00  9.99642E-01  4.86703E-02
    9120.922    127.262   5.920  1.03278E+00  9.99418E-01  3.33607E-02
    9122.733    129.073   5.960  1.01589E+00  9.99157E-01  1.67341E-02
    9124.556    130.896   6.000  1.00070E+00  9.98861E-01  1.84165E-03
