# # comment:                                                     FEFF 9.9.1  
# # Source:
# # Structure
# # Reduced
# # space
# # abc:
# # angles:
# # sites:
# # POT  SCF 100  7.0000   0, screened core-hole, AFOLP (folp(0)= 1.150)
# # Abs   Z=29 Rmt= 1.277 Rnm= 1.346 K  shell
# # Pot 1 Z=73 Rmt= 1.321 Rnm= 1.467
# # Pot 2 Z=29 Rmt= 1.269 Rnm= 1.339
# # Pot 3 Z= 8 Rmt= 0.999 Rnm= 1.082
# # Gam_ch=1.729E+00 H-L exch Vi= 0.000E+00 Vr= 0.000E+00
# # Mu=-5.931E+00eV kf=2.251E+00 Vint=-1.653E+01eV Rs_int= 1.611
# FMS rfms= 9.0000
# # PATH  Rmax=-1.000,  Keep_limit= 0.00, Heap_limit 0.00  Pwcrit= 2.50%
#  S02=0.950  Temp=   0.00  Debye_temp=   0.00  Global_sig2= 0.00000
#  Energy zero shift, vr, vi    0.00000E+00   0.00000E+00
#  Curved wave amplitude ratio filter   4.000%
#     file         sig2 tot  cw amp ratio   deg  nlegs   reff  inp sig2
#     0/   0 paths used
#  xsedge+ 50, used to normalize mu           2.4628E-04
#  -----------------------------------------------------------------------
#  omega    e    k    mu    mu0     chi     @#
    8983.605     -9.741  -1.000  5.35789E-02  5.80314E-02 -4.45252E-03
    8983.904     -9.443  -0.960  5.71498E-02  6.23880E-02 -5.23820E-03
    8984.190     -9.156  -0.920  6.10558E-02  6.72420E-02 -6.18619E-03
    8984.465     -8.882  -0.880  6.53355E-02  7.26680E-02 -7.33245E-03
    8984.727     -8.620  -0.840  7.00317E-02  7.87526E-02 -8.72096E-03
    8984.977     -8.370  -0.800  7.51916E-02  8.55968E-02 -1.04051E-02
    8985.215     -8.132  -0.760  8.08669E-02  9.33161E-02 -1.24492E-02
    8985.440     -7.906  -0.720  8.71127E-02  1.02042E-01 -1.49291E-02
    8985.654     -7.693  -0.680  9.39860E-02  1.11918E-01 -1.79321E-02
    8985.855     -7.492  -0.640  1.01543E-01  1.23098E-01 -2.15550E-02
    8986.044     -7.303  -0.600  1.09834E-01  1.35732E-01 -2.58976E-02
    8986.220     -7.126  -0.560  1.18897E-01  1.49949E-01 -3.10520E-02
    8986.385     -6.962  -0.520  1.28743E-01  1.65826E-01 -3.70835E-02
    8986.537     -6.809  -0.480  1.39345E-01  1.83349E-01 -4.40042E-02
    8986.678     -6.669  -0.440  1.50620E-01  2.02363E-01 -5.17423E-02
    8986.806     -6.541  -0.400  1.62416E-01  2.22533E-01 -6.01171E-02
    8986.921     -6.425  -0.360  1.74500E-01  2.43333E-01 -6.88328E-02
    8987.025     -6.322  -0.320  1.86573E-01  2.64079E-01 -7.75063E-02
    8987.117     -6.230  -0.280  1.98284E-01  2.84011E-01 -8.57272E-02
    8987.196     -6.151  -0.240  2.09270E-01  3.02401E-01 -9.31314E-02
    8987.263     -6.084  -0.200  2.19184E-01  3.18643E-01 -9.94582E-02
    8987.318     -6.029  -0.160  2.27723E-01  3.32294E-01 -1.04571E-01
    8987.360     -5.986  -0.120  2.34635E-01  3.43076E-01 -1.08441E-01
    8987.391     -5.956  -0.080  2.39732E-01  3.50837E-01 -1.11105E-01
    8987.415     -5.931   0.000  2.43956E-01  3.57069E-01 -1.13113E-01
    8987.470     -5.877   0.120  2.53428E-01  3.71120E-01 -1.17693E-01
    8987.513     -5.834   0.160  2.60933E-01  3.82011E-01 -1.21077E-01
    8987.568     -5.779   0.200  2.70831E-01  3.95903E-01 -1.25072E-01
    8987.635     -5.712   0.240  2.83262E-01  4.12569E-01 -1.29308E-01
    8987.714     -5.633   0.280  2.98436E-01  4.31668E-01 -1.33231E-01
    8987.805     -5.541   0.320  3.16507E-01  4.52660E-01 -1.36153E-01
    8987.909     -5.438   0.360  3.37590E-01  4.74880E-01 -1.37290E-01
    8988.025     -5.322   0.400  3.61746E-01  4.97646E-01 -1.35899E-01
    8988.153     -5.194   0.440  3.88976E-01  5.20357E-01 -1.31380E-01
    8988.293     -5.054   0.480  4.19132E-01  5.42470E-01 -1.23339E-01
    8988.445     -4.901   0.520  4.52171E-01  5.63703E-01 -1.11532E-01
    8988.610     -4.737   0.560  4.88377E-01  5.83914E-01 -9.55369E-02
    8988.787     -4.560   0.600  5.28766E-01  6.03047E-01 -7.42812E-02
    8988.976     -4.371   0.640  5.75553E-01  6.21172E-01 -4.56193E-02
    8989.177     -4.170   0.680  6.31601E-01  6.38384E-01 -6.78259E-03
    8989.390     -3.956   0.720  6.98069E-01  6.54812E-01  4.32571E-02
    8989.616     -3.731   0.760  7.69582E-01  6.70546E-01  9.90356E-02
    8989.854     -3.493   0.800  8.31258E-01  6.85705E-01  1.45553E-01
    8990.104     -3.243   0.840  8.65546E-01  7.00374E-01  1.65172E-01
    8990.366     -2.981   0.880  8.65325E-01  7.14621E-01  1.50703E-01
    8990.640     -2.707   0.920  8.37216E-01  7.28521E-01  1.08694E-01
    8990.927     -2.420   0.960  7.94384E-01  7.42092E-01  5.22928E-02
    8991.225     -2.121   1.000  7.49410E-01  7.55361E-01 -5.95161E-03
    8991.536     -1.811   1.040  7.12276E-01  7.68348E-01 -5.60719E-02
    8991.859     -1.487   1.080  6.89346E-01  7.81079E-01 -9.17327E-02
    8992.194     -1.152   1.120  6.81226E-01  7.93556E-01 -1.12331E-01
    8992.542     -0.805   1.160  6.82299E-01  8.05754E-01 -1.23455E-01
    8992.902     -0.445   1.200  6.85901E-01  8.17684E-01 -1.31783E-01
    8993.273     -0.073   1.240  6.96180E-01  8.29335E-01 -1.33154E-01
    8993.658      0.311   1.280  7.24629E-01  8.40709E-01 -1.16080E-01
    8994.054      0.707   1.320  7.71072E-01  8.51748E-01 -8.06762E-02
    8994.462      1.116   1.360  8.26995E-01  8.62492E-01 -3.54971E-02
    8994.883      1.536   1.400  8.90422E-01  8.72880E-01  1.75421E-02
    8995.316      1.969   1.440  9.64266E-01  8.82932E-01  8.13336E-02
    8995.761      2.414   1.480  1.03785E+00  8.92604E-01  1.45250E-01
    8996.218      2.871   1.520  1.08889E+00  9.01914E-01  1.86977E-01
    8996.687      3.341   1.560  1.10133E+00  9.10842E-01  1.90487E-01
    8997.169      3.822   1.600  1.06808E+00  9.19364E-01  1.48720E-01
    8997.663      4.316   1.640  1.01096E+00  9.27501E-01  8.34597E-02
    8998.169      4.822   1.680  9.65616E-01  9.35212E-01  3.04040E-02
    8998.687      5.340   1.720  9.42679E-01  9.42516E-01  1.63467E-04
    8999.217      5.870   1.760  9.39111E-01  9.49414E-01 -1.03030E-02
    8999.760      6.413   1.800  9.58752E-01  9.55887E-01  2.86513E-03
    9000.314      6.968   1.840  1.00279E+00  9.61959E-01  4.08347E-02
    9000.881      7.535   1.880  1.05683E+00  9.67611E-01  8.92208E-02
    9001.460      8.114   1.920  1.10002E+00  9.72848E-01  1.27175E-01
    9002.052      8.705   1.960  1.13487E+00  9.77715E-01  1.57153E-01
    9002.655      9.309   2.000  1.17757E+00  9.82176E-01  1.95398E-01
    9003.271      9.924   2.040  1.22118E+00  9.86256E-01  2.34924E-01
    9003.899     10.552   2.080  1.24621E+00  9.89984E-01  2.56226E-01
    9004.539     11.192   2.120  1.24934E+00  9.93344E-01  2.55999E-01
    9005.191     11.844   2.160  1.24657E+00  9.96364E-01  2.50205E-01
    9005.856     12.509   2.200  1.25832E+00  9.99052E-01  2.59266E-01
    9006.532     13.186   2.240  1.29555E+00  1.00143E+00  2.94113E-01
    9007.221     13.874   2.280  1.35216E+00  1.00350E+00  3.48658E-01
    9007.922     14.575   2.320  1.39534E+00  1.00530E+00  3.90046E-01
    9008.635     15.289   2.360  1.38051E+00  1.00681E+00  3.73700E-01
    9009.361     16.014   2.400  1.30060E+00  1.00810E+00  2.92505E-01
    9010.098     16.752   2.440  1.19122E+00  1.00912E+00  1.82106E-01
    9010.848     17.502   2.480  1.08966E+00  1.00992E+00  7.97429E-02
    9011.610     18.264   2.520  1.01346E+00  1.01054E+00  2.92374E-03
    9012.384     19.038   2.560  9.62684E-01  1.01094E+00 -4.82521E-02
    9013.171     19.824   2.600  9.29429E-01  1.01118E+00 -8.17530E-02
    9013.969     20.623   2.640  9.03377E-01  1.01126E+00 -1.07886E-01
    9014.780     21.433   2.680  8.78992E-01  1.01119E+00 -1.32196E-01
    9015.603     22.256   2.720  8.58900E-01  1.01098E+00 -1.52083E-01
    9016.438     23.092   2.760  8.45217E-01  1.01068E+00 -1.65461E-01
    9017.286     23.939   2.800  8.35556E-01  1.01024E+00 -1.74679E-01
    9018.145     24.798   2.840  8.27912E-01  1.00972E+00 -1.81812E-01
    9019.017     25.670   2.880  8.22416E-01  1.00913E+00 -1.86714E-01
    9019.901     26.554   2.920  8.20226E-01  1.00846E+00 -1.88234E-01
    9020.797     27.450   2.960  8.21983E-01  1.00774E+00 -1.85754E-01
    9021.705     28.358   3.000  8.26776E-01  1.00695E+00 -1.80172E-01
    9022.626     29.279   3.040  8.33522E-01  1.00614E+00 -1.72618E-01
    9023.558     30.212   3.080  8.41465E-01  1.00529E+00 -1.63830E-01
    9024.503     31.157   3.120  8.50229E-01  1.00444E+00 -1.54211E-01
    9025.460     32.114   3.160  8.59599E-01  1.00358E+00 -1.43979E-01
    9026.429     33.083   3.200  8.69858E-01  1.00269E+00 -1.32833E-01
    9027.411     34.064   3.240  8.81815E-01  1.00183E+00 -1.20010E-01
    9028.405     35.058   3.280  8.95846E-01  1.00096E+00 -1.05116E-01
    9029.410     36.064   3.320  9.12146E-01  1.00010E+00 -8.79578E-02
    9030.428     37.082   3.360  9.30685E-01  9.99275E-01 -6.85904E-02
    9031.459     38.112   3.400  9.50991E-01  9.98458E-01 -4.74672E-02
    9032.501     39.154   3.440  9.72349E-01  9.97697E-01 -2.53477E-02
    9033.556     40.209   3.480  9.94114E-01  9.96950E-01 -2.83645E-03
    9034.622     41.276   3.520  1.01574E+00  9.96240E-01  1.94995E-02
    9035.701     42.355   3.560  1.03621E+00  9.95570E-01  4.06443E-02
    9036.793     43.446   3.600  1.05396E+00  9.94942E-01  5.90139E-02
    9037.896     44.549   3.640  1.06699E+00  9.94378E-01  7.26096E-02
    9039.012     45.665   3.680  1.07355E+00  9.93856E-01  7.96924E-02
    9040.139     46.793   3.720  1.07323E+00  9.93356E-01  7.98720E-02
    9041.279     47.933   3.760  1.06720E+00  9.92943E-01  7.42581E-02
    9042.431     49.085   3.800  1.05740E+00  9.92554E-01  6.48497E-02
    9043.596     50.249   3.840  1.04596E+00  9.92229E-01  5.37341E-02
    9044.772     51.426   3.880  1.03451E+00  9.91950E-01  4.25550E-02
    9045.961     52.614   3.920  1.02435E+00  9.91716E-01  3.26298E-02
    9047.162     53.815   3.960  1.01676E+00  9.91549E-01  2.52085E-02
    9048.375     55.028   4.000  1.01278E+00  9.91425E-01  2.13565E-02
    9049.600     56.254   4.040  1.01296E+00  9.91345E-01  2.16191E-02
    9050.838     57.491   4.080  1.01699E+00  9.91308E-01  2.56777E-02
    9052.087     58.741   4.120  1.02388E+00  9.91335E-01  3.25418E-02
    9053.349     60.003   4.160  1.03218E+00  9.91383E-01  4.08003E-02
    9054.623     61.277   4.200  1.04049E+00  9.91495E-01  4.89909E-02
    9055.910     62.563   4.240  1.04755E+00  9.91647E-01  5.59062E-02
    9057.208     63.861   4.280  1.05253E+00  9.91837E-01  6.06915E-02
    9058.519     65.172   4.320  1.05486E+00  9.92043E-01  6.28206E-02
    9059.842     66.495   4.360  1.05428E+00  9.92308E-01  6.19736E-02
    9061.177     67.830   4.400  1.05078E+00  9.92589E-01  5.81887E-02
    9062.524     69.177   4.440  1.04507E+00  9.92927E-01  5.21400E-02
    9063.883     70.537   4.480  1.03834E+00  9.93254E-01  4.50835E-02
    9065.255     71.908   4.520  1.03214E+00  9.93634E-01  3.85095E-02
    9066.639     73.292   4.560  1.02763E+00  9.94023E-01  3.36070E-02
    9068.035     74.688   4.600  1.02521E+00  9.94420E-01  3.07915E-02
    9069.443     76.096   4.640  1.02438E+00  9.94845E-01  2.95303E-02
    9070.863     77.516   4.680  1.02376E+00  9.95274E-01  2.84817E-02
    9072.296     78.949   4.720  1.02174E+00  9.95706E-01  2.60362E-02
    9073.740     80.394   4.760  1.01726E+00  9.96163E-01  2.10927E-02
    9075.197     81.851   4.800  1.01010E+00  9.96599E-01  1.34960E-02
    9076.666     83.320   4.840  1.00091E+00  9.97054E-01  3.85798E-03
    9078.148     84.801   4.880  9.90469E-01  9.97485E-01 -7.01552E-03
    9079.641     86.295   4.920  9.79385E-01  9.97911E-01 -1.85268E-02
    9081.147     87.800   4.960  9.68016E-01  9.98335E-01 -3.03187E-02
    9082.665     89.318   5.000  9.56678E-01  9.98754E-01 -4.20766E-02
    9084.195     90.848   5.040  9.45739E-01  9.99167E-01 -5.34273E-02
    9085.737     92.391   5.080  9.35701E-01  9.99547E-01 -6.38458E-02
    9087.292     93.945   5.120  9.27244E-01  9.99892E-01 -7.26481E-02
    9088.858     95.512   5.160  9.21098E-01  1.00023E+00 -7.91298E-02
    9090.437     97.091   5.200  9.17762E-01  1.00053E+00 -8.27685E-02
    9092.028     98.682   5.240  9.17374E-01  1.00082E+00 -8.34474E-02
    9093.632    100.285   5.280  9.19655E-01  1.00108E+00 -8.14216E-02
    9095.247    101.900   5.320  9.24171E-01  1.00130E+00 -7.71250E-02
    9096.875    103.528   5.360  9.30601E-01  1.00150E+00 -7.09015E-02
    9098.514    105.168   5.400  9.38719E-01  1.00167E+00 -6.29535E-02
    9100.166    106.820   5.440  9.48338E-01  1.00180E+00 -5.34651E-02
    9101.831    108.484   5.480  9.59247E-01  1.00189E+00 -4.26462E-02
    9103.507    110.160   5.520  9.71221E-01  1.00194E+00 -3.07232E-02
    9105.196    111.849   5.560  9.83949E-01  1.00196E+00 -1.80071E-02
    9106.896    113.550   5.600  9.97064E-01  1.00193E+00 -4.86469E-03
    9108.609    115.263   5.640  1.01035E+00  1.00188E+00  8.46618E-03
    9110.334    116.988   5.680  1.02378E+00  1.00178E+00  2.19952E-02
    9112.072    118.725   5.720  1.03735E+00  1.00166E+00  3.56870E-02
    9113.821    120.475   5.760  1.05041E+00  1.00148E+00  4.89293E-02
    9115.583    122.236   5.800  1.06153E+00  1.00128E+00  6.02530E-02
    9117.357    124.010   5.840  1.06872E+00  1.00105E+00  6.76775E-02
    9119.143    125.797   5.880  1.07031E+00  1.00078E+00  6.95327E-02
    9120.941    127.595   5.920  1.06588E+00  1.00047E+00  6.54109E-02
    9122.752    129.405   5.960  1.05662E+00  1.00013E+00  5.64863E-02
    9124.575    131.228   6.000  1.04415E+00  9.99727E-01  4.44252E-02
