# # comment:                                                     FEFF 9.9.1  
# # Source:
# # Structure
# # Reduced
# # space
# # abc:
# # angles:
# # sites:
# # POT  SCF 100  7.0000   0, screened core-hole, AFOLP (folp(0)= 1.150)
# # Abs   Z=29 Rmt= 1.258 Rnm= 1.346 K  shell
# # Pot 1 Z=56 Rmt= 1.963 Rnm= 2.041
# # Pot 2 Z=29 Rmt= 1.285 Rnm= 1.354
# # Pot 3 Z=33 Rmt= 1.078 Rnm= 1.285
# # Pot 4 Z= 8 Rmt= 0.981 Rnm= 1.082
# # Gam_ch=1.729E+00 H-L exch Vi= 0.000E+00 Vr= 0.000E+00
# # Mu=-5.792E+00eV kf=2.260E+00 Vint=-1.578E+01eV Rs_int= 1.605
# FMS rfms= 9.0000
# # PATH  Rmax=-1.000,  Keep_limit= 0.00, Heap_limit 0.00  Pwcrit= 2.50%
#  S02=0.950  Temp=   0.00  Debye_temp=   0.00  Global_sig2= 0.00000
#  Energy zero shift, vr, vi    0.00000E+00   0.00000E+00
#  Curved wave amplitude ratio filter   4.000%
#     file         sig2 tot  cw amp ratio   deg  nlegs   reff  inp sig2
#     0/   0 paths used
#  xsedge+ 50, used to normalize mu           2.4615E-04
#  -----------------------------------------------------------------------
#  omega    e    k    mu    mu0     chi     @#
    8983.412     -9.602  -1.000  4.85144E-02  5.61623E-02 -7.64787E-03
    8983.711     -9.303  -0.960  5.18512E-02  6.03281E-02 -8.47690E-03
    8983.997     -9.016  -0.920  5.55610E-02  6.49654E-02 -9.40449E-03
    8984.272     -8.742  -0.880  5.97025E-02  7.01444E-02 -1.04418E-02
    8984.534     -8.480  -0.840  6.43457E-02  7.59467E-02 -1.16009E-02
    8984.784     -8.230  -0.800  6.95728E-02  8.24672E-02 -1.28945E-02
    8985.021     -7.992  -0.760  7.54797E-02  8.98150E-02 -1.43353E-02
    8985.247     -7.767  -0.720  8.21769E-02  9.81133E-02 -1.59365E-02
    8985.460     -7.553  -0.680  8.97879E-02  1.07498E-01 -1.77100E-02
    8985.661     -7.352  -0.640  9.84458E-02  1.18112E-01 -1.96667E-02
    8985.850     -7.163  -0.600  1.08283E-01  1.30098E-01 -2.18150E-02
    8986.027     -6.986  -0.560  1.19416E-01  1.43576E-01 -2.41605E-02
    8986.192     -6.822  -0.520  1.31913E-01  1.58618E-01 -2.67055E-02
    8986.344     -6.669  -0.480  1.45762E-01  1.75210E-01 -2.94483E-02
    8986.484     -6.529  -0.440  1.60823E-01  1.93206E-01 -3.23839E-02
    8986.612     -6.401  -0.400  1.76789E-01  2.12290E-01 -3.55014E-02
    8986.728     -6.285  -0.360  1.93185E-01  2.31966E-01 -3.87809E-02
    8986.832     -6.182  -0.320  2.09404E-01  2.51589E-01 -4.21853E-02
    8986.923     -6.090  -0.280  2.24792E-01  2.70443E-01 -4.56510E-02
    8987.003     -6.011  -0.240  2.38759E-01  2.87841E-01 -4.90820E-02
    8987.070     -5.944  -0.200  2.50858E-01  3.03209E-01 -5.23503E-02
    8987.125     -5.889  -0.160  2.60824E-01  3.16129E-01 -5.53054E-02
    8987.167     -5.847  -0.120  2.68545E-01  3.26337E-01 -5.77921E-02
    8987.198     -5.816  -0.080  2.74013E-01  3.33688E-01 -5.96755E-02
    8987.222     -5.792   0.000  2.78317E-01  3.39592E-01 -6.12752E-02
    8987.277     -5.737   0.120  2.87407E-01  3.52899E-01 -6.54914E-02
    8987.320     -5.694   0.160  2.94393E-01  3.63222E-01 -6.88288E-02
    8987.374     -5.639   0.200  3.03093E-01  3.76407E-01 -7.33140E-02
    8987.442     -5.572   0.240  3.13116E-01  3.92220E-01 -7.91037E-02
    8987.521     -5.493   0.280  3.24061E-01  4.10370E-01 -8.63094E-02
    8987.612     -5.402   0.320  3.35343E-01  4.30312E-01 -9.49698E-02
    8987.716     -5.298   0.360  3.46530E-01  4.51509E-01 -1.04979E-01
    8987.832     -5.182   0.400  3.57241E-01  4.73243E-01 -1.16003E-01
    8987.960     -5.054   0.440  3.67540E-01  4.94997E-01 -1.27456E-01
    8988.100     -4.914   0.480  3.77676E-01  5.16262E-01 -1.38586E-01
    8988.252     -4.761   0.520  3.88134E-01  5.36773E-01 -1.48639E-01
    8988.417     -4.597   0.560  3.99225E-01  5.56379E-01 -1.57155E-01
    8988.594     -4.420   0.600  4.10902E-01  5.75047E-01 -1.64145E-01
    8988.783     -4.231   0.640  4.22728E-01  5.92819E-01 -1.70092E-01
    8988.984     -4.030   0.680  4.34205E-01  6.09804E-01 -1.75599E-01
    8989.197     -3.817   0.720  4.45181E-01  6.26120E-01 -1.80939E-01
    8989.423     -3.591   0.760  4.55756E-01  6.41848E-01 -1.86092E-01
    8989.660     -3.353   0.800  4.65942E-01  6.57078E-01 -1.91135E-01
    8989.910     -3.103   0.840  4.75928E-01  6.71905E-01 -1.95976E-01
    8990.172     -2.841   0.880  4.86777E-01  6.86390E-01 -1.99613E-01
    8990.447     -2.567   0.920  5.00031E-01  7.00581E-01 -2.00550E-01
    8990.733     -2.280   0.960  5.15937E-01  7.14491E-01 -1.98554E-01
    8991.032     -1.982   1.000  5.32845E-01  7.28182E-01 -1.95337E-01
    8991.343     -1.671   1.040  5.48359E-01  7.41627E-01 -1.93267E-01
    8991.666     -1.348   1.080  5.59461E-01  7.54869E-01 -1.95407E-01
    8992.001     -1.012   1.120  5.62105E-01  7.67865E-01 -2.05760E-01
    8992.349     -0.665   1.160  5.55463E-01  7.80651E-01 -2.25187E-01
    8992.708     -0.305   1.200  5.45795E-01  7.93190E-01 -2.47394E-01
    8993.080      0.067   1.240  5.42717E-01  8.05467E-01 -2.62750E-01
    8993.464      0.451   1.280  5.52623E-01  8.17486E-01 -2.64863E-01
    8993.861      0.847   1.320  5.78016E-01  8.29203E-01 -2.51187E-01
    8994.269      1.255   1.360  6.19959E-01  8.40616E-01 -2.20656E-01
    8994.690      1.676   1.400  6.78859E-01  8.51704E-01 -1.72844E-01
    8995.122      2.109   1.440  7.55676E-01  8.62441E-01 -1.06765E-01
    8995.567      2.554   1.480  8.44242E-01  8.72824E-01 -2.85822E-02
    8996.025      3.011   1.520  9.19365E-01  8.82850E-01  3.65146E-02
    8996.494      3.480   1.560  9.63065E-01  8.92475E-01  7.05898E-02
    8996.976      3.962   1.600  9.92126E-01  9.01696E-01  9.04295E-02
    8997.469      4.456   1.640  1.03271E+00  9.10530E-01  1.22178E-01
    8997.975      4.962   1.680  1.09240E+00  9.18936E-01  1.73464E-01
    8998.494      5.480   1.720  1.16960E+00  9.26911E-01  2.42686E-01
    8999.024      6.010   1.760  1.25109E+00  9.34476E-01  3.16616E-01
    8999.566      6.553   1.800  1.29725E+00  9.41612E-01  3.55641E-01
    9000.121      7.107   1.840  1.28942E+00  9.48320E-01  3.41104E-01
    9000.688      7.674   1.880  1.25389E+00  9.54602E-01  2.99289E-01
    9001.267      8.253   1.920  1.21679E+00  9.60462E-01  2.56331E-01
    9001.858      8.845   1.960  1.18602E+00  9.65903E-01  2.20121E-01
    9002.462      9.448   2.000  1.16392E+00  9.70950E-01  1.92967E-01
    9003.078     10.064   2.040  1.15267E+00  9.75590E-01  1.77081E-01
    9003.706     10.692   2.080  1.15659E+00  9.79846E-01  1.76745E-01
    9004.346     11.332   2.120  1.17989E+00  9.83749E-01  1.96140E-01
    9004.998     11.984   2.160  1.21414E+00  9.87261E-01  2.26881E-01
    9005.662     12.649   2.200  1.23928E+00  9.90451E-01  2.48827E-01
    9006.339     13.325   2.240  1.24251E+00  9.93289E-01  2.49218E-01
    9007.028     14.014   2.280  1.22782E+00  9.95821E-01  2.32000E-01
    9007.729     14.715   2.320  1.20858E+00  9.98034E-01  2.10550E-01
    9008.442     15.428   2.360  1.19294E+00  9.99978E-01  1.92964E-01
    9009.168     16.154   2.400  1.17627E+00  1.00164E+00  1.74630E-01
    9009.905     16.891   2.440  1.15033E+00  1.00305E+00  1.47279E-01
    9010.655     17.641   2.480  1.11713E+00  1.00422E+00  1.12910E-01
    9011.417     18.403   2.520  1.08589E+00  1.00517E+00  8.07153E-02
    9012.191     19.177   2.560  1.06225E+00  1.00592E+00  5.63340E-02
    9012.978     19.964   2.600  1.04566E+00  1.00648E+00  3.91792E-02
    9013.776     20.762   2.640  1.03084E+00  1.00686E+00  2.39812E-02
    9014.587     21.573   2.680  1.00903E+00  1.00709E+00  1.93382E-03
    9015.410     22.396   2.720  9.81320E-01  1.00717E+00 -2.58486E-02
    9016.245     23.231   2.760  9.53100E-01  1.00712E+00 -5.40167E-02
    9017.092     24.079   2.800  9.27580E-01  1.00694E+00 -7.93629E-02
    9017.952     24.938   2.840  9.05706E-01  1.00667E+00 -1.00968E-01
    9018.824     25.810   2.880  8.87407E-01  1.00630E+00 -1.18890E-01
    9019.707     26.694   2.920  8.72413E-01  1.00586E+00 -1.33444E-01
    9020.604     27.590   2.960  8.60911E-01  1.00534E+00 -1.44430E-01
    9021.512     28.498   3.000  8.53019E-01  1.00475E+00 -1.51733E-01
    9022.432     29.419   3.040  8.48687E-01  1.00414E+00 -1.55452E-01
    9023.365     30.351   3.080  8.47824E-01  1.00346E+00 -1.55640E-01
    9024.310     31.296   3.120  8.50283E-01  1.00278E+00 -1.52492E-01
    9025.267     32.253   3.160  8.55748E-01  1.00208E+00 -1.46327E-01
    9026.236     33.223   3.200  8.63740E-01  1.00135E+00 -1.37608E-01
    9027.218     34.204   3.240  8.73576E-01  1.00064E+00 -1.27062E-01
    9028.211     35.198   3.280  8.83896E-01  9.99907E-01 -1.16011E-01
    9029.217     36.203   3.320  8.93671E-01  9.99199E-01 -1.05529E-01
    9030.235     37.222   3.360  9.02282E-01  9.98495E-01 -9.62130E-02
    9031.265     38.252   3.400  9.09659E-01  9.97798E-01 -8.81391E-02
    9032.308     39.294   3.440  9.16166E-01  9.97134E-01 -8.09687E-02
    9033.362     40.349   3.480  9.22363E-01  9.96504E-01 -7.41411E-02
    9034.429     41.416   3.520  9.28688E-01  9.95910E-01 -6.72213E-02
    9035.508     42.495   3.560  9.35253E-01  9.95353E-01 -6.01006E-02
    9036.599     43.586   3.600  9.42131E-01  9.94812E-01 -5.26811E-02
    9037.703     44.689   3.640  9.49584E-01  9.94331E-01 -4.47472E-02
    9038.818     45.805   3.680  9.57920E-01  9.93892E-01 -3.59718E-02
    9039.946     46.932   3.720  9.67473E-01  9.93472E-01 -2.59989E-02
    9041.086     48.072   3.760  9.78574E-01  9.93115E-01 -1.45409E-02
    9042.238     49.224   3.800  9.91152E-01  9.92822E-01 -1.67059E-03
    9043.403     50.389   3.840  1.00470E+00  9.92551E-01  1.21487E-02
    9044.579     51.565   3.880  1.01862E+00  9.92323E-01  2.63018E-02
    9045.768     52.754   3.920  1.03243E+00  9.92158E-01  4.02688E-02
    9046.969     53.955   3.960  1.04567E+00  9.92037E-01  5.36310E-02
    9048.182     55.168   4.000  1.05814E+00  9.91959E-01  6.61807E-02
    9049.407     56.393   4.040  1.06956E+00  9.91923E-01  7.76401E-02
    9050.645     57.631   4.080  1.07950E+00  9.91950E-01  8.75529E-02
    9051.894     58.881   4.120  1.08738E+00  9.91997E-01  9.53789E-02
    9053.156     60.142   4.160  1.09277E+00  9.92105E-01  1.00669E-01
    9054.430     61.416   4.200  1.09526E+00  9.92231E-01  1.03024E-01
    9055.716     62.703   4.240  1.09460E+00  9.92417E-01  1.02187E-01
    9057.015     64.001   4.280  1.09092E+00  9.92619E-01  9.83018E-02
    9058.325     65.312   4.320  1.08476E+00  9.92859E-01  9.19026E-02
    9059.648     66.635   4.360  1.07698E+00  9.93134E-01  8.38506E-02
    9060.983     67.970   4.400  1.06862E+00  9.93445E-01  7.51727E-02
    9062.331     69.317   4.440  1.06052E+00  9.93790E-01  6.67339E-02
    9063.690     70.676   4.480  1.05306E+00  9.94144E-01  5.89198E-02
    9065.062     72.048   4.520  1.04614E+00  9.94506E-01  5.16375E-02
    9066.445     73.432   4.560  1.03940E+00  9.94897E-01  4.45070E-02
    9067.841     74.828   4.600  1.03238E+00  9.95319E-01  3.70574E-02
    9069.249     76.236   4.640  1.02476E+00  9.95747E-01  2.90150E-02
    9070.670     77.656   4.680  1.01655E+00  9.96177E-01  2.03708E-02
    9072.102     79.089   4.720  1.00792E+00  9.96607E-01  1.13137E-02
    9073.547     80.533   4.760  9.99196E-01  9.97039E-01  2.15701E-03
    9075.004     81.990   4.800  9.90678E-01  9.97471E-01 -6.79279E-03
    9076.473     83.459   4.840  9.82641E-01  9.97924E-01 -1.52830E-02
    9077.955     84.941   4.880  9.75268E-01  9.98354E-01 -2.30858E-02
    9079.448     86.434   4.920  9.68760E-01  9.98778E-01 -3.00177E-02
    9080.954     87.940   4.960  9.63207E-01  9.99195E-01 -3.59885E-02
    9082.472     89.458   5.000  9.58598E-01  9.99584E-01 -4.09857E-02
    9084.002     90.988   5.040  9.54889E-01  9.99965E-01 -4.50765E-02
    9085.544     92.530   5.080  9.52091E-01  1.00034E+00 -4.82469E-02
    9087.098     94.085   5.120  9.50281E-01  1.00068E+00 -5.03969E-02
    9088.665     95.651   5.160  9.49589E-01  1.00099E+00 -5.13962E-02
    9090.244     97.230   5.200  9.50124E-01  1.00128E+00 -5.11579E-02
    9091.835     98.821   5.240  9.51837E-01  1.00157E+00 -4.97285E-02
    9093.438    100.425   5.280  9.54526E-01  1.00179E+00 -4.72650E-02
    9095.054    102.040   5.320  9.58066E-01  1.00200E+00 -4.39354E-02
    9096.681    103.668   5.360  9.62234E-01  1.00217E+00 -3.99409E-02
    9098.321    105.307   5.400  9.66924E-01  1.00231E+00 -3.53879E-02
    9099.973    106.959   5.440  9.72181E-01  1.00243E+00 -3.02518E-02
    9101.637    108.624   5.480  9.77985E-01  1.00249E+00 -2.45093E-02
    9103.314    110.300   5.520  9.84242E-01  1.00254E+00 -1.82975E-02
    9105.002    111.989   5.560  9.90502E-01  1.00255E+00 -1.20438E-02
    9106.703    113.689   5.600  9.96186E-01  1.00251E+00 -6.32729E-03
    9108.416    115.402   5.640  1.00073E+00  1.00244E+00 -1.70671E-03
    9110.141    117.128   5.680  1.00387E+00  1.00233E+00  1.53998E-03
    9111.879    118.865   5.720  1.00549E+00  1.00218E+00  3.30887E-03
    9113.628    120.614   5.760  1.00566E+00  1.00202E+00  3.64217E-03
    9115.390    122.376   5.800  1.00447E+00  1.00179E+00  2.67758E-03
    9117.164    124.150   5.840  1.00216E+00  1.00155E+00  6.07872E-04
    9118.950    125.936   5.880  9.98922E-01  1.00126E+00 -2.33262E-03
    9120.748    127.735   5.920  9.95146E-01  1.00095E+00 -5.79934E-03
    9122.559    129.545   5.960  9.91309E-01  1.00060E+00 -9.29593E-03
    9124.381    131.368   6.000  9.87943E-01  1.00023E+00 -1.22916E-02
